'sample interval','MLII','V1'
'0.00277778 sec','mV','mV'
0,-0.750,-0.620
1,-0.750,-0.620
2,-0.750,-0.620
3,-0.750,-0.620
4,-0.750,-0.620
5,-0.750,-0.620
6,-0.750,-0.620
7,-0.760,-0.620
8,-0.770,-0.630
9,-0.775,-0.615
10,-0.775,-0.620
11,-0.785,-0.605
12,-0.780,-0.595
13,-0.760,-0.595
14,-0.770,-0.590
15,-0.770,-0.585
16,-0.770,-0.595
17,-0.780,-0.615
18,-0.780,-0.615
19,-0.790,-0.620
20,-0.790,-0.625
21,-0.800,-0.635
22,-0.795,-0.625
23,-0.795,-0.615
24,-0.785,-0.610
25,-0.785,-0.610
26,-0.765,-0.595
27,-0.780,-0.620
28,-0.795,-0.630
29,-0.790,-0.625
30,-0.800,-0.630
31,-0.820,-0.640
32,-0.810,-0.645
33,-0.815,-0.635
34,-0.805,-0.635
35,-0.795,-0.630
36,-0.800,-0.620
37,-0.790,-0.610
38,-0.785,-0.605
39,-0.775,-0.600
40,-0.770,-0.600
41,-0.795,-0.615
42,-0.805,-0.625
43,-0.790,-0.640
44,-0.800,-0.620
45,-0.795,-0.640
46,-0.785,-0.620
47,-0.795,-0.605
48,-0.780,-0.610
49,-0.755,-0.600
50,-0.750,-0.605
51,-0.745,-0.610
52,-0.740,-0.620
53,-0.730,-0.620
54,-0.715,-0.635
55,-0.710,-0.625
56,-0.710,-0.620
57,-0.720,-0.615
58,-0.715,-0.625
59,-0.720,-0.610
60,-0.690,-0.615
61,-0.685,-0.600
62,-0.680,-0.605
63,-0.675,-0.610
64,-0.680,-0.625
65,-0.660,-0.625
66,-0.670,-0.635
67,-0.670,-0.635
68,-0.675,-0.655
69,-0.690,-0.645
70,-0.710,-0.650
71,-0.710,-0.635
72,-0.720,-0.625
73,-0.740,-0.640
74,-0.735,-0.625
75,-0.750,-0.635
76,-0.750,-0.645
77,-0.745,-0.670
78,-0.750,-0.675
79,-0.760,-0.670
80,-0.780,-0.680
81,-0.800,-0.685
82,-0.820,-0.670
83,-0.830,-0.650
84,-0.825,-0.625
85,-0.830,-0.605
86,-0.830,-0.600
87,-0.840,-0.590
88,-0.845,-0.590
89,-0.845,-0.605
90,-0.865,-0.615
91,-0.865,-0.630
92,-0.860,-0.650
93,-0.870,-0.635
94,-0.865,-0.635
95,-0.870,-0.620
96,-0.850,-0.620
97,-0.860,-0.610
98,-0.855,-0.600
99,-0.845,-0.615
100,-0.845,-0.610
101,-0.845,-0.610
102,-0.860,-0.625
103,-0.855,-0.640
104,-0.865,-0.635
105,-0.865,-0.635
106,-0.860,-0.630
107,-0.860,-0.625
108,-0.860,-0.610
109,-0.855,-0.590
110,-0.845,-0.595
111,-0.845,-0.590
112,-0.830,-0.590
113,-0.835,-0.600
114,-0.835,-0.605
115,-0.830,-0.610
116,-0.800,-0.610
117,-0.760,-0.620
118,-0.690,-0.610
119,-0.600,-0.605
120,-0.475,-0.625
121,-0.345,-0.645
122,-0.220,-0.665
123,-0.125,-0.690
124,-0.045,-0.720
125,-0.045,-0.740
126,-0.145,-0.770
127,-0.290,-0.790
128,-0.445,-0.810
129,-0.640,-0.815
130,-0.845,-0.800
131,-1.030,-0.735
132,-1.150,-0.650
133,-1.190,-0.545
134,-1.175,-0.425
135,-1.155,-0.345
136,-1.110,-0.315
137,-1.085,-0.350
138,-1.060,-0.420
139,-1.040,-0.505
140,-1.025,-0.585
141,-1.025,-0.605
142,-1.000,-0.620
143,-0.975,-0.615
144,-0.960,-0.620
145,-0.955,-0.615
146,-0.945,-0.600
147,-0.940,-0.615
148,-0.945,-0.615
149,-0.960,-0.620
150,-0.960,-0.630
151,-0.965,-0.635
152,-0.980,-0.640
153,-0.980,-0.640
154,-0.970,-0.625
155,-0.970,-0.620
156,-0.970,-0.620
157,-0.955,-0.625
158,-0.950,-0.615
159,-0.955,-0.615
160,-0.945,-0.620
161,-0.955,-0.635
162,-0.965,-0.645
163,-0.965,-0.655
164,-0.970,-0.655
165,-0.975,-0.655
166,-0.975,-0.635
167,-0.980,-0.640
168,-0.965,-0.630
169,-0.965,-0.620
170,-0.975,-0.625
171,-0.980,-0.625
172,-0.975,-0.635
173,-0.975,-0.640
174,-0.980,-0.650
175,-0.990,-0.655
176,-0.995,-0.650
177,-1.000,-0.660
178,-1.015,-0.660
179,-1.010,-0.640
180,-1.010,-0.645
181,-1.010,-0.640
182,-0.990,-0.630
183,-0.990,-0.640
184,-0.990,-0.640
185,-1.010,-0.655
186,-1.020,-0.665
187,-1.030,-0.665
188,-1.035,-0.670
189,-1.045,-0.670
190,-1.040,-0.670
191,-1.040,-0.660
192,-1.040,-0.665
193,-1.035,-0.660
194,-1.030,-0.655
195,-1.025,-0.655
196,-1.040,-0.660
197,-1.040,-0.675
198,-1.050,-0.685
199,-1.060,-0.680
200,-1.065,-0.685
201,-1.080,-0.685
202,-1.070,-0.685
203,-1.070,-0.675
204,-1.070,-0.665
205,-1.055,-0.655
206,-1.060,-0.655
207,-1.060,-0.650
208,-1.060,-0.650
209,-1.060,-0.655
210,-1.070,-0.670
211,-1.070,-0.685
212,-1.075,-0.685
213,-1.065,-0.680
214,-1.065,-0.680
215,-1.065,-0.675
216,-1.055,-0.675
217,-1.055,-0.660
218,-1.045,-0.665
219,-1.040,-0.680
220,-1.030,-0.680
221,-1.015,-0.680
222,-1.025,-0.680
223,-1.010,-0.685
224,-1.020,-0.705
225,-1.005,-0.705
226,-1.000,-0.705
227,-0.965,-0.680
228,-0.945,-0.685
229,-0.915,-0.675
230,-0.895,-0.685
231,-0.875,-0.685
232,-0.855,-0.690
233,-0.840,-0.700
234,-0.825,-0.705
235,-0.805,-0.705
236,-0.800,-0.715
237,-0.785,-0.710
238,-0.775,-0.700
239,-0.755,-0.690
240,-0.740,-0.675
241,-0.720,-0.675
242,-0.710,-0.675
243,-0.700,-0.655
244,-0.690,-0.665
245,-0.695,-0.670
246,-0.705,-0.685
247,-0.710,-0.685
248,-0.720,-0.685
249,-0.705,-0.670
250,-0.715,-0.660
251,-0.710,-0.655
252,-0.710,-0.630
253,-0.715,-0.625
254,-0.715,-0.625
255,-0.710,-0.630
256,-0.720,-0.625
257,-0.715,-0.630
258,-0.730,-0.635
259,-0.740,-0.650
260,-0.760,-0.665
261,-0.745,-0.660
262,-0.750,-0.660
263,-0.765,-0.645
264,-0.750,-0.635
265,-0.745,-0.635
266,-0.745,-0.630
267,-0.745,-0.630
268,-0.755,-0.640
269,-0.765,-0.650
270,-0.775,-0.640
271,-0.770,-0.650
272,-0.790,-0.655
273,-0.790,-0.660
274,-0.795,-0.635
275,-0.785,-0.645
276,-0.785,-0.630
277,-0.790,-0.635
278,-0.790,-0.620
279,-0.790,-0.625
280,-0.770,-0.635
281,-0.790,-0.640
282,-0.795,-0.645
283,-0.800,-0.655
284,-0.795,-0.660
285,-0.800,-0.665
286,-0.805,-0.665
287,-0.795,-0.660
288,-0.795,-0.650
289,-0.790,-0.645
290,-0.780,-0.645
291,-0.790,-0.650
292,-0.785,-0.655
293,-0.795,-0.660
294,-0.790,-0.675
295,-0.805,-0.680
296,-0.825,-0.685
297,-0.820,-0.675
298,-0.810,-0.670
299,-0.805,-0.665
300,-0.795,-0.660
301,-0.785,-0.655
302,-0.780,-0.635
303,-0.780,-0.645
304,-0.785,-0.645
305,-0.790,-0.640
306,-0.790,-0.660
307,-0.805,-0.665
308,-0.815,-0.675
309,-0.810,-0.665
310,-0.800,-0.655
311,-0.790,-0.645
312,-0.780,-0.645
313,-0.760,-0.640
314,-0.750,-0.630
315,-0.745,-0.635
316,-0.735,-0.625
317,-0.720,-0.630
318,-0.710,-0.635
319,-0.710,-0.660
320,-0.715,-0.650
321,-0.705,-0.645
322,-0.710,-0.645
323,-0.710,-0.645
324,-0.705,-0.635
325,-0.695,-0.630
326,-0.675,-0.625
327,-0.670,-0.645
328,-0.660,-0.635
329,-0.655,-0.655
330,-0.655,-0.655
331,-0.670,-0.665
332,-0.685,-0.680
333,-0.710,-0.685
334,-0.720,-0.680
335,-0.750,-0.680
336,-0.745,-0.670
337,-0.745,-0.660
338,-0.740,-0.670
339,-0.745,-0.670
340,-0.745,-0.680
341,-0.755,-0.675
342,-0.780,-0.700
343,-0.800,-0.700
344,-0.830,-0.705
345,-0.845,-0.690
346,-0.840,-0.670
347,-0.850,-0.655
348,-0.850,-0.625
349,-0.850,-0.620
350,-0.840,-0.615
351,-0.840,-0.620
352,-0.855,-0.635
353,-0.850,-0.630
354,-0.870,-0.645
355,-0.865,-0.660
356,-0.875,-0.670
357,-0.875,-0.650
358,-0.865,-0.650
359,-0.875,-0.645
360,-0.860,-0.645
361,-0.860,-0.635
362,-0.855,-0.640
363,-0.855,-0.635
364,-0.860,-0.625
365,-0.855,-0.640
366,-0.860,-0.650
367,-0.860,-0.645
368,-0.870,-0.655
369,-0.865,-0.650
370,-0.845,-0.645
371,-0.855,-0.630
372,-0.835,-0.620
373,-0.800,-0.605
374,-0.760,-0.600
375,-0.705,-0.615
376,-0.625,-0.620
377,-0.530,-0.645
378,-0.415,-0.660
379,-0.295,-0.705
380,-0.190,-0.730
381,-0.105,-0.755
382,-0.055,-0.760
383,-0.095,-0.765
384,-0.185,-0.775
385,-0.310,-0.795
386,-0.430,-0.800
387,-0.575,-0.805
388,-0.725,-0.800
389,-0.890,-0.790
390,-1.050,-0.755
391,-1.160,-0.685
392,-1.210,-0.600
393,-1.195,-0.495
394,-1.160,-0.405
395,-1.125,-0.345
396,-1.095,-0.335
397,-1.085,-0.395
398,-1.055,-0.455
399,-1.035,-0.525
400,-1.020,-0.590
401,-1.005,-0.615
402,-0.990,-0.625
403,-0.980,-0.640
404,-0.975,-0.645
405,-0.975,-0.650
406,-0.965,-0.650
407,-0.975,-0.650
408,-0.965,-0.640
409,-0.955,-0.630
410,-0.960,-0.620
411,-0.955,-0.630
412,-0.955,-0.635
413,-0.965,-0.645
414,-0.980,-0.645
415,-0.980,-0.665
416,-0.985,-0.665
417,-0.985,-0.660
418,-0.990,-0.660
419,-0.980,-0.645
420,-0.985,-0.650
421,-0.985,-0.660
422,-0.980,-0.640
423,-0.960,-0.650
424,-0.975,-0.650
425,-0.980,-0.655
426,-0.985,-0.655
427,-0.995,-0.665
428,-1.000,-0.660
429,-1.010,-0.660
430,-1.005,-0.655
431,-1.010,-0.645
432,-1.000,-0.650
433,-1.005,-0.630
434,-1.005,-0.640
435,-1.000,-0.645
436,-1.005,-0.640
437,-1.010,-0.640
438,-1.025,-0.665
439,-1.030,-0.675
440,-1.035,-0.675
441,-1.040,-0.675
442,-1.045,-0.670
443,-1.055,-0.650
444,-1.045,-0.655
445,-1.030,-0.640
446,-1.030,-0.645
447,-1.030,-0.655
448,-1.040,-0.665
449,-1.045,-0.665
450,-1.055,-0.680
451,-1.070,-0.690
452,-1.090,-0.695
453,-1.085,-0.695
454,-1.095,-0.700
455,-1.095,-0.685
456,-1.085,-0.695
457,-1.085,-0.670
458,-1.075,-0.660
459,-1.075,-0.670
460,-1.075,-0.670
461,-1.080,-0.685
462,-1.100,-0.700
463,-1.100,-0.690
464,-1.095,-0.695
465,-1.105,-0.690
466,-1.105,-0.685
467,-1.115,-0.690
468,-1.100,-0.675
469,-1.100,-0.670
470,-1.090,-0.665
471,-1.090,-0.670
472,-1.075,-0.680
473,-1.075,-0.685
474,-1.080,-0.705
475,-1.085,-0.700
476,-1.080,-0.710
477,-1.080,-0.700
478,-1.080,-0.705
479,-1.065,-0.700
480,-1.060,-0.695
481,-1.040,-0.685
482,-1.045,-0.680
483,-1.020,-0.680
484,-1.010,-0.675
485,-0.985,-0.695
486,-0.985,-0.710
487,-0.975,-0.735
488,-0.965,-0.725
489,-0.950,-0.730
490,-0.925,-0.720
491,-0.915,-0.705
492,-0.875,-0.710
493,-0.860,-0.705
494,-0.830,-0.695
495,-0.805,-0.695
496,-0.785,-0.705
497,-0.780,-0.710
498,-0.765,-0.710
499,-0.765,-0.710
500,-0.770,-0.710
501,-0.765,-0.710
502,-0.750,-0.705
503,-0.745,-0.695
504,-0.735,-0.670
505,-0.735,-0.665
506,-0.730,-0.650
507,-0.730,-0.655
508,-0.730,-0.665
509,-0.740,-0.660
510,-0.755,-0.670
511,-0.765,-0.685
512,-0.775,-0.670
513,-0.780,-0.685
514,-0.770,-0.675
515,-0.775,-0.670
516,-0.775,-0.660
517,-0.770,-0.660
518,-0.770,-0.645
519,-0.775,-0.660
520,-0.790,-0.660
521,-0.790,-0.655
522,-0.805,-0.670
523,-0.805,-0.665
524,-0.810,-0.685
525,-0.815,-0.675
526,-0.815,-0.665
527,-0.815,-0.660
528,-0.810,-0.650
529,-0.800,-0.655
530,-0.795,-0.635
531,-0.805,-0.645
532,-0.800,-0.650
533,-0.815,-0.665
534,-0.825,-0.660
535,-0.835,-0.660
536,-0.830,-0.665
537,-0.845,-0.680
538,-0.845,-0.675
539,-0.835,-0.665
540,-0.835,-0.655
541,-0.835,-0.640
542,-0.830,-0.650
543,-0.840,-0.645
544,-0.825,-0.650
545,-0.820,-0.660
546,-0.825,-0.675
547,-0.825,-0.675
548,-0.840,-0.680
549,-0.845,-0.685
550,-0.855,-0.690
551,-0.855,-0.680
552,-0.835,-0.680
553,-0.830,-0.665
554,-0.840,-0.675
555,-0.825,-0.675
556,-0.830,-0.665
557,-0.830,-0.670
558,-0.835,-0.680
559,-0.840,-0.675
560,-0.840,-0.680
561,-0.840,-0.685
562,-0.845,-0.685
563,-0.855,-0.670
564,-0.840,-0.675
565,-0.835,-0.670
566,-0.825,-0.660
567,-0.820,-0.660
568,-0.820,-0.670
569,-0.830,-0.665
570,-0.815,-0.670
571,-0.820,-0.690
572,-0.825,-0.690
573,-0.815,-0.685
574,-0.810,-0.675
575,-0.790,-0.675
576,-0.785,-0.660
577,-0.760,-0.640
578,-0.745,-0.635
579,-0.735,-0.630
580,-0.730,-0.650
581,-0.730,-0.650
582,-0.750,-0.660
583,-0.745,-0.675
584,-0.750,-0.680
585,-0.755,-0.675
586,-0.740,-0.685
587,-0.735,-0.665
588,-0.720,-0.665
589,-0.720,-0.665
590,-0.700,-0.655
591,-0.700,-0.660
592,-0.720,-0.675
593,-0.755,-0.690
594,-0.770,-0.685
595,-0.790,-0.695
596,-0.810,-0.710
597,-0.825,-0.710
598,-0.825,-0.705
599,-0.815,-0.695
600,-0.800,-0.705
601,-0.810,-0.695
602,-0.815,-0.695
603,-0.835,-0.705
604,-0.845,-0.700
605,-0.865,-0.685
606,-0.870,-0.675
607,-0.890,-0.665
608,-0.895,-0.670
609,-0.905,-0.650
610,-0.905,-0.645
611,-0.900,-0.650
612,-0.905,-0.645
613,-0.900,-0.645
614,-0.905,-0.635
615,-0.895,-0.645
616,-0.895,-0.650
617,-0.905,-0.660
618,-0.920,-0.665
619,-0.915,-0.670
620,-0.915,-0.680
621,-0.930,-0.680
622,-0.930,-0.685
623,-0.910,-0.660
624,-0.930,-0.645
625,-0.895,-0.650
626,-0.910,-0.640
627,-0.890,-0.635
628,-0.880,-0.630
629,-0.900,-0.640
630,-0.905,-0.655
631,-0.895,-0.650
632,-0.895,-0.650
633,-0.895,-0.640
634,-0.895,-0.630
635,-0.890,-0.625
636,-0.870,-0.620
637,-0.830,-0.615
638,-0.765,-0.605
639,-0.695,-0.625
640,-0.605,-0.630
641,-0.490,-0.675
642,-0.365,-0.705
643,-0.240,-0.735
644,-0.145,-0.765
645,-0.105,-0.785
646,-0.150,-0.800
647,-0.265,-0.810
648,-0.410,-0.825
649,-0.565,-0.820
650,-0.755,-0.815
651,-0.945,-0.790
652,-1.120,-0.745
653,-1.245,-0.665
654,-1.270,-0.575
655,-1.255,-0.465
656,-1.225,-0.390
657,-1.195,-0.365
658,-1.150,-0.390
659,-1.135,-0.450
660,-1.115,-0.510
661,-1.090,-0.565
662,-1.060,-0.595
663,-1.045,-0.620
664,-1.025,-0.630
665,-1.020,-0.645
666,-1.000,-0.655
667,-1.005,-0.660
668,-1.005,-0.655
669,-1.010,-0.660
670,-1.015,-0.660
671,-1.020,-0.655
672,-1.015,-0.655
673,-1.015,-0.645
674,-1.005,-0.640
675,-0.995,-0.635
676,-1.005,-0.650
677,-1.005,-0.665
678,-1.015,-0.675
679,-1.025,-0.670
680,-1.040,-0.675
681,-1.040,-0.675
682,-1.040,-0.680
683,-1.040,-0.670
684,-1.040,-0.655
685,-1.035,-0.650
686,-1.035,-0.635
687,-1.015,-0.645
688,-1.020,-0.660
689,-1.025,-0.650
690,-1.045,-0.665
691,-1.055,-0.660
692,-1.060,-0.675
693,-1.070,-0.680
694,-1.065,-0.670
695,-1.055,-0.665
696,-1.050,-0.665
697,-1.040,-0.655
698,-1.040,-0.645
699,-1.045,-0.640
700,-1.045,-0.655
701,-1.050,-0.655
702,-1.070,-0.660
703,-1.075,-0.670
704,-1.080,-0.685
705,-1.090,-0.690
706,-1.095,-0.680
707,-1.095,-0.670
708,-1.085,-0.655
709,-1.080,-0.655
710,-1.085,-0.645
711,-1.065,-0.660
712,-1.080,-0.680
713,-1.085,-0.685
714,-1.110,-0.680
715,-1.110,-0.690
716,-1.125,-0.705
717,-1.135,-0.705
718,-1.130,-0.705
719,-1.140,-0.700
720,-1.140,-0.685
721,-1.130,-0.680
722,-1.135,-0.670
723,-1.120,-0.680
724,-1.120,-0.685
725,-1.125,-0.695
726,-1.125,-0.705
727,-1.135,-0.715
728,-1.140,-0.725
729,-1.140,-0.725
730,-1.135,-0.710
731,-1.130,-0.705
732,-1.120,-0.695
733,-1.115,-0.695
734,-1.110,-0.690
735,-1.090,-0.685
736,-1.105,-0.685
737,-1.095,-0.700
738,-1.095,-0.720
739,-1.080,-0.725
740,-1.065,-0.730
741,-1.065,-0.730
742,-1.035,-0.735
743,-1.015,-0.735
744,-0.985,-0.725
745,-0.965,-0.715
746,-0.940,-0.705
747,-0.920,-0.715
748,-0.905,-0.725
749,-0.880,-0.730
750,-0.875,-0.735
751,-0.860,-0.740
752,-0.850,-0.740
753,-0.840,-0.740
754,-0.825,-0.730
755,-0.810,-0.725
756,-0.795,-0.705
757,-0.785,-0.700
758,-0.765,-0.685
759,-0.775,-0.690
760,-0.770,-0.685
761,-0.780,-0.690
762,-0.765,-0.695
763,-0.780,-0.695
764,-0.780,-0.700
765,-0.790,-0.700
766,-0.800,-0.685
767,-0.785,-0.690
768,-0.785,-0.675
769,-0.795,-0.670
770,-0.790,-0.660
771,-0.785,-0.665
772,-0.795,-0.665
773,-0.795,-0.675
774,-0.810,-0.680
775,-0.815,-0.680
776,-0.840,-0.690
777,-0.845,-0.675
778,-0.840,-0.680
779,-0.845,-0.665
780,-0.845,-0.670
781,-0.835,-0.660
782,-0.840,-0.645
783,-0.830,-0.665
784,-0.835,-0.660
785,-0.845,-0.670
786,-0.850,-0.655
787,-0.855,-0.670
788,-0.875,-0.685
789,-0.875,-0.690
790,-0.875,-0.685
791,-0.860,-0.680
792,-0.875,-0.670
793,-0.850,-0.665
794,-0.860,-0.650
795,-0.860,-0.655
796,-0.870,-0.670
797,-0.875,-0.685
798,-0.885,-0.690
799,-0.890,-0.690
800,-0.895,-0.695
801,-0.905,-0.705
802,-0.895,-0.695
803,-0.890,-0.695
804,-0.880,-0.685
805,-0.865,-0.680
806,-0.870,-0.675
807,-0.865,-0.665
808,-0.865,-0.690
809,-0.865,-0.700
810,-0.875,-0.710
811,-0.880,-0.700
812,-0.895,-0.695
813,-0.895,-0.710
814,-0.885,-0.700
815,-0.890,-0.690
816,-0.880,-0.685
817,-0.870,-0.680
818,-0.875,-0.670
819,-0.870,-0.670
820,-0.870,-0.665
821,-0.855,-0.690
822,-0.855,-0.700
823,-0.855,-0.680
824,-0.860,-0.695
825,-0.850,-0.710
826,-0.845,-0.690
827,-0.830,-0.680
828,-0.815,-0.665
829,-0.800,-0.660
830,-0.780,-0.645
831,-0.770,-0.640
832,-0.775,-0.655
833,-0.765,-0.655
834,-0.770,-0.660
835,-0.780,-0.675
836,-0.790,-0.695
837,-0.790,-0.685
838,-0.780,-0.695
839,-0.770,-0.680
840,-0.755,-0.695
841,-0.750,-0.680
842,-0.745,-0.680
843,-0.735,-0.680
844,-0.765,-0.685
845,-0.790,-0.705
846,-0.815,-0.705
847,-0.830,-0.710
848,-0.840,-0.715
849,-0.845,-0.730
850,-0.830,-0.725
851,-0.840,-0.720
852,-0.840,-0.720
853,-0.845,-0.700
854,-0.870,-0.690
855,-0.885,-0.690
856,-0.895,-0.680
857,-0.905,-0.665
858,-0.920,-0.670
859,-0.925,-0.660
860,-0.950,-0.670
861,-0.960,-0.680
862,-0.945,-0.675
863,-0.955,-0.680
864,-0.945,-0.680
865,-0.935,-0.675
866,-0.915,-0.655
867,-0.915,-0.650
868,-0.920,-0.665
869,-0.925,-0.670
870,-0.930,-0.670
871,-0.935,-0.680
872,-0.955,-0.695
873,-0.950,-0.700
874,-0.945,-0.685
875,-0.935,-0.675
876,-0.935,-0.665
877,-0.915,-0.660
878,-0.905,-0.645
879,-0.900,-0.635
880,-0.900,-0.650
881,-0.910,-0.640
882,-0.905,-0.650
883,-0.900,-0.650
884,-0.875,-0.655
885,-0.840,-0.665
886,-0.760,-0.655
887,-0.670,-0.680
888,-0.555,-0.680
889,-0.415,-0.695
890,-0.285,-0.710
891,-0.180,-0.735
892,-0.115,-0.770
893,-0.120,-0.780
894,-0.200,-0.805
895,-0.320,-0.825
896,-0.475,-0.845
897,-0.615,-0.855
898,-0.765,-0.850
899,-0.930,-0.820
900,-1.090,-0.780
901,-1.190,-0.705
902,-1.225,-0.625
903,-1.220,-0.505
904,-1.205,-0.415
905,-1.175,-0.360
906,-1.165,-0.375
907,-1.140,-0.415
908,-1.145,-0.480
909,-1.125,-0.555
910,-1.115,-0.615
911,-1.085,-0.635
912,-1.065,-0.645
913,-1.035,-0.640
914,-1.015,-0.640
915,-1.015,-0.655
916,-1.010,-0.660
917,-1.010,-0.660
918,-1.015,-0.675
919,-1.025,-0.680
920,-1.040,-0.685
921,-1.040,-0.685
922,-1.050,-0.695
923,-1.045,-0.680
924,-1.020,-0.675
925,-1.010,-0.670
926,-1.015,-0.660
927,-1.000,-0.670
928,-1.005,-0.660
929,-1.010,-0.680
930,-1.020,-0.685
931,-1.025,-0.700
932,-1.030,-0.720
933,-1.040,-0.710
934,-1.040,-0.710
935,-1.030,-0.715
936,-1.030,-0.695
937,-1.030,-0.680
938,-1.030,-0.675
939,-1.030,-0.675
940,-1.035,-0.675
941,-1.050,-0.685
942,-1.045,-0.695
943,-1.065,-0.695
944,-1.065,-0.715
945,-1.070,-0.715
946,-1.065,-0.710
947,-1.065,-0.705
948,-1.060,-0.685
949,-1.070,-0.680
950,-1.065,-0.690
951,-1.045,-0.690
952,-1.055,-0.690
953,-1.060,-0.695
954,-1.075,-0.705
955,-1.085,-0.715
956,-1.090,-0.705
957,-1.100,-0.715
958,-1.095,-0.700
959,-1.115,-0.710
960,-1.105,-0.700
961,-1.095,-0.685
962,-1.095,-0.685
963,-1.095,-0.690
964,-1.100,-0.690
965,-1.100,-0.705
966,-1.110,-0.730
967,-1.110,-0.730
968,-1.120,-0.740
969,-1.130,-0.735
970,-1.135,-0.745
971,-1.135,-0.715
972,-1.145,-0.715
973,-1.140,-0.720
974,-1.135,-0.720
975,-1.130,-0.715
976,-1.125,-0.720
977,-1.130,-0.720
978,-1.145,-0.720
979,-1.145,-0.725
980,-1.150,-0.745
981,-1.145,-0.750
982,-1.150,-0.740
983,-1.140,-0.735
984,-1.120,-0.725
985,-1.115,-0.715
986,-1.110,-0.705
987,-1.090,-0.715
988,-1.085,-0.715
989,-1.090,-0.720
990,-1.080,-0.735
991,-1.080,-0.730
992,-1.080,-0.740
993,-1.070,-0.745
994,-1.075,-0.755
995,-1.055,-0.750
996,-1.030,-0.735
997,-0.995,-0.740
998,-0.985,-0.730
999,-0.925,-0.745
1000,-0.905,-0.750
1001,-0.885,-0.755
1002,-0.875,-0.755
1003,-0.870,-0.760
1004,-0.865,-0.750
1005,-0.835,-0.755
1006,-0.820,-0.745
1007,-0.820,-0.730
1008,-0.780,-0.730
1009,-0.770,-0.715
1010,-0.765,-0.705
1011,-0.775,-0.720
1012,-0.775,-0.715
1013,-0.775,-0.720
1014,-0.790,-0.730
1015,-0.795,-0.730
1016,-0.790,-0.735
1017,-0.790,-0.725
1018,-0.790,-0.710
1019,-0.795,-0.705
1020,-0.800,-0.690
1021,-0.790,-0.680
1022,-0.800,-0.690
1023,-0.795,-0.690
1024,-0.800,-0.695
1025,-0.810,-0.715
1026,-0.815,-0.700
1027,-0.820,-0.715
1028,-0.825,-0.720
1029,-0.830,-0.715
1030,-0.840,-0.705
1031,-0.855,-0.705
1032,-0.845,-0.705
1033,-0.845,-0.700
1034,-0.840,-0.715
1035,-0.830,-0.705
1036,-0.835,-0.700
1037,-0.840,-0.705
1038,-0.835,-0.715
1039,-0.840,-0.715
1040,-0.845,-0.720
1041,-0.860,-0.705
1042,-0.860,-0.690
1043,-0.870,-0.690
1044,-0.870,-0.675
1045,-0.860,-0.675
1046,-0.860,-0.665
1047,-0.860,-0.675
1048,-0.865,-0.685
1049,-0.875,-0.690
1050,-0.875,-0.710
1051,-0.885,-0.705
1052,-0.880,-0.720
1053,-0.880,-0.715
1054,-0.875,-0.700
1055,-0.870,-0.695
1056,-0.870,-0.690
1057,-0.865,-0.675
1058,-0.865,-0.690
1059,-0.865,-0.700
1060,-0.880,-0.705
1061,-0.885,-0.715
1062,-0.890,-0.705
1063,-0.895,-0.710
1064,-0.890,-0.730
1065,-0.890,-0.715
1066,-0.905,-0.710
1067,-0.890,-0.705
1068,-0.895,-0.690
1069,-0.875,-0.690
1070,-0.865,-0.685
1071,-0.865,-0.680
1072,-0.865,-0.680
1073,-0.870,-0.680
1074,-0.870,-0.690
1075,-0.885,-0.710
1076,-0.885,-0.710
1077,-0.890,-0.705
1078,-0.900,-0.700
1079,-0.870,-0.690
1080,-0.855,-0.675
1081,-0.835,-0.670
1082,-0.815,-0.655
1083,-0.815,-0.665
1084,-0.805,-0.665
1085,-0.810,-0.670
1086,-0.810,-0.670
1087,-0.815,-0.680
1088,-0.820,-0.695
1089,-0.830,-0.690
1090,-0.820,-0.690
1091,-0.815,-0.695
1092,-0.800,-0.680
1093,-0.785,-0.685
1094,-0.770,-0.685
1095,-0.765,-0.700
1096,-0.765,-0.710
1097,-0.780,-0.710
1098,-0.790,-0.725
1099,-0.815,-0.730
1100,-0.845,-0.735
1101,-0.875,-0.735
1102,-0.875,-0.720
1103,-0.865,-0.705
1104,-0.845,-0.715
1105,-0.845,-0.705
1106,-0.850,-0.715
1107,-0.860,-0.720
1108,-0.890,-0.730
1109,-0.910,-0.730
1110,-0.935,-0.730
1111,-0.950,-0.725
1112,-0.970,-0.710
1113,-0.970,-0.690
1114,-0.975,-0.660
1115,-0.975,-0.650
1116,-0.970,-0.650
1117,-0.960,-0.640
1118,-0.960,-0.660
1119,-0.970,-0.655
1120,-0.960,-0.660
1121,-0.975,-0.680
1122,-0.980,-0.675
1123,-0.975,-0.675
1124,-0.975,-0.700
1125,-0.975,-0.690
1126,-0.970,-0.680
1127,-0.970,-0.690
1128,-0.985,-0.670
1129,-0.970,-0.665
1130,-0.975,-0.670
1131,-0.960,-0.670
1132,-0.965,-0.675
1133,-0.965,-0.670
1134,-0.975,-0.690
1135,-0.985,-0.690
1136,-0.985,-0.690
1137,-0.975,-0.680
1138,-0.970,-0.680
1139,-0.965,-0.655
1140,-0.955,-0.640
1141,-0.915,-0.625
1142,-0.860,-0.635
1143,-0.800,-0.645
1144,-0.705,-0.660
1145,-0.600,-0.685
1146,-0.465,-0.720
1147,-0.350,-0.755
1148,-0.230,-0.775
1149,-0.185,-0.800
1150,-0.205,-0.795
1151,-0.300,-0.800
1152,-0.440,-0.785
1153,-0.585,-0.765
1154,-0.765,-0.715
1155,-0.985,-0.670
1156,-1.155,-0.590
1157,-1.250,-0.505
1158,-1.280,-0.385
1159,-1.255,-0.280
1160,-1.245,-0.210
1161,-1.230,-0.220
1162,-1.225,-0.295
1163,-1.205,-0.405
1164,-1.185,-0.510
1165,-1.155,-0.580
1166,-1.125,-0.635
1167,-1.095,-0.660
1168,-1.085,-0.670
1169,-1.075,-0.680
1170,-1.085,-0.685
1171,-1.095,-0.695
1172,-1.090,-0.705
1173,-1.105,-0.700
1174,-1.110,-0.695
1175,-1.105,-0.700
1176,-1.095,-0.690
1177,-1.100,-0.685
1178,-1.085,-0.695
1179,-1.090,-0.695
1180,-1.085,-0.690
1181,-1.095,-0.705
1182,-1.105,-0.705
1183,-1.105,-0.715
1184,-1.100,-0.715
1185,-1.125,-0.720
1186,-1.130,-0.720
1187,-1.120,-0.705
1188,-1.120,-0.700
1189,-1.115,-0.695
1190,-1.110,-0.705
1191,-1.125,-0.705
1192,-1.125,-0.705
1193,-1.125,-0.710
1194,-1.135,-0.705
1195,-1.145,-0.725
1196,-1.140,-0.730
1197,-1.155,-0.730
1198,-1.150,-0.715
1199,-1.135,-0.720
1200,-1.120,-0.715
1201,-1.115,-0.710
1202,-1.115,-0.700
1203,-1.125,-0.700
1204,-1.115,-0.710
1205,-1.135,-0.710
1206,-1.160,-0.710
1207,-1.165,-0.725
1208,-1.170,-0.735
1209,-1.165,-0.725
1210,-1.175,-0.720
1211,-1.175,-0.715
1212,-1.165,-0.710
1213,-1.165,-0.715
1214,-1.160,-0.710
1215,-1.150,-0.720
1216,-1.150,-0.730
1217,-1.170,-0.740
1218,-1.180,-0.740
1219,-1.195,-0.755
1220,-1.195,-0.765
1221,-1.220,-0.770
1222,-1.215,-0.760
1223,-1.220,-0.760
1224,-1.215,-0.740
1225,-1.215,-0.735
1226,-1.205,-0.730
1227,-1.220,-0.730
1228,-1.225,-0.735
1229,-1.230,-0.740
1230,-1.230,-0.745
1231,-1.235,-0.755
1232,-1.225,-0.745
1233,-1.225,-0.765
1234,-1.225,-0.750
1235,-1.210,-0.750
1236,-1.200,-0.740
1237,-1.210,-0.730
1238,-1.195,-0.740
1239,-1.190,-0.735
1240,-1.185,-0.750
1241,-1.200,-0.760
1242,-1.170,-0.765
1243,-1.175,-0.770
1244,-1.180,-0.790
1245,-1.165,-0.785
1246,-1.145,-0.765
1247,-1.125,-0.765
1248,-1.110,-0.755
1249,-1.070,-0.750
1250,-1.045,-0.755
1251,-1.035,-0.770
1252,-1.020,-0.775
1253,-1.000,-0.780
1254,-0.995,-0.790
1255,-0.980,-0.805
1256,-0.970,-0.790
1257,-0.960,-0.785
1258,-0.935,-0.780
1259,-0.915,-0.750
1260,-0.910,-0.745
1261,-0.890,-0.735
1262,-0.885,-0.725
1263,-0.870,-0.730
1264,-0.870,-0.725
1265,-0.875,-0.720
1266,-0.885,-0.735
1267,-0.890,-0.730
1268,-0.900,-0.735
1269,-0.910,-0.725
1270,-0.915,-0.710
1271,-0.920,-0.700
1272,-0.905,-0.700
1273,-0.885,-0.680
1274,-0.880,-0.675
1275,-0.890,-0.680
1276,-0.885,-0.680
1277,-0.900,-0.685
1278,-0.905,-0.700
1279,-0.915,-0.710
1280,-0.930,-0.710
1281,-0.945,-0.720
1282,-0.935,-0.700
1283,-0.935,-0.705
1284,-0.925,-0.700
1285,-0.915,-0.685
1286,-0.915,-0.685
1287,-0.930,-0.680
1288,-0.930,-0.680
1289,-0.940,-0.700
1290,-0.950,-0.710
1291,-0.960,-0.715
1292,-0.955,-0.700
1293,-0.960,-0.710
1294,-0.950,-0.710
1295,-0.950,-0.705
1296,-0.945,-0.685
1297,-0.940,-0.685
1298,-0.935,-0.685
1299,-0.950,-0.700
1300,-0.960,-0.700
1301,-0.950,-0.710
1302,-0.965,-0.700
1303,-0.965,-0.715
1304,-0.960,-0.715
1305,-0.970,-0.715
1306,-0.960,-0.715
1307,-0.950,-0.700
1308,-0.955,-0.700
1309,-0.945,-0.690
1310,-0.940,-0.700
1311,-0.945,-0.700
1312,-0.945,-0.690
1313,-0.960,-0.715
1314,-0.955,-0.715
1315,-0.955,-0.720
1316,-0.955,-0.710
1317,-0.950,-0.720
1318,-0.955,-0.715
1319,-0.930,-0.715
1320,-0.920,-0.705
1321,-0.920,-0.695
1322,-0.910,-0.690
1323,-0.905,-0.690
1324,-0.910,-0.695
1325,-0.900,-0.700
1326,-0.895,-0.700
1327,-0.885,-0.710
1328,-0.880,-0.695
1329,-0.885,-0.685
1330,-0.865,-0.670
1331,-0.865,-0.665
1332,-0.865,-0.645
1333,-0.865,-0.655
1334,-0.855,-0.665
1335,-0.850,-0.675
1336,-0.840,-0.680
1337,-0.825,-0.690
1338,-0.825,-0.695
1339,-0.810,-0.705
1340,-0.810,-0.715
1341,-0.825,-0.715
1342,-0.835,-0.705
1343,-0.830,-0.720
1344,-0.830,-0.725
1345,-0.835,-0.720
1346,-0.830,-0.725
1347,-0.835,-0.725
1348,-0.845,-0.725
1349,-0.860,-0.740
1350,-0.885,-0.735
1351,-0.885,-0.730
1352,-0.895,-0.740
1353,-0.910,-0.740
1354,-0.910,-0.710
1355,-0.920,-0.710
1356,-0.935,-0.690
1357,-0.930,-0.670
1358,-0.920,-0.670
1359,-0.935,-0.670
1360,-0.945,-0.675
1361,-0.955,-0.685
1362,-0.955,-0.695
1363,-0.980,-0.700
1364,-0.985,-0.705
1365,-0.985,-0.700
1366,-0.980,-0.700
1367,-0.965,-0.680
1368,-0.970,-0.670
1369,-0.955,-0.675
1370,-0.945,-0.670
1371,-0.950,-0.675
1372,-0.960,-0.670
1373,-0.965,-0.680
1374,-0.965,-0.695
1375,-0.975,-0.700
1376,-0.970,-0.700
1377,-0.970,-0.705
1378,-0.965,-0.685
1379,-0.950,-0.690
1380,-0.945,-0.685
1381,-0.945,-0.670
1382,-0.915,-0.660
1383,-0.915,-0.665
1384,-0.895,-0.675
1385,-0.840,-0.680
1386,-0.775,-0.690
1387,-0.700,-0.700
1388,-0.595,-0.720
1389,-0.475,-0.735
1390,-0.345,-0.760
1391,-0.220,-0.765
1392,-0.130,-0.785
1393,-0.095,-0.795
1394,-0.115,-0.795
1395,-0.215,-0.815
1396,-0.360,-0.830
1397,-0.500,-0.845
1398,-0.655,-0.825
1399,-0.815,-0.805
1400,-0.985,-0.765
1401,-1.140,-0.695
1402,-1.240,-0.625
1403,-1.255,-0.495
1404,-1.210,-0.365
1405,-1.170,-0.255
1406,-1.150,-0.210
1407,-1.160,-0.260
1408,-1.180,-0.355
1409,-1.180,-0.460
1410,-1.170,-0.575
1411,-1.140,-0.630
1412,-1.110,-0.675
1413,-1.085,-0.695
1414,-1.060,-0.685
1415,-1.045,-0.680
1416,-1.035,-0.680
1417,-1.040,-0.670
1418,-1.030,-0.675
1419,-1.040,-0.665
1420,-1.040,-0.675
1421,-1.045,-0.680
1422,-1.055,-0.685
1423,-1.060,-0.685
1424,-1.055,-0.700
1425,-1.060,-0.690
1426,-1.070,-0.680
1427,-1.065,-0.675
1428,-1.065,-0.675
1429,-1.060,-0.670
1430,-1.040,-0.675
1431,-1.045,-0.685
1432,-1.045,-0.680
1433,-1.060,-0.695
1434,-1.065,-0.700
1435,-1.060,-0.715
1436,-1.075,-0.700
1437,-1.090,-0.705
1438,-1.085,-0.705
1439,-1.090,-0.705
1440,-1.085,-0.700
1441,-1.080,-0.685
1442,-1.060,-0.680
1443,-1.070,-0.690
1444,-1.075,-0.695
1445,-1.080,-0.710
1446,-1.100,-0.725
1447,-1.100,-0.720
1448,-1.105,-0.725
1449,-1.105,-0.715
1450,-1.110,-0.725
1451,-1.100,-0.695
1452,-1.110,-0.695
1453,-1.105,-0.680
1454,-1.090,-0.695
1455,-1.105,-0.700
1456,-1.100,-0.700
1457,-1.110,-0.715
1458,-1.120,-0.715
1459,-1.125,-0.725
1460,-1.135,-0.725
1461,-1.145,-0.730
1462,-1.145,-0.725
1463,-1.135,-0.705
1464,-1.140,-0.710
1465,-1.130,-0.710
1466,-1.125,-0.705
1467,-1.135,-0.710
1468,-1.145,-0.720
1469,-1.150,-0.735
1470,-1.160,-0.725
1471,-1.165,-0.750
1472,-1.190,-0.765
1473,-1.175,-0.755
1474,-1.175,-0.745
1475,-1.165,-0.745
1476,-1.160,-0.735
1477,-1.155,-0.740
1478,-1.135,-0.730
1479,-1.140,-0.740
1480,-1.145,-0.740
1481,-1.160,-0.755
1482,-1.140,-0.760
1483,-1.145,-0.765
1484,-1.145,-0.770
1485,-1.150,-0.755
1486,-1.125,-0.755
1487,-1.115,-0.755
1488,-1.105,-0.750
1489,-1.085,-0.745
1490,-1.075,-0.740
1491,-1.055,-0.730
1492,-1.045,-0.750
1493,-1.040,-0.750
1494,-1.035,-0.760
1495,-1.010,-0.760
1496,-0.995,-0.765
1497,-0.990,-0.755
1498,-0.970,-0.770
1499,-0.950,-0.760
1500,-0.940,-0.750
1501,-0.895,-0.740
1502,-0.880,-0.735
1503,-0.855,-0.740
1504,-0.855,-0.735
1505,-0.840,-0.745
1506,-0.820,-0.745
1507,-0.830,-0.745
1508,-0.825,-0.745
1509,-0.820,-0.730
1510,-0.805,-0.720
1511,-0.795,-0.705
1512,-0.790,-0.690
1513,-0.785,-0.685
1514,-0.785,-0.670
1515,-0.780,-0.670
1516,-0.790,-0.665
1517,-0.805,-0.660
1518,-0.805,-0.675
1519,-0.815,-0.680
1520,-0.820,-0.675
1521,-0.845,-0.670
1522,-0.835,-0.680
1523,-0.820,-0.660
1524,-0.810,-0.645
1525,-0.815,-0.635
1526,-0.805,-0.640
1527,-0.805,-0.645
1528,-0.810,-0.650
1529,-0.815,-0.650
1530,-0.830,-0.680
1531,-0.845,-0.685
1532,-0.850,-0.675
1533,-0.860,-0.675
1534,-0.850,-0.660
1535,-0.855,-0.660
1536,-0.845,-0.655
1537,-0.835,-0.650
1538,-0.835,-0.650
1539,-0.830,-0.660
1540,-0.835,-0.655
1541,-0.845,-0.675
1542,-0.845,-0.675
1543,-0.855,-0.675
1544,-0.860,-0.695
1545,-0.860,-0.685
1546,-0.860,-0.680
1547,-0.855,-0.665
1548,-0.850,-0.655
1549,-0.850,-0.655
1550,-0.845,-0.635
1551,-0.840,-0.655
1552,-0.855,-0.650
1553,-0.855,-0.650
1554,-0.870,-0.670
1555,-0.865,-0.665
1556,-0.865,-0.680
1557,-0.865,-0.685
1558,-0.865,-0.680
1559,-0.865,-0.660
1560,-0.850,-0.655
1561,-0.845,-0.645
1562,-0.835,-0.635
1563,-0.845,-0.650
1564,-0.855,-0.645
1565,-0.845,-0.665
1566,-0.850,-0.670
1567,-0.850,-0.680
1568,-0.860,-0.680
1569,-0.855,-0.670
1570,-0.865,-0.675
1571,-0.855,-0.660
1572,-0.845,-0.660
1573,-0.835,-0.630
1574,-0.845,-0.660
1575,-0.835,-0.665
1576,-0.845,-0.650
1577,-0.840,-0.655
1578,-0.835,-0.670
1579,-0.830,-0.660
1580,-0.825,-0.665
1581,-0.815,-0.655
1582,-0.815,-0.635
1583,-0.790,-0.630
1584,-0.785,-0.615
1585,-0.760,-0.615
1586,-0.765,-0.605
1587,-0.765,-0.615
1588,-0.775,-0.620
1589,-0.775,-0.640
1590,-0.770,-0.645
1591,-0.775,-0.655
1592,-0.780,-0.675
1593,-0.765,-0.670
1594,-0.760,-0.670
1595,-0.755,-0.655
1596,-0.740,-0.655
1597,-0.745,-0.645
1598,-0.755,-0.650
1599,-0.780,-0.655
1600,-0.795,-0.655
1601,-0.825,-0.685
1602,-0.830,-0.690
1603,-0.840,-0.695
1604,-0.840,-0.705
1605,-0.840,-0.700
1606,-0.845,-0.710
1607,-0.865,-0.695
1608,-0.870,-0.685
1609,-0.875,-0.655
1610,-0.875,-0.660
1611,-0.890,-0.635
1612,-0.895,-0.640
1613,-0.905,-0.640
1614,-0.930,-0.630
1615,-0.930,-0.655
1616,-0.945,-0.655
1617,-0.940,-0.655
1618,-0.955,-0.645
1619,-0.950,-0.640
1620,-0.935,-0.630
1621,-0.945,-0.615
1622,-0.925,-0.620
1623,-0.920,-0.625
1624,-0.930,-0.625
1625,-0.940,-0.650
1626,-0.950,-0.655
1627,-0.960,-0.650
1628,-0.960,-0.665
1629,-0.965,-0.660
1630,-0.945,-0.655
1631,-0.945,-0.655
1632,-0.950,-0.640
1633,-0.930,-0.620
1634,-0.925,-0.615
1635,-0.910,-0.630
1636,-0.915,-0.620
1637,-0.915,-0.620
1638,-0.915,-0.645
1639,-0.900,-0.640
1640,-0.860,-0.640
1641,-0.805,-0.645
1642,-0.730,-0.640
1643,-0.635,-0.645
1644,-0.500,-0.645
1645,-0.365,-0.665
1646,-0.240,-0.675
1647,-0.130,-0.695
1648,-0.060,-0.710
1649,-0.070,-0.710
1650,-0.165,-0.745
1651,-0.315,-0.765
1652,-0.475,-0.775
1653,-0.655,-0.760
1654,-0.845,-0.740
1655,-1.010,-0.675
1656,-1.125,-0.605
1657,-1.175,-0.510
1658,-1.175,-0.405
1659,-1.140,-0.340
1660,-1.100,-0.325
1661,-1.070,-0.375
1662,-1.045,-0.445
1663,-1.035,-0.510
1664,-1.035,-0.585
1665,-1.045,-0.615
1666,-1.055,-0.640
1667,-1.065,-0.640
1668,-1.055,-0.635
1669,-1.055,-0.635
1670,-1.035,-0.635
1671,-1.030,-0.640
1672,-1.040,-0.630
1673,-1.035,-0.630
1674,-1.045,-0.655
1675,-1.045,-0.665
1676,-1.070,-0.665
1677,-1.060,-0.660
1678,-1.065,-0.655
1679,-1.075,-0.645
1680,-1.055,-0.640
1681,-1.045,-0.630
1682,-1.060,-0.625
1683,-1.065,-0.635
1684,-1.050,-0.650
1685,-1.055,-0.645
1686,-1.070,-0.655
1687,-1.090,-0.650
1688,-1.085,-0.660
1689,-1.085,-0.665
1690,-1.080,-0.655
1691,-1.085,-0.645
1692,-1.070,-0.640
1693,-1.065,-0.635
1694,-1.055,-0.635
1695,-1.070,-0.635
1696,-1.080,-0.640
1697,-1.085,-0.655
1698,-1.090,-0.650
1699,-1.100,-0.675
1700,-1.110,-0.675
1701,-1.105,-0.665
1702,-1.115,-0.665
1703,-1.115,-0.655
1704,-1.105,-0.650
1705,-1.100,-0.650
1706,-1.105,-0.625
1707,-1.110,-0.645
1708,-1.120,-0.650
1709,-1.130,-0.655
1710,-1.135,-0.655
1711,-1.145,-0.665
1712,-1.160,-0.660
1713,-1.155,-0.660
1714,-1.150,-0.670
1715,-1.140,-0.655
1716,-1.140,-0.660
1717,-1.145,-0.645
1718,-1.140,-0.640
1719,-1.145,-0.660
1720,-1.150,-0.665
1721,-1.165,-0.670
1722,-1.185,-0.670
1723,-1.190,-0.680
1724,-1.200,-0.690
1725,-1.200,-0.685
1726,-1.205,-0.675
1727,-1.205,-0.670
1728,-1.190,-0.670
1729,-1.185,-0.665
1730,-1.175,-0.675
1731,-1.180,-0.665
1732,-1.185,-0.670
1733,-1.190,-0.680
1734,-1.190,-0.690
1735,-1.185,-0.695
1736,-1.190,-0.710
1737,-1.190,-0.700
1738,-1.185,-0.695
1739,-1.170,-0.695
1740,-1.165,-0.680
1741,-1.150,-0.660
1742,-1.135,-0.660
1743,-1.130,-0.660
1744,-1.120,-0.670
1745,-1.110,-0.675
1746,-1.105,-0.680
1747,-1.100,-0.685
1748,-1.095,-0.690
1749,-1.080,-0.700
1750,-1.060,-0.695
1751,-1.030,-0.700
1752,-1.010,-0.690
1753,-0.985,-0.685
1754,-0.960,-0.690
1755,-0.945,-0.685
1756,-0.920,-0.685
1757,-0.900,-0.700
1758,-0.885,-0.710
1759,-0.880,-0.705
1760,-0.875,-0.715
1761,-0.865,-0.695
1762,-0.850,-0.710
1763,-0.835,-0.690
1764,-0.825,-0.685
1765,-0.795,-0.675
1766,-0.800,-0.665
1767,-0.795,-0.665
1768,-0.800,-0.670
1769,-0.805,-0.670
1770,-0.800,-0.670
1771,-0.810,-0.670
1772,-0.840,-0.670
1773,-0.825,-0.660
1774,-0.835,-0.640
1775,-0.830,-0.635
1776,-0.830,-0.620
1777,-0.825,-0.615
1778,-0.825,-0.610
1779,-0.835,-0.615
1780,-0.835,-0.615
1781,-0.835,-0.630
1782,-0.840,-0.635
1783,-0.855,-0.635
1784,-0.865,-0.655
1785,-0.865,-0.650
1786,-0.865,-0.650
1787,-0.865,-0.645
1788,-0.855,-0.635
1789,-0.855,-0.625
1790,-0.850,-0.615
1791,-0.855,-0.615
1792,-0.870,-0.630
1793,-0.870,-0.640
1794,-0.870,-0.645
1795,-0.875,-0.650
1796,-0.895,-0.655
1797,-0.895,-0.650
1798,-0.905,-0.655
1799,-0.905,-0.650
1800,-0.905,-0.635
1801,-0.895,-0.625
1802,-0.890,-0.630
1803,-0.885,-0.635
1804,-0.885,-0.625
1805,-0.890,-0.650
1806,-0.905,-0.635
1807,-0.915,-0.655
1808,-0.920,-0.655
1809,-0.915,-0.645
1810,-0.900,-0.640
1811,-0.895,-0.625
1812,-0.890,-0.615
1813,-0.885,-0.630
1814,-0.885,-0.625
1815,-0.880,-0.615
1816,-0.890,-0.630
1817,-0.885,-0.625
1818,-0.895,-0.635
1819,-0.890,-0.650
1820,-0.895,-0.650
1821,-0.890,-0.650
1822,-0.875,-0.630
1823,-0.865,-0.615
1824,-0.855,-0.630
1825,-0.845,-0.605
1826,-0.840,-0.600
1827,-0.830,-0.585
1828,-0.825,-0.600
1829,-0.840,-0.610
1830,-0.840,-0.600
1831,-0.850,-0.610
1832,-0.845,-0.630
1833,-0.835,-0.635
1834,-0.815,-0.625
1835,-0.805,-0.620
1836,-0.790,-0.620
1837,-0.775,-0.630
1838,-0.770,-0.610
1839,-0.765,-0.625
1840,-0.780,-0.630
1841,-0.795,-0.645
1842,-0.815,-0.655
1843,-0.835,-0.685
1844,-0.845,-0.675
1845,-0.850,-0.690
1846,-0.865,-0.685
1847,-0.865,-0.680
1848,-0.870,-0.675
1849,-0.875,-0.660
1850,-0.895,-0.655
1851,-0.905,-0.640
1852,-0.905,-0.640
1853,-0.910,-0.640
1854,-0.935,-0.625
1855,-0.955,-0.630
1856,-0.970,-0.635
1857,-0.975,-0.645
1858,-0.980,-0.630
1859,-0.970,-0.640
1860,-0.970,-0.630
1861,-0.960,-0.630
1862,-0.965,-0.620
1863,-0.965,-0.630
1864,-0.960,-0.620
1865,-0.965,-0.640
1866,-0.970,-0.630
1867,-0.985,-0.650
1868,-0.990,-0.665
1869,-0.990,-0.660
1870,-1.000,-0.650
1871,-0.990,-0.640
1872,-0.995,-0.625
1873,-0.985,-0.620
1874,-0.965,-0.615
1875,-0.955,-0.620
1876,-0.965,-0.615
1877,-0.960,-0.615
1878,-0.975,-0.635
1879,-0.980,-0.620
1880,-0.980,-0.635
1881,-0.980,-0.625
1882,-0.950,-0.625
1883,-0.915,-0.600
1884,-0.850,-0.600
1885,-0.775,-0.610
1886,-0.670,-0.620
1887,-0.540,-0.640
1888,-0.390,-0.670
1889,-0.260,-0.690
1890,-0.160,-0.720
1891,-0.120,-0.740
1892,-0.150,-0.730
1893,-0.255,-0.750
1894,-0.370,-0.755
1895,-0.505,-0.760
1896,-0.615,-0.755
1897,-0.755,-0.740
1898,-0.880,-0.715
1899,-1.025,-0.670
1900,-1.135,-0.625
1901,-1.195,-0.550
1902,-1.210,-0.455
1903,-1.185,-0.390
1904,-1.165,-0.345
1905,-1.125,-0.360
1906,-1.100,-0.395
1907,-1.080,-0.465
1908,-1.065,-0.515
1909,-1.070,-0.545
1910,-1.075,-0.570
1911,-1.080,-0.595
1912,-1.100,-0.610
1913,-1.095,-0.615
1914,-1.090,-0.645
1915,-1.090,-0.640
1916,-1.090,-0.645
1917,-1.090,-0.660
1918,-1.095,-0.655
1919,-1.095,-0.645
1920,-1.085,-0.625
1921,-1.090,-0.625
1922,-1.100,-0.620
1923,-1.095,-0.635
1924,-1.105,-0.640
1925,-1.100,-0.655
1926,-1.095,-0.670
1927,-1.105,-0.675
1928,-1.120,-0.680
1929,-1.115,-0.680
1930,-1.115,-0.670
1931,-1.110,-0.675
1932,-1.110,-0.660
1933,-1.110,-0.645
1934,-1.115,-0.655
1935,-1.105,-0.645
1936,-1.105,-0.645
1937,-1.110,-0.655
1938,-1.115,-0.665
1939,-1.120,-0.665
1940,-1.135,-0.670
1941,-1.140,-0.655
1942,-1.145,-0.660
1943,-1.140,-0.660
1944,-1.135,-0.640
1945,-1.130,-0.645
1946,-1.140,-0.625
1947,-1.130,-0.635
1948,-1.125,-0.635
1949,-1.125,-0.650
1950,-1.145,-0.655
1951,-1.160,-0.665
1952,-1.165,-0.665
1953,-1.170,-0.685
1954,-1.175,-0.665
1955,-1.165,-0.655
1956,-1.165,-0.650
1957,-1.170,-0.645
1958,-1.155,-0.640
1959,-1.165,-0.655
1960,-1.175,-0.660
1961,-1.180,-0.670
1962,-1.200,-0.675
1963,-1.210,-0.685
1964,-1.215,-0.695
1965,-1.235,-0.695
1966,-1.235,-0.685
1967,-1.230,-0.680
1968,-1.230,-0.670
1969,-1.225,-0.665
1970,-1.205,-0.660
1971,-1.225,-0.655
1972,-1.230,-0.665
1973,-1.240,-0.680
1974,-1.240,-0.670
1975,-1.250,-0.680
1976,-1.245,-0.680
1977,-1.255,-0.675
1978,-1.255,-0.680
1979,-1.250,-0.670
1980,-1.245,-0.675
1981,-1.240,-0.665
1982,-1.240,-0.645
1983,-1.230,-0.650
1984,-1.230,-0.665
1985,-1.255,-0.680
1986,-1.235,-0.685
1987,-1.235,-0.690
1988,-1.235,-0.690
1989,-1.235,-0.690
1990,-1.225,-0.685
1991,-1.205,-0.680
1992,-1.190,-0.680
1993,-1.180,-0.680
1994,-1.160,-0.670
1995,-1.145,-0.680
1996,-1.145,-0.690
1997,-1.130,-0.675
1998,-1.135,-0.690
1999,-1.125,-0.705
2000,-1.105,-0.695
2001,-1.090,-0.705
2002,-1.070,-0.705
2003,-1.040,-0.685
2004,-1.010,-0.685
2005,-0.980,-0.675
2006,-0.965,-0.660
2007,-0.955,-0.665
2008,-0.940,-0.670
2009,-0.930,-0.675
2010,-0.930,-0.690
2011,-0.930,-0.675
2012,-0.930,-0.690
2013,-0.930,-0.680
2014,-0.915,-0.665
2015,-0.910,-0.645
2016,-0.900,-0.655
2017,-0.905,-0.645
2018,-0.890,-0.625
2019,-0.890,-0.630
2020,-0.890,-0.635
2021,-0.905,-0.640
2022,-0.920,-0.640
2023,-0.925,-0.655
2024,-0.925,-0.655
2025,-0.945,-0.655
2026,-0.940,-0.655
2027,-0.940,-0.650
2028,-0.940,-0.630
2029,-0.950,-0.630
2030,-0.930,-0.625
2031,-0.920,-0.625
2032,-0.945,-0.635
2033,-0.935,-0.625
2034,-0.960,-0.640
2035,-0.970,-0.645
2036,-0.980,-0.655
2037,-0.985,-0.650
2038,-0.980,-0.640
2039,-0.970,-0.630
2040,-0.955,-0.625
2041,-0.955,-0.625
2042,-0.945,-0.605
2043,-0.965,-0.610
2044,-0.970,-0.625
2045,-0.980,-0.640
2046,-0.985,-0.645
2047,-0.995,-0.645
2048,-1.005,-0.655
2049,-1.015,-0.650
2050,-0.985,-0.645
2051,-0.985,-0.650
2052,-0.980,-0.640
2053,-0.980,-0.635
2054,-0.970,-0.625
2055,-0.980,-0.645
2056,-0.975,-0.645
2057,-0.980,-0.650
2058,-0.990,-0.655
2059,-0.985,-0.650
2060,-0.995,-0.660
2061,-0.995,-0.670
2062,-1.000,-0.660
2063,-1.000,-0.640
2064,-1.000,-0.640
2065,-1.000,-0.640
2066,-0.990,-0.635
2067,-0.980,-0.635
2068,-0.975,-0.640
2069,-0.980,-0.635
2070,-0.990,-0.650
2071,-0.985,-0.640
2072,-0.990,-0.650
2073,-0.985,-0.660
2074,-0.990,-0.645
2075,-0.975,-0.635
2076,-0.970,-0.625
2077,-0.965,-0.625
2078,-0.940,-0.615
2079,-0.930,-0.620
2080,-0.915,-0.615
2081,-0.925,-0.610
2082,-0.910,-0.620
2083,-0.905,-0.615
2084,-0.915,-0.625
2085,-0.925,-0.615
2086,-0.920,-0.610
2087,-0.915,-0.615
2088,-0.905,-0.600
2089,-0.915,-0.595
2090,-0.910,-0.600
2091,-0.900,-0.615
2092,-0.905,-0.625
2093,-0.905,-0.635
2094,-0.885,-0.660
2095,-0.880,-0.655
2096,-0.875,-0.660
2097,-0.880,-0.670
2098,-0.890,-0.670
2099,-0.905,-0.655
2100,-0.935,-0.660
2101,-0.945,-0.650
2102,-0.950,-0.650
2103,-0.945,-0.650
2104,-0.950,-0.680
2105,-0.945,-0.670
2106,-0.965,-0.675
2107,-0.980,-0.675
2108,-1.000,-0.670
2109,-1.025,-0.670
2110,-1.045,-0.640
2111,-1.050,-0.635
2112,-1.050,-0.610
2113,-1.045,-0.605
2114,-1.045,-0.605
2115,-1.035,-0.605
2116,-1.050,-0.625
2117,-1.045,-0.625
2118,-1.050,-0.635
2119,-1.060,-0.635
2120,-1.070,-0.640
2121,-1.070,-0.645
2122,-1.065,-0.655
2123,-1.065,-0.635
2124,-1.050,-0.640
2125,-1.045,-0.630
2126,-1.035,-0.625
2127,-1.030,-0.620
2128,-1.035,-0.630
2129,-1.040,-0.635
2130,-1.045,-0.630
2131,-1.055,-0.640
2132,-1.055,-0.635
2133,-1.050,-0.640
2134,-1.040,-0.625
2135,-1.040,-0.610
2136,-1.025,-0.590
2137,-1.000,-0.585
2138,-0.960,-0.580
2139,-0.915,-0.585
2140,-0.860,-0.600
2141,-0.765,-0.625
2142,-0.665,-0.645
2143,-0.565,-0.665
2144,-0.435,-0.690
2145,-0.330,-0.710
2146,-0.255,-0.710
2147,-0.240,-0.715
2148,-0.295,-0.715
2149,-0.395,-0.720
2150,-0.510,-0.720
2151,-0.625,-0.730
2152,-0.770,-0.720
2153,-0.910,-0.720
2154,-1.070,-0.680
2155,-1.195,-0.645
2156,-1.275,-0.570
2157,-1.285,-0.470
2158,-1.270,-0.370
2159,-1.230,-0.310
2160,-1.220,-0.285
2161,-1.200,-0.330
2162,-1.170,-0.380
2163,-1.165,-0.455
2164,-1.165,-0.525
2165,-1.165,-0.570
2166,-1.170,-0.625
2167,-1.160,-0.630
2168,-1.165,-0.635
2169,-1.160,-0.650
2170,-1.165,-0.630
2171,-1.160,-0.625
2172,-1.155,-0.620
2173,-1.160,-0.605
2174,-1.155,-0.615
2175,-1.145,-0.605
2176,-1.150,-0.620
2177,-1.165,-0.625
2178,-1.170,-0.640
2179,-1.170,-0.635
2180,-1.170,-0.650
2181,-1.185,-0.655
2182,-1.180,-0.650
2183,-1.185,-0.650
2184,-1.185,-0.640
2185,-1.185,-0.645
2186,-1.185,-0.630
2187,-1.180,-0.640
2188,-1.175,-0.650
2189,-1.175,-0.650
2190,-1.185,-0.655
2191,-1.190,-0.660
2192,-1.205,-0.655
2193,-1.210,-0.665
2194,-1.205,-0.660
2195,-1.200,-0.655
2196,-1.205,-0.650
2197,-1.200,-0.635
2198,-1.200,-0.630
2199,-1.195,-0.640
2200,-1.200,-0.630
2201,-1.200,-0.640
2202,-1.210,-0.650
2203,-1.225,-0.665
2204,-1.230,-0.665
2205,-1.225,-0.660
2206,-1.240,-0.670
2207,-1.230,-0.660
2208,-1.230,-0.640
2209,-1.225,-0.640
2210,-1.220,-0.635
2211,-1.210,-0.645
2212,-1.230,-0.645
2213,-1.240,-0.665
2214,-1.235,-0.665
2215,-1.265,-0.675
2216,-1.265,-0.670
2217,-1.265,-0.685
2218,-1.265,-0.685
2219,-1.260,-0.680
2220,-1.255,-0.670
2221,-1.260,-0.660
2222,-1.250,-0.665
2223,-1.250,-0.665
2224,-1.260,-0.660
2225,-1.260,-0.675
2226,-1.265,-0.680
2227,-1.265,-0.685
2228,-1.280,-0.690
2229,-1.270,-0.690
2230,-1.280,-0.670
2231,-1.265,-0.675
2232,-1.270,-0.670
2233,-1.270,-0.665
2234,-1.265,-0.650
2235,-1.250,-0.660
2236,-1.255,-0.660
2237,-1.240,-0.680
2238,-1.235,-0.685
2239,-1.245,-0.695
2240,-1.235,-0.690
2241,-1.235,-0.690
2242,-1.235,-0.700
2243,-1.215,-0.680
2244,-1.200,-0.680
2245,-1.180,-0.675
2246,-1.155,-0.665
2247,-1.135,-0.685
2248,-1.130,-0.685
2249,-1.105,-0.695
2250,-1.095,-0.705
2251,-1.080,-0.710
2252,-1.065,-0.715
2253,-1.040,-0.720
2254,-1.030,-0.715
2255,-1.000,-0.705
2256,-0.975,-0.705
2257,-0.950,-0.700
2258,-0.930,-0.670
2259,-0.915,-0.680
2260,-0.905,-0.680
2261,-0.915,-0.690
2262,-0.910,-0.690
2263,-0.910,-0.680
2264,-0.905,-0.680
2265,-0.925,-0.670
2266,-0.920,-0.665
2267,-0.910,-0.655
2268,-0.905,-0.655
2269,-0.900,-0.635
2270,-0.895,-0.630
2271,-0.905,-0.630
2272,-0.905,-0.640
2273,-0.915,-0.635
2274,-0.925,-0.645
2275,-0.925,-0.655
2276,-0.935,-0.655
2277,-0.945,-0.660
2278,-0.940,-0.655
2279,-0.950,-0.635
2280,-0.950,-0.635
2281,-0.940,-0.630
2282,-0.930,-0.615
2283,-0.930,-0.615
2284,-0.930,-0.630
2285,-0.945,-0.630
2286,-0.950,-0.650
2287,-0.950,-0.645
2288,-0.960,-0.645
2289,-0.970,-0.650
2290,-0.970,-0.650
2291,-0.965,-0.645
2292,-0.955,-0.620
2293,-0.955,-0.610
2294,-0.965,-0.615
2295,-0.960,-0.615
2296,-0.965,-0.625
2297,-0.955,-0.625
2298,-0.965,-0.630
2299,-0.970,-0.645
2300,-0.975,-0.645
2301,-0.985,-0.645
2302,-0.985,-0.645
2303,-0.980,-0.640
2304,-0.975,-0.635
2305,-0.970,-0.620
2306,-0.965,-0.610
2307,-0.955,-0.625
2308,-0.965,-0.630
2309,-0.965,-0.630
2310,-0.970,-0.640
2311,-0.990,-0.650
2312,-0.990,-0.660
2313,-0.985,-0.670
2314,-0.990,-0.660
2315,-0.990,-0.650
2316,-0.980,-0.640
2317,-0.975,-0.635
2318,-0.970,-0.635
2319,-0.965,-0.635
2320,-0.960,-0.630
2321,-0.960,-0.630
2322,-0.970,-0.640
2323,-0.960,-0.640
2324,-0.950,-0.635
2325,-0.960,-0.640
2326,-0.925,-0.635
2327,-0.905,-0.615
2328,-0.895,-0.615
2329,-0.875,-0.600
2330,-0.865,-0.595
2331,-0.850,-0.595
2332,-0.850,-0.595
2333,-0.875,-0.605
2334,-0.880,-0.615
2335,-0.885,-0.620
2336,-0.900,-0.630
2337,-0.890,-0.635
2338,-0.880,-0.645
2339,-0.865,-0.625
2340,-0.840,-0.635
2341,-0.835,-0.635
2342,-0.825,-0.625
2343,-0.830,-0.640
2344,-0.860,-0.650
2345,-0.875,-0.655
2346,-0.905,-0.680
2347,-0.915,-0.690
2348,-0.920,-0.700
2349,-0.930,-0.700
2350,-0.925,-0.700
2351,-0.930,-0.695
2352,-0.930,-0.680
2353,-0.930,-0.670
2354,-0.935,-0.645
2355,-0.940,-0.635
2356,-0.965,-0.625
2357,-0.975,-0.620
2358,-0.995,-0.615
2359,-1.000,-0.630
2360,-1.005,-0.625
2361,-1.015,-0.640
2362,-1.015,-0.645
2363,-1.015,-0.630
2364,-1.010,-0.615
2365,-1.005,-0.610
2366,-0.990,-0.600
2367,-0.980,-0.600
2368,-0.985,-0.605
2369,-0.980,-0.615
2370,-0.980,-0.620
2371,-0.995,-0.630
2372,-0.985,-0.635
2373,-0.990,-0.630
2374,-0.985,-0.625
2375,-0.985,-0.615
2376,-0.985,-0.610
2377,-0.985,-0.605
2378,-0.975,-0.605
2379,-0.975,-0.605
2380,-0.970,-0.615
2381,-0.970,-0.605
2382,-0.970,-0.610
2383,-0.980,-0.615
2384,-0.955,-0.610
2385,-0.920,-0.605
2386,-0.850,-0.615
2387,-0.750,-0.620
2388,-0.625,-0.630
2389,-0.480,-0.650
2390,-0.340,-0.670
2391,-0.220,-0.690
2392,-0.195,-0.690
2393,-0.215,-0.725
2394,-0.315,-0.735
2395,-0.460,-0.760
2396,-0.605,-0.765
2397,-0.775,-0.755
2398,-0.950,-0.725
2399,-1.100,-0.670
2400,-1.220,-0.600
2401,-1.250,-0.490
2402,-1.260,-0.385
2403,-1.230,-0.310
2404,-1.190,-0.290
2405,-1.145,-0.325
2406,-1.125,-0.395
2407,-1.110,-0.480
2408,-1.120,-0.540
2409,-1.135,-0.590
2410,-1.115,-0.605
2411,-1.100,-0.610
2412,-1.085,-0.600
2413,-1.065,-0.605
2414,-1.050,-0.600
2415,-1.050,-0.600
2416,-1.050,-0.600
2417,-1.055,-0.610
2418,-1.060,-0.605
2419,-1.075,-0.615
2420,-1.075,-0.630
2421,-1.090,-0.625
2422,-1.085,-0.620
2423,-1.080,-0.610
2424,-1.060,-0.610
2425,-1.060,-0.605
2426,-1.050,-0.595
2427,-1.055,-0.590
2428,-1.050,-0.595
2429,-1.055,-0.595
2430,-1.055,-0.610
2431,-1.070,-0.605
2432,-1.085,-0.625
2433,-1.080,-0.620
2434,-1.085,-0.625
2435,-1.070,-0.615
2436,-1.070,-0.610
2437,-1.055,-0.605
2438,-1.055,-0.590
2439,-1.050,-0.605
2440,-1.060,-0.610
2441,-1.060,-0.615
2442,-1.065,-0.630
2443,-1.085,-0.625
2444,-1.090,-0.630
2445,-1.090,-0.635
2446,-1.085,-0.630
2447,-1.085,-0.620
2448,-1.080,-0.620
2449,-1.090,-0.625
2450,-1.080,-0.605
2451,-1.070,-0.605
2452,-1.090,-0.595
2453,-1.095,-0.620
2454,-1.105,-0.610
2455,-1.115,-0.620
2456,-1.125,-0.615
2457,-1.125,-0.625
2458,-1.130,-0.640
2459,-1.120,-0.620
2460,-1.125,-0.615
2461,-1.115,-0.615
2462,-1.115,-0.605
2463,-1.115,-0.605
2464,-1.120,-0.620
2465,-1.120,-0.620
2466,-1.130,-0.625
2467,-1.130,-0.635
2468,-1.140,-0.640
2469,-1.150,-0.655
2470,-1.150,-0.650
2471,-1.145,-0.650
2472,-1.135,-0.640
2473,-1.140,-0.625
2474,-1.140,-0.635
2475,-1.130,-0.635
2476,-1.120,-0.640
2477,-1.130,-0.645
2478,-1.125,-0.660
2479,-1.130,-0.650
2480,-1.130,-0.670
2481,-1.135,-0.670
2482,-1.140,-0.660
2483,-1.130,-0.660
2484,-1.115,-0.640
2485,-1.115,-0.645
2486,-1.080,-0.645
2487,-1.075,-0.640
2488,-1.080,-0.645
2489,-1.070,-0.640
2490,-1.070,-0.655
2491,-1.045,-0.660
2492,-1.045,-0.655
2493,-1.035,-0.680
2494,-1.020,-0.660
2495,-0.995,-0.655
2496,-0.970,-0.650
2497,-0.950,-0.660
2498,-0.920,-0.660
2499,-0.895,-0.650
2500,-0.875,-0.660
2501,-0.865,-0.665
2502,-0.840,-0.675
2503,-0.855,-0.690
2504,-0.845,-0.685
2505,-0.835,-0.675
2506,-0.820,-0.675
2507,-0.810,-0.660
2508,-0.790,-0.645
2509,-0.780,-0.635
2510,-0.770,-0.635
2511,-0.770,-0.620
2512,-0.775,-0.635
2513,-0.790,-0.630
2514,-0.790,-0.625
2515,-0.805,-0.625
2516,-0.810,-0.630
2517,-0.805,-0.620
2518,-0.810,-0.610
2519,-0.810,-0.610
2520,-0.800,-0.585
2521,-0.805,-0.580
2522,-0.790,-0.585
2523,-0.785,-0.585
2524,-0.805,-0.580
2525,-0.815,-0.595
2526,-0.825,-0.600
2527,-0.830,-0.615
2528,-0.830,-0.625
2529,-0.840,-0.635
2530,-0.850,-0.630
2531,-0.840,-0.605
2532,-0.845,-0.610
2533,-0.845,-0.595
2534,-0.845,-0.575
2535,-0.835,-0.580
2536,-0.845,-0.585
2537,-0.845,-0.595
2538,-0.850,-0.615
2539,-0.860,-0.620
2540,-0.870,-0.615
2541,-0.870,-0.620
2542,-0.880,-0.620
2543,-0.870,-0.625
2544,-0.860,-0.620
2545,-0.865,-0.615
2546,-0.855,-0.605
2547,-0.855,-0.600
2548,-0.855,-0.610
2549,-0.865,-0.605
2550,-0.870,-0.610
2551,-0.880,-0.615
2552,-0.875,-0.635
2553,-0.885,-0.625
2554,-0.885,-0.630
2555,-0.870,-0.620
2556,-0.870,-0.615
2557,-0.865,-0.610
2558,-0.850,-0.610
2559,-0.835,-0.595
2560,-0.845,-0.610
2561,-0.845,-0.615
2562,-0.840,-0.620
2563,-0.835,-0.625
2564,-0.840,-0.625
2565,-0.830,-0.635
2566,-0.820,-0.625
2567,-0.820,-0.605
2568,-0.810,-0.600
2569,-0.800,-0.595
2570,-0.785,-0.570
2571,-0.785,-0.580
2572,-0.795,-0.590
2573,-0.790,-0.600
2574,-0.785,-0.605
2575,-0.785,-0.620
2576,-0.775,-0.630
2577,-0.765,-0.625
2578,-0.745,-0.635
2579,-0.740,-0.625
2580,-0.735,-0.615
2581,-0.750,-0.620
2582,-0.750,-0.620
2583,-0.765,-0.630
2584,-0.775,-0.630
2585,-0.785,-0.650
2586,-0.790,-0.650
2587,-0.810,-0.670
2588,-0.810,-0.660
2589,-0.820,-0.670
2590,-0.840,-0.660
2591,-0.850,-0.635
2592,-0.855,-0.625
2593,-0.865,-0.615
2594,-0.875,-0.605
2595,-0.880,-0.590
2596,-0.880,-0.600
2597,-0.900,-0.595
2598,-0.900,-0.625
2599,-0.915,-0.620
2600,-0.930,-0.630
2601,-0.925,-0.645
2602,-0.935,-0.625
2603,-0.930,-0.625
2604,-0.925,-0.625
2605,-0.925,-0.620
2606,-0.915,-0.605
2607,-0.915,-0.610
2608,-0.920,-0.610
2609,-0.910,-0.615
2610,-0.915,-0.620
2611,-0.930,-0.620
2612,-0.935,-0.625
2613,-0.945,-0.635
2614,-0.930,-0.630
2615,-0.930,-0.615
2616,-0.915,-0.610
2617,-0.895,-0.600
2618,-0.895,-0.585
2619,-0.870,-0.575
2620,-0.860,-0.590
2621,-0.850,-0.585
2622,-0.785,-0.605
2623,-0.730,-0.625
2624,-0.660,-0.645
2625,-0.555,-0.665
2626,-0.435,-0.670
2627,-0.325,-0.685
2628,-0.215,-0.690
2629,-0.150,-0.695
2630,-0.135,-0.700
2631,-0.165,-0.705
2632,-0.265,-0.720
2633,-0.390,-0.720
2634,-0.520,-0.730
2635,-0.630,-0.715
2636,-0.775,-0.725
2637,-0.930,-0.685
2638,-1.075,-0.620
2639,-1.165,-0.535
2640,-1.185,-0.420
2641,-1.155,-0.295
2642,-1.130,-0.195
2643,-1.105,-0.145
2644,-1.115,-0.185
2645,-1.125,-0.280
2646,-1.125,-0.390
2647,-1.115,-0.480
2648,-1.100,-0.550
2649,-1.070,-0.600
2650,-1.050,-0.625
2651,-1.025,-0.610
2652,-1.000,-0.615
2653,-0.985,-0.600
2654,-0.990,-0.595
2655,-0.990,-0.610
2656,-0.995,-0.615
2657,-1.000,-0.620
2658,-1.010,-0.620
2659,-1.025,-0.635
2660,-1.035,-0.635
2661,-1.030,-0.650
2662,-1.030,-0.640
2663,-1.040,-0.635
2664,-1.030,-0.625
2665,-1.020,-0.635
2666,-1.015,-0.620
2667,-1.015,-0.620
2668,-1.005,-0.640
2669,-1.010,-0.640
2670,-1.025,-0.650
2671,-1.030,-0.655
2672,-1.035,-0.660
2673,-1.025,-0.660
2674,-1.020,-0.640
2675,-1.025,-0.640
2676,-1.030,-0.635
2677,-1.035,-0.625
2678,-1.025,-0.610
2679,-1.015,-0.625
2680,-1.035,-0.625
2681,-1.035,-0.645
2682,-1.045,-0.650
2683,-1.050,-0.650
2684,-1.065,-0.660
2685,-1.070,-0.660
2686,-1.070,-0.650
2687,-1.065,-0.650
2688,-1.065,-0.650
2689,-1.060,-0.645
2690,-1.050,-0.635
2691,-1.045,-0.645
2692,-1.045,-0.645
2693,-1.055,-0.655
2694,-1.060,-0.665
2695,-1.055,-0.675
2696,-1.075,-0.670
2697,-1.085,-0.670
2698,-1.075,-0.670
2699,-1.060,-0.670
2700,-1.060,-0.670
2701,-1.065,-0.665
2702,-1.060,-0.665
2703,-1.050,-0.660
2704,-1.075,-0.675
2705,-1.070,-0.670
2706,-1.080,-0.670
2707,-1.085,-0.665
2708,-1.095,-0.670
2709,-1.095,-0.675
2710,-1.110,-0.685
2711,-1.115,-0.685
2712,-1.110,-0.680
2713,-1.110,-0.665
2714,-1.100,-0.665
2715,-1.075,-0.670
2716,-1.075,-0.665
2717,-1.080,-0.675
2718,-1.065,-0.685
2719,-1.080,-0.705
2720,-1.075,-0.715
2721,-1.070,-0.710
2722,-1.070,-0.710
2723,-1.065,-0.700
2724,-1.050,-0.690
2725,-1.045,-0.685
2726,-1.030,-0.670
2727,-1.015,-0.675
2728,-1.010,-0.670
2729,-1.030,-0.685
2730,-1.025,-0.690
2731,-1.015,-0.700
2732,-0.995,-0.715
2733,-0.985,-0.700
2734,-0.980,-0.705
2735,-0.950,-0.705
2736,-0.930,-0.700
2737,-0.905,-0.705
2738,-0.880,-0.690
2739,-0.840,-0.695
2740,-0.835,-0.690
2741,-0.830,-0.690
2742,-0.830,-0.700
2743,-0.830,-0.700
2744,-0.825,-0.705
2745,-0.815,-0.695
2746,-0.800,-0.685
2747,-0.780,-0.680
2748,-0.770,-0.670
2749,-0.755,-0.650
2750,-0.740,-0.660
2751,-0.730,-0.650
2752,-0.725,-0.645
2753,-0.730,-0.640
2754,-0.740,-0.640
2755,-0.755,-0.645
2756,-0.760,-0.645
2757,-0.775,-0.650
2758,-0.775,-0.640
2759,-0.780,-0.630
2760,-0.775,-0.620
2761,-0.775,-0.615
2762,-0.790,-0.610
2763,-0.785,-0.605
2764,-0.785,-0.610
2765,-0.795,-0.620
2766,-0.810,-0.615
2767,-0.805,-0.625
2768,-0.810,-0.640
2769,-0.810,-0.640
2770,-0.815,-0.635
2771,-0.825,-0.630
2772,-0.825,-0.620
2773,-0.825,-0.610
2774,-0.820,-0.600
2775,-0.820,-0.600
2776,-0.830,-0.600
2777,-0.820,-0.610
2778,-0.815,-0.625
2779,-0.810,-0.625
2780,-0.820,-0.640
2781,-0.830,-0.645
2782,-0.835,-0.640
2783,-0.840,-0.620
2784,-0.840,-0.620
2785,-0.835,-0.625
2786,-0.820,-0.610
2787,-0.820,-0.610
2788,-0.830,-0.605
2789,-0.830,-0.610
2790,-0.835,-0.625
2791,-0.845,-0.630
2792,-0.845,-0.640
2793,-0.850,-0.640
2794,-0.850,-0.640
2795,-0.855,-0.635
2796,-0.850,-0.635
2797,-0.840,-0.620
2798,-0.835,-0.620
2799,-0.825,-0.620
2800,-0.830,-0.625
2801,-0.840,-0.625
2802,-0.850,-0.630
2803,-0.865,-0.635
2804,-0.885,-0.635
2805,-0.865,-0.645
2806,-0.855,-0.640
2807,-0.855,-0.640
2808,-0.850,-0.620
2809,-0.840,-0.610
2810,-0.840,-0.610
2811,-0.825,-0.600
2812,-0.815,-0.595
2813,-0.805,-0.610
2814,-0.805,-0.610
2815,-0.795,-0.615
2816,-0.805,-0.615
2817,-0.805,-0.610
2818,-0.810,-0.595
2819,-0.825,-0.590
2820,-0.825,-0.585
2821,-0.820,-0.580
2822,-0.820,-0.590
2823,-0.785,-0.570
2824,-0.775,-0.590
2825,-0.765,-0.590
2826,-0.745,-0.595
2827,-0.755,-0.615
2828,-0.750,-0.630
2829,-0.770,-0.640
2830,-0.780,-0.645
2831,-0.780,-0.645
2832,-0.785,-0.645
2833,-0.780,-0.635
2834,-0.795,-0.630
2835,-0.795,-0.640
2836,-0.805,-0.650
2837,-0.820,-0.645
2838,-0.830,-0.655
2839,-0.840,-0.655
2840,-0.860,-0.630
2841,-0.880,-0.635
2842,-0.895,-0.630
2843,-0.905,-0.610
2844,-0.915,-0.620
2845,-0.905,-0.605
2846,-0.910,-0.605
2847,-0.915,-0.610
2848,-0.915,-0.620
2849,-0.930,-0.615
2850,-0.935,-0.620
2851,-0.925,-0.630
2852,-0.945,-0.630
2853,-0.945,-0.635
2854,-0.940,-0.620
2855,-0.945,-0.610
2856,-0.925,-0.605
2857,-0.920,-0.615
2858,-0.920,-0.600
2859,-0.905,-0.605
2860,-0.910,-0.610
2861,-0.915,-0.630
2862,-0.920,-0.625
2863,-0.915,-0.630
2864,-0.920,-0.640
2865,-0.915,-0.630
2866,-0.910,-0.625
2867,-0.905,-0.620
2868,-0.895,-0.605
2869,-0.890,-0.590
2870,-0.880,-0.595
2871,-0.845,-0.585
2872,-0.815,-0.585
2873,-0.765,-0.595
2874,-0.680,-0.605
2875,-0.575,-0.630
2876,-0.450,-0.650
2877,-0.310,-0.680
2878,-0.180,-0.690
2879,-0.085,-0.705
2880,-0.045,-0.720
2881,-0.065,-0.720
2882,-0.160,-0.735
2883,-0.285,-0.730
2884,-0.435,-0.735
2885,-0.585,-0.720
2886,-0.745,-0.705
2887,-0.925,-0.675
2888,-1.105,-0.630
2889,-1.235,-0.575
2890,-1.295,-0.460
2891,-1.270,-0.345
2892,-1.215,-0.240
2893,-1.160,-0.180
2894,-1.155,-0.185
2895,-1.150,-0.230
2896,-1.170,-0.340
2897,-1.150,-0.430
2898,-1.125,-0.520
2899,-1.100,-0.570
2900,-1.070,-0.605
2901,-1.040,-0.625
2902,-1.025,-0.635
2903,-1.025,-0.625
2904,-1.015,-0.620
2905,-1.015,-0.625
2906,-1.010,-0.600
2907,-1.005,-0.600
2908,-1.015,-0.590
2909,-1.015,-0.600
2910,-1.005,-0.630
2911,-1.015,-0.635
2912,-1.025,-0.635
2913,-1.025,-0.650
2914,-1.030,-0.640
2915,-1.035,-0.640
2916,-1.020,-0.620
2917,-1.010,-0.615
2918,-1.015,-0.615
2919,-1.010,-0.610
2920,-1.015,-0.620
2921,-1.005,-0.630
2922,-1.015,-0.635
2923,-1.025,-0.645
2924,-1.030,-0.660
2925,-1.030,-0.670
2926,-1.025,-0.660
2927,-1.035,-0.655
2928,-1.030,-0.645
2929,-1.025,-0.640
2930,-1.035,-0.630
2931,-1.025,-0.640
2932,-1.025,-0.640
2933,-1.030,-0.640
2934,-1.050,-0.645
2935,-1.045,-0.645
2936,-1.060,-0.665
2937,-1.070,-0.655
2938,-1.060,-0.655
2939,-1.065,-0.645
2940,-1.055,-0.635
2941,-1.060,-0.645
2942,-1.045,-0.635
2943,-1.025,-0.635
2944,-1.035,-0.640
2945,-1.035,-0.635
2946,-1.045,-0.645
2947,-1.050,-0.660
2948,-1.065,-0.660
2949,-1.075,-0.670
2950,-1.090,-0.665
2951,-1.095,-0.665
2952,-1.095,-0.655
2953,-1.085,-0.655
2954,-1.085,-0.650
2955,-1.065,-0.650
2956,-1.075,-0.655
2957,-1.080,-0.665
2958,-1.090,-0.665
2959,-1.090,-0.680
2960,-1.095,-0.695
2961,-1.095,-0.695
2962,-1.100,-0.690
2963,-1.090,-0.690
2964,-1.100,-0.690
2965,-1.070,-0.675
2966,-1.070,-0.675
2967,-1.070,-0.680
2968,-1.065,-0.665
2969,-1.065,-0.680
2970,-1.070,-0.675
2971,-1.075,-0.685
2972,-1.075,-0.695
2973,-1.070,-0.695
2974,-1.060,-0.695
2975,-1.050,-0.685
2976,-1.035,-0.685
2977,-1.015,-0.675
2978,-1.010,-0.670
2979,-0.985,-0.680
2980,-0.985,-0.675
2981,-0.965,-0.675
2982,-0.950,-0.705
2983,-0.950,-0.710
2984,-0.930,-0.710
2985,-0.900,-0.710
2986,-0.895,-0.700
2987,-0.865,-0.705
2988,-0.840,-0.685
2989,-0.815,-0.680
2990,-0.785,-0.675
2991,-0.760,-0.680
2992,-0.745,-0.660
2993,-0.755,-0.665
2994,-0.745,-0.670
2995,-0.735,-0.675
2996,-0.730,-0.675
2997,-0.720,-0.675
2998,-0.715,-0.665
2999,-0.710,-0.645
3000,-0.705,-0.625
3001,-0.695,-0.620
3002,-0.705,-0.600
3003,-0.700,-0.595
3004,-0.715,-0.615
3005,-0.705,-0.595
3006,-0.710,-0.610
3007,-0.715,-0.610
3008,-0.725,-0.620
3009,-0.720,-0.630
3010,-0.730,-0.620
3011,-0.740,-0.605
3012,-0.725,-0.585
3013,-0.725,-0.590
3014,-0.730,-0.585
3015,-0.710,-0.570
3016,-0.720,-0.595
3017,-0.720,-0.595
3018,-0.720,-0.595
3019,-0.730,-0.595
3020,-0.735,-0.605
3021,-0.745,-0.625
3022,-0.755,-0.620
3023,-0.750,-0.630
3024,-0.740,-0.610
3025,-0.740,-0.605
3026,-0.740,-0.595
3027,-0.740,-0.585
3028,-0.750,-0.600
3029,-0.735,-0.605
3030,-0.730,-0.615
3031,-0.750,-0.615
3032,-0.765,-0.630
3033,-0.760,-0.630
3034,-0.760,-0.625
3035,-0.760,-0.620
3036,-0.750,-0.620
3037,-0.750,-0.610
3038,-0.745,-0.610
3039,-0.735,-0.590
3040,-0.740,-0.610
3041,-0.730,-0.605
3042,-0.745,-0.625
3043,-0.740,-0.620
3044,-0.750,-0.635
3045,-0.745,-0.625
3046,-0.750,-0.620
3047,-0.755,-0.620
3048,-0.750,-0.600
3049,-0.735,-0.605
3050,-0.725,-0.605
3051,-0.720,-0.590
3052,-0.705,-0.590
3053,-0.720,-0.590
3054,-0.725,-0.610
3055,-0.735,-0.610
3056,-0.735,-0.625
3057,-0.740,-0.635
3058,-0.735,-0.620
3059,-0.715,-0.610
3060,-0.700,-0.615
3061,-0.680,-0.605
3062,-0.680,-0.585
3063,-0.670,-0.570
3064,-0.670,-0.570
3065,-0.665,-0.555
3066,-0.680,-0.575
3067,-0.690,-0.580
3068,-0.680,-0.590
3069,-0.685,-0.600
3070,-0.675,-0.600
3071,-0.655,-0.600
3072,-0.635,-0.600
3073,-0.615,-0.590
3074,-0.605,-0.590
3075,-0.595,-0.595
3076,-0.600,-0.605
3077,-0.605,-0.600
3078,-0.620,-0.605
3079,-0.635,-0.625
3080,-0.655,-0.655
3081,-0.675,-0.640
3082,-0.675,-0.640
3083,-0.695,-0.645
3084,-0.685,-0.635
3085,-0.680,-0.630
3086,-0.685,-0.615
3087,-0.685,-0.610
3088,-0.700,-0.610
3089,-0.720,-0.620
3090,-0.740,-0.610
3091,-0.755,-0.615
3092,-0.760,-0.620
3093,-0.775,-0.620
3094,-0.795,-0.610
3095,-0.790,-0.610
3096,-0.785,-0.610
3097,-0.775,-0.610
3098,-0.780,-0.605
3099,-0.770,-0.585
3100,-0.775,-0.590
3101,-0.775,-0.600
3102,-0.780,-0.590
3103,-0.790,-0.605
3104,-0.790,-0.610
3105,-0.795,-0.615
3106,-0.805,-0.620
3107,-0.800,-0.610
3108,-0.795,-0.585
3109,-0.775,-0.590
3110,-0.775,-0.580
3111,-0.760,-0.575
3112,-0.770,-0.590
3113,-0.770,-0.575
3114,-0.770,-0.580
3115,-0.775,-0.585
3116,-0.775,-0.600
3117,-0.790,-0.595
3118,-0.780,-0.595
3119,-0.775,-0.590
3120,-0.745,-0.570
3121,-0.675,-0.565
3122,-0.605,-0.570
3123,-0.505,-0.585
3124,-0.370,-0.605
3125,-0.225,-0.635
3126,-0.075,-0.660
3127,0.045,-0.685
3128,0.095,-0.710
3129,0.050,-0.725
3130,-0.070,-0.730
3131,-0.220,-0.715
3132,-0.395,-0.700
3133,-0.600,-0.675
3134,-0.800,-0.620
3135,-0.965,-0.550
3136,-1.060,-0.470
3137,-1.080,-0.370
3138,-1.060,-0.260
3139,-1.045,-0.205
3140,-1.025,-0.225
3141,-1.010,-0.295
3142,-1.000,-0.385
3143,-0.970,-0.465
3144,-0.940,-0.525
3145,-0.915,-0.540
3146,-0.900,-0.560
3147,-0.875,-0.565
3148,-0.860,-0.565
3149,-0.870,-0.585
3150,-0.870,-0.590
3151,-0.865,-0.590
3152,-0.860,-0.595
3153,-0.880,-0.610
3154,-0.875,-0.610
3155,-0.885,-0.595
3156,-0.885,-0.590
3157,-0.875,-0.585
3158,-0.860,-0.580
3159,-0.840,-0.595
3160,-0.850,-0.600
3161,-0.855,-0.595
3162,-0.855,-0.600
3163,-0.865,-0.605
3164,-0.885,-0.605
3165,-0.875,-0.610
3166,-0.885,-0.615
3167,-0.875,-0.605
3168,-0.870,-0.600
3169,-0.865,-0.590
3170,-0.860,-0.585
3171,-0.865,-0.585
3172,-0.870,-0.585
3173,-0.870,-0.585
3174,-0.870,-0.595
3175,-0.880,-0.605
3176,-0.885,-0.615
3177,-0.890,-0.605
3178,-0.885,-0.620
3179,-0.885,-0.615
3180,-0.895,-0.600
3181,-0.890,-0.600
3182,-0.890,-0.590
3183,-0.885,-0.585
3184,-0.880,-0.600
3185,-0.885,-0.605
3186,-0.890,-0.625
3187,-0.900,-0.630
3188,-0.905,-0.635
3189,-0.910,-0.640
3190,-0.920,-0.630
3191,-0.920,-0.630
3192,-0.920,-0.615
3193,-0.930,-0.610
3194,-0.915,-0.615
3195,-0.905,-0.605
3196,-0.905,-0.620
3197,-0.910,-0.615
3198,-0.905,-0.625
3199,-0.925,-0.625
3200,-0.940,-0.635
3201,-0.940,-0.635
3202,-0.950,-0.640
3203,-0.950,-0.635
3204,-0.945,-0.625
3205,-0.940,-0.625
3206,-0.940,-0.620
3207,-0.950,-0.620
3208,-0.940,-0.615
3209,-0.960,-0.615
3210,-0.960,-0.625
3211,-0.965,-0.640
3212,-0.975,-0.650
3213,-0.965,-0.660
3214,-0.975,-0.665
3215,-0.970,-0.645
3216,-0.965,-0.635
3217,-0.945,-0.645
3218,-0.935,-0.635
3219,-0.935,-0.640
3220,-0.925,-0.635
3221,-0.925,-0.645
3222,-0.925,-0.665
3223,-0.935,-0.660
3224,-0.935,-0.670
3225,-0.945,-0.675
3226,-0.940,-0.665
3227,-0.925,-0.655
3228,-0.910,-0.660
3229,-0.865,-0.655
3230,-0.850,-0.640
3231,-0.830,-0.620
3232,-0.815,-0.625
3233,-0.795,-0.630
3234,-0.775,-0.650
3235,-0.765,-0.655
3236,-0.740,-0.665
3237,-0.730,-0.670
3238,-0.705,-0.675
3239,-0.690,-0.660
3240,-0.660,-0.640
3241,-0.640,-0.645
3242,-0.610,-0.625
3243,-0.600,-0.615
3244,-0.590,-0.630
3245,-0.585,-0.615
3246,-0.575,-0.625
3247,-0.580,-0.630
3248,-0.570,-0.625
3249,-0.580,-0.640
3250,-0.585,-0.620
3251,-0.580,-0.625
3252,-0.575,-0.610
3253,-0.565,-0.585
3254,-0.560,-0.585
3255,-0.555,-0.570
3256,-0.560,-0.580
3257,-0.575,-0.570
3258,-0.585,-0.580
3259,-0.590,-0.585
3260,-0.590,-0.585
3261,-0.600,-0.585
3262,-0.620,-0.575
3263,-0.605,-0.570
3264,-0.600,-0.545
3265,-0.605,-0.555
3266,-0.595,-0.540
3267,-0.595,-0.540
3268,-0.595,-0.545
3269,-0.600,-0.540
3270,-0.600,-0.560
3271,-0.605,-0.565
3272,-0.615,-0.570
3273,-0.625,-0.570
3274,-0.620,-0.575
3275,-0.615,-0.565
3276,-0.610,-0.560
3277,-0.610,-0.560
3278,-0.620,-0.565
3279,-0.600,-0.550
3280,-0.605,-0.565
3281,-0.620,-0.560
3282,-0.625,-0.570
3283,-0.630,-0.585
3284,-0.650,-0.585
3285,-0.645,-0.590
3286,-0.660,-0.595
3287,-0.645,-0.585
3288,-0.645,-0.585
3289,-0.630,-0.580
3290,-0.630,-0.570
3291,-0.610,-0.575
3292,-0.620,-0.570
3293,-0.635,-0.565
3294,-0.635,-0.570
3295,-0.650,-0.580
3296,-0.645,-0.585
3297,-0.660,-0.595
3298,-0.650,-0.595
3299,-0.635,-0.590
3300,-0.640,-0.590
3301,-0.640,-0.585
3302,-0.630,-0.570
3303,-0.640,-0.565
3304,-0.625,-0.580
3305,-0.635,-0.570
3306,-0.635,-0.575
3307,-0.630,-0.585
3308,-0.640,-0.585
3309,-0.620,-0.595
3310,-0.630,-0.595
3311,-0.615,-0.580
3312,-0.600,-0.570
3313,-0.580,-0.555
3314,-0.560,-0.545
3315,-0.550,-0.540
3316,-0.540,-0.545
3317,-0.530,-0.535
3318,-0.540,-0.535
3319,-0.550,-0.550
3320,-0.550,-0.565
3321,-0.555,-0.570
3322,-0.555,-0.560
3323,-0.550,-0.565
3324,-0.540,-0.570
3325,-0.525,-0.575
3326,-0.520,-0.555
3327,-0.500,-0.555
3328,-0.495,-0.565
3329,-0.500,-0.560
3330,-0.510,-0.570
3331,-0.535,-0.590
3332,-0.555,-0.605
3333,-0.580,-0.615
3334,-0.590,-0.615
3335,-0.600,-0.615
3336,-0.595,-0.610
3337,-0.595,-0.600
3338,-0.595,-0.590
3339,-0.585,-0.595
3340,-0.615,-0.595
3341,-0.620,-0.590
3342,-0.625,-0.580
3343,-0.645,-0.580
3344,-0.665,-0.575
3345,-0.675,-0.575
3346,-0.700,-0.585
3347,-0.700,-0.570
3348,-0.695,-0.575
3349,-0.695,-0.570
3350,-0.690,-0.570
3351,-0.700,-0.565
3352,-0.695,-0.575
3353,-0.685,-0.555
3354,-0.695,-0.575
3355,-0.705,-0.575
3356,-0.710,-0.590
3357,-0.720,-0.600
3358,-0.720,-0.590
3359,-0.710,-0.580
3360,-0.705,-0.565
3361,-0.700,-0.560
3362,-0.690,-0.550
3363,-0.690,-0.535
3364,-0.685,-0.535
3365,-0.685,-0.545
3366,-0.695,-0.530
3367,-0.690,-0.540
3368,-0.675,-0.540
3369,-0.650,-0.550
3370,-0.600,-0.545
3371,-0.530,-0.565
3372,-0.425,-0.555
3373,-0.300,-0.570
3374,-0.175,-0.580
3375,-0.025,-0.585
3376,0.090,-0.615
3377,0.170,-0.620
3378,0.195,-0.630
3379,0.140,-0.650
3380,0.030,-0.660
3381,-0.120,-0.670
3382,-0.270,-0.675
3383,-0.415,-0.665
3384,-0.580,-0.635
3385,-0.730,-0.595
3386,-0.855,-0.535
3387,-0.905,-0.440
3388,-0.915,-0.345
3389,-0.910,-0.285
3390,-0.865,-0.260
3391,-0.840,-0.280
3392,-0.810,-0.335
3393,-0.790,-0.400
3394,-0.785,-0.470
3395,-0.790,-0.505
3396,-0.790,-0.525
3397,-0.795,-0.535
3398,-0.805,-0.540
3399,-0.795,-0.540
3400,-0.795,-0.545
3401,-0.790,-0.555
3402,-0.790,-0.565
3403,-0.790,-0.575
3404,-0.795,-0.580
3405,-0.810,-0.575
3406,-0.820,-0.585
3407,-0.840,-0.575
3408,-0.840,-0.565
3409,-0.820,-0.565
3410,-0.800,-0.565
3411,-0.800,-0.560
3412,-0.795,-0.560
3413,-0.805,-0.575
3414,-0.810,-0.575
3415,-0.820,-0.590
3416,-0.820,-0.590
3417,-0.830,-0.600
3418,-0.840,-0.600
3419,-0.840,-0.590
3420,-0.835,-0.590
3421,-0.825,-0.575
3422,-0.825,-0.575
3423,-0.820,-0.575
3424,-0.825,-0.565
3425,-0.835,-0.575
3426,-0.840,-0.580
3427,-0.850,-0.575
3428,-0.855,-0.595
3429,-0.865,-0.595
3430,-0.885,-0.590
3431,-0.865,-0.595
3432,-0.875,-0.590
3433,-0.875,-0.585
3434,-0.875,-0.570
3435,-0.880,-0.565
3436,-0.885,-0.585
3437,-0.895,-0.585
3438,-0.905,-0.595
3439,-0.905,-0.600
3440,-0.920,-0.610
3441,-0.920,-0.605
3442,-0.920,-0.605
3443,-0.930,-0.605
3444,-0.925,-0.595
3445,-0.930,-0.595
3446,-0.930,-0.585
3447,-0.920,-0.580
3448,-0.925,-0.590
3449,-0.920,-0.595
3450,-0.940,-0.595
3451,-0.955,-0.600
3452,-0.950,-0.605
3453,-0.965,-0.610
3454,-0.960,-0.595
3455,-0.955,-0.605
3456,-0.950,-0.605
3457,-0.960,-0.585
3458,-0.950,-0.585
3459,-0.950,-0.580
3460,-0.945,-0.580
3461,-0.955,-0.585
3462,-0.955,-0.600
3463,-0.965,-0.610
3464,-0.960,-0.605
3465,-0.965,-0.620
3466,-0.965,-0.620
3467,-0.950,-0.605
3468,-0.940,-0.595
3469,-0.925,-0.590
3470,-0.920,-0.585
3471,-0.910,-0.575
3472,-0.890,-0.590
3473,-0.885,-0.595
3474,-0.880,-0.610
3475,-0.870,-0.605
3476,-0.865,-0.615
3477,-0.860,-0.625
3478,-0.835,-0.640
3479,-0.810,-0.630
3480,-0.795,-0.620
3481,-0.770,-0.615
3482,-0.730,-0.610
3483,-0.695,-0.605
3484,-0.665,-0.610
3485,-0.645,-0.610
3486,-0.625,-0.610
3487,-0.610,-0.610
3488,-0.620,-0.615
3489,-0.610,-0.610
3490,-0.605,-0.610
3491,-0.595,-0.605
3492,-0.585,-0.590
3493,-0.565,-0.575
3494,-0.570,-0.570
3495,-0.550,-0.555
3496,-0.555,-0.555
3497,-0.560,-0.560
3498,-0.565,-0.560
3499,-0.570,-0.570
3500,-0.585,-0.575
3501,-0.590,-0.575
3502,-0.595,-0.585
3503,-0.600,-0.570
3504,-0.595,-0.560
3505,-0.590,-0.565
3506,-0.590,-0.570
3507,-0.580,-0.550
3508,-0.580,-0.550
3509,-0.590,-0.560
3510,-0.620,-0.560
3511,-0.610,-0.570
3512,-0.610,-0.565
3513,-0.625,-0.575
3514,-0.620,-0.570
3515,-0.620,-0.555
3516,-0.615,-0.555
3517,-0.620,-0.540
3518,-0.625,-0.545
3519,-0.625,-0.525
3520,-0.620,-0.535
3521,-0.615,-0.550
3522,-0.615,-0.555
3523,-0.625,-0.560
3524,-0.630,-0.570
3525,-0.640,-0.565
3526,-0.640,-0.565
3527,-0.655,-0.565
3528,-0.650,-0.555
3529,-0.640,-0.545
3530,-0.640,-0.550
3531,-0.640,-0.545
3532,-0.630,-0.545
3533,-0.635,-0.545
3534,-0.660,-0.545
3535,-0.660,-0.565
3536,-0.650,-0.565
3537,-0.655,-0.580
3538,-0.650,-0.580
3539,-0.650,-0.565
3540,-0.650,-0.575
3541,-0.635,-0.555
3542,-0.640,-0.550
3543,-0.640,-0.555
3544,-0.630,-0.545
3545,-0.620,-0.565
3546,-0.620,-0.580
3547,-0.635,-0.575
3548,-0.635,-0.575
3549,-0.655,-0.565
3550,-0.655,-0.580
3551,-0.645,-0.565
3552,-0.630,-0.560
3553,-0.615,-0.550
3554,-0.600,-0.540
3555,-0.585,-0.530
3556,-0.565,-0.525
3557,-0.570,-0.525
3558,-0.575,-0.515
3559,-0.555,-0.530
3560,-0.550,-0.530
3561,-0.560,-0.540
3562,-0.550,-0.530
3563,-0.555,-0.520
3564,-0.545,-0.525
3565,-0.545,-0.515
3566,-0.550,-0.520
3567,-0.535,-0.520
3568,-0.525,-0.530
3569,-0.510,-0.560
3570,-0.515,-0.570
3571,-0.530,-0.585
3572,-0.540,-0.600
3573,-0.550,-0.600
3574,-0.565,-0.605
3575,-0.590,-0.605
3576,-0.595,-0.605
3577,-0.615,-0.605
3578,-0.620,-0.580
3579,-0.610,-0.575
3580,-0.615,-0.585
3581,-0.635,-0.585
3582,-0.635,-0.595
3583,-0.645,-0.580
3584,-0.660,-0.580
3585,-0.675,-0.560
3586,-0.685,-0.560
3587,-0.690,-0.555
3588,-0.690,-0.540
3589,-0.695,-0.545
3590,-0.695,-0.525
3591,-0.685,-0.525
3592,-0.680,-0.535
3593,-0.700,-0.540
3594,-0.710,-0.540
3595,-0.720,-0.545
3596,-0.710,-0.560
3597,-0.725,-0.570
3598,-0.725,-0.560
3599,-0.720,-0.560
3600,-0.710,-0.550
3601,-0.700,-0.545
3602,-0.705,-0.545
3603,-0.690,-0.530
3604,-0.690,-0.530
3605,-0.685,-0.540
3606,-0.690,-0.540
3607,-0.710,-0.550
3608,-0.695,-0.535
3609,-0.710,-0.540
3610,-0.710,-0.550
3611,-0.700,-0.535
3612,-0.680,-0.520
3613,-0.655,-0.510
3614,-0.605,-0.505
3615,-0.550,-0.495
3616,-0.475,-0.515
3617,-0.400,-0.525
3618,-0.290,-0.550
3619,-0.165,-0.575
3620,-0.045,-0.590
3621,0.055,-0.605
3622,0.120,-0.620
3623,0.145,-0.620
3624,0.090,-0.610
3625,-0.010,-0.610
3626,-0.145,-0.620
3627,-0.270,-0.630
3628,-0.410,-0.615
3629,-0.570,-0.615
3630,-0.730,-0.570
3631,-0.870,-0.505
3632,-0.930,-0.425
3633,-0.940,-0.335
3634,-0.915,-0.275
3635,-0.875,-0.265
3636,-0.820,-0.300
3637,-0.775,-0.355
3638,-0.770,-0.415
3639,-0.765,-0.440
3640,-0.790,-0.490
3641,-0.815,-0.510
3642,-0.830,-0.530
3643,-0.830,-0.545
3644,-0.835,-0.560
3645,-0.840,-0.555
3646,-0.840,-0.565
3647,-0.820,-0.545
3648,-0.810,-0.540
3649,-0.815,-0.525
3650,-0.820,-0.525
3651,-0.815,-0.510
3652,-0.815,-0.515
3653,-0.815,-0.530
3654,-0.820,-0.540
3655,-0.825,-0.545
3656,-0.830,-0.555
3657,-0.835,-0.555
3658,-0.850,-0.555
3659,-0.845,-0.550
3660,-0.850,-0.550
3661,-0.840,-0.540
3662,-0.835,-0.530
3663,-0.830,-0.520
3664,-0.835,-0.520
3665,-0.845,-0.520
3666,-0.850,-0.540
3667,-0.850,-0.550
3668,-0.860,-0.560
3669,-0.870,-0.555
3670,-0.875,-0.565
3671,-0.880,-0.550
3672,-0.875,-0.550
3673,-0.870,-0.550
3674,-0.870,-0.535
3675,-0.860,-0.520
3676,-0.860,-0.530
3677,-0.875,-0.535
3678,-0.880,-0.535
3679,-0.880,-0.550
3680,-0.890,-0.560
3681,-0.900,-0.555
3682,-0.900,-0.560
3683,-0.900,-0.555
3684,-0.900,-0.535
3685,-0.895,-0.535
3686,-0.895,-0.535
3687,-0.900,-0.530
3688,-0.895,-0.525
3689,-0.905,-0.545
3690,-0.910,-0.550
3691,-0.920,-0.565
3692,-0.930,-0.565
3693,-0.935,-0.570
3694,-0.935,-0.570
3695,-0.935,-0.565
3696,-0.940,-0.565
3697,-0.940,-0.550
3698,-0.945,-0.545
3699,-0.945,-0.535
3700,-0.950,-0.545
3701,-0.960,-0.545
3702,-0.970,-0.560
3703,-0.980,-0.580
3704,-0.980,-0.580
3705,-0.985,-0.590
3706,-0.990,-0.595
3707,-0.990,-0.575
3708,-0.985,-0.575
3709,-0.965,-0.560
3710,-0.970,-0.550
3711,-0.970,-0.545
3712,-0.955,-0.560
3713,-0.955,-0.560
3714,-0.955,-0.565
3715,-0.955,-0.570
3716,-0.955,-0.585
3717,-0.950,-0.585
3718,-0.950,-0.575
3719,-0.940,-0.575
3720,-0.930,-0.570
3721,-0.915,-0.570
3722,-0.895,-0.560
3723,-0.880,-0.555
3724,-0.870,-0.560
3725,-0.845,-0.555
3726,-0.825,-0.575
3727,-0.810,-0.580
3728,-0.795,-0.590
3729,-0.790,-0.600
3730,-0.775,-0.605
3731,-0.745,-0.600
3732,-0.720,-0.595
3733,-0.695,-0.590
3734,-0.660,-0.580
3735,-0.645,-0.565
3736,-0.630,-0.570
3737,-0.610,-0.570
3738,-0.605,-0.580
3739,-0.605,-0.580
3740,-0.605,-0.590
3741,-0.605,-0.595
3742,-0.610,-0.580
3743,-0.605,-0.575
3744,-0.595,-0.555
3745,-0.590,-0.540
3746,-0.585,-0.540
3747,-0.580,-0.540
3748,-0.580,-0.525
3749,-0.580,-0.530
3750,-0.590,-0.540
3751,-0.600,-0.540
3752,-0.595,-0.550
3753,-0.620,-0.545
3754,-0.620,-0.555
3755,-0.620,-0.545
3756,-0.620,-0.545
3757,-0.615,-0.540
3758,-0.615,-0.540
3759,-0.610,-0.530
3760,-0.610,-0.530
3761,-0.610,-0.545
3762,-0.605,-0.540
3763,-0.625,-0.550
3764,-0.630,-0.555
3765,-0.635,-0.575
3766,-0.645,-0.565
3767,-0.650,-0.565
3768,-0.645,-0.555
3769,-0.650,-0.555
3770,-0.645,-0.535
3771,-0.645,-0.530
3772,-0.630,-0.535
3773,-0.640,-0.540
3774,-0.655,-0.540
3775,-0.650,-0.550
3776,-0.655,-0.560
3777,-0.665,-0.550
3778,-0.665,-0.555
3779,-0.665,-0.555
3780,-0.680,-0.550
3781,-0.680,-0.545
3782,-0.670,-0.535
3783,-0.660,-0.525
3784,-0.655,-0.525
3785,-0.670,-0.535
3786,-0.655,-0.535
3787,-0.660,-0.555
3788,-0.680,-0.560
3789,-0.685,-0.570
3790,-0.690,-0.580
3791,-0.685,-0.560
3792,-0.690,-0.560
3793,-0.680,-0.545
3794,-0.680,-0.535
3795,-0.675,-0.540
3796,-0.665,-0.535
3797,-0.665,-0.540
3798,-0.670,-0.550
3799,-0.680,-0.550
3800,-0.675,-0.570
3801,-0.680,-0.560
3802,-0.665,-0.570
3803,-0.665,-0.565
3804,-0.640,-0.550
3805,-0.625,-0.540
3806,-0.605,-0.520
3807,-0.595,-0.505
3808,-0.580,-0.500
3809,-0.585,-0.505
3810,-0.580,-0.505
3811,-0.570,-0.520
3812,-0.585,-0.520
3813,-0.590,-0.530
3814,-0.600,-0.530
3815,-0.605,-0.540
3816,-0.590,-0.535
3817,-0.575,-0.545
3818,-0.560,-0.540
3819,-0.555,-0.530
3820,-0.540,-0.540
3821,-0.545,-0.555
3822,-0.550,-0.570
3823,-0.575,-0.590
3824,-0.590,-0.585
3825,-0.620,-0.600
3826,-0.640,-0.600
3827,-0.655,-0.595
3828,-0.655,-0.595
3829,-0.645,-0.595
3830,-0.650,-0.580
3831,-0.650,-0.575
3832,-0.655,-0.575
3833,-0.655,-0.580
3834,-0.670,-0.570
3835,-0.705,-0.575
3836,-0.720,-0.565
3837,-0.730,-0.540
3838,-0.745,-0.555
3839,-0.750,-0.545
3840,-0.755,-0.545
3841,-0.750,-0.535
3842,-0.755,-0.520
3843,-0.735,-0.515
3844,-0.745,-0.525
3845,-0.750,-0.525
3846,-0.755,-0.540
3847,-0.755,-0.545
3848,-0.765,-0.560
3849,-0.755,-0.560
3850,-0.760,-0.550
3851,-0.765,-0.555
3852,-0.760,-0.550
3853,-0.745,-0.540
3854,-0.745,-0.515
3855,-0.735,-0.515
3856,-0.735,-0.525
3857,-0.735,-0.535
3858,-0.725,-0.535
3859,-0.740,-0.535
3860,-0.735,-0.535
3861,-0.740,-0.530
3862,-0.730,-0.530
3863,-0.665,-0.530
3864,-0.610,-0.525
3865,-0.520,-0.535
3866,-0.400,-0.550
3867,-0.265,-0.560
3868,-0.145,-0.580
3869,-0.020,-0.605
3870,0.055,-0.630
3871,0.060,-0.630
3872,-0.010,-0.640
3873,-0.125,-0.655
3874,-0.260,-0.665
3875,-0.385,-0.675
3876,-0.525,-0.675
3877,-0.675,-0.645
3878,-0.810,-0.590
3879,-0.910,-0.520
3880,-0.940,-0.430
3881,-0.950,-0.345
3882,-0.925,-0.275
3883,-0.900,-0.245
3884,-0.875,-0.285
3885,-0.855,-0.360
3886,-0.850,-0.420
3887,-0.850,-0.485
3888,-0.875,-0.505
3889,-0.870,-0.535
3890,-0.870,-0.550
3891,-0.865,-0.555
3892,-0.855,-0.560
3893,-0.850,-0.560
3894,-0.860,-0.565
3895,-0.865,-0.565
3896,-0.860,-0.585
3897,-0.865,-0.580
3898,-0.865,-0.595
3899,-0.880,-0.575
3900,-0.870,-0.585
3901,-0.860,-0.570
3902,-0.860,-0.560
3903,-0.865,-0.550
3904,-0.845,-0.555
3905,-0.845,-0.555
3906,-0.855,-0.560
3907,-0.865,-0.575
3908,-0.875,-0.575
3909,-0.885,-0.595
3910,-0.905,-0.580
3911,-0.895,-0.575
3912,-0.890,-0.565
3913,-0.880,-0.560
3914,-0.870,-0.560
3915,-0.880,-0.550
3916,-0.880,-0.555
3917,-0.880,-0.555
3918,-0.890,-0.560
3919,-0.915,-0.580
3920,-0.915,-0.580
3921,-0.930,-0.575
3922,-0.925,-0.595
3923,-0.930,-0.595
3924,-0.915,-0.605
3925,-0.910,-0.580
3926,-0.910,-0.570
3927,-0.915,-0.570
3928,-0.905,-0.570
3929,-0.920,-0.575
3930,-0.915,-0.570
3931,-0.940,-0.585
3932,-0.960,-0.590
3933,-0.945,-0.585
3934,-0.960,-0.585
3935,-0.960,-0.580
3936,-0.965,-0.575
3937,-0.965,-0.575
3938,-0.955,-0.570
3939,-0.955,-0.560
3940,-0.960,-0.560
3941,-0.955,-0.575
3942,-0.965,-0.570
3943,-0.985,-0.585
3944,-0.990,-0.595
3945,-1.005,-0.590
3946,-0.995,-0.605
3947,-1.000,-0.600
3948,-1.000,-0.585
3949,-1.000,-0.580
3950,-1.000,-0.580
3951,-0.985,-0.580
3952,-0.995,-0.580
3953,-0.990,-0.590
3954,-0.990,-0.590
3955,-1.010,-0.600
3956,-1.010,-0.610
3957,-1.015,-0.620
3958,-1.015,-0.615
3959,-1.005,-0.615
3960,-0.995,-0.605
3961,-0.995,-0.610
3962,-0.980,-0.600
3963,-0.975,-0.590
3964,-0.955,-0.585
3965,-0.950,-0.590
3966,-0.960,-0.590
3967,-0.970,-0.595
3968,-0.955,-0.600
3969,-0.960,-0.610
3970,-0.955,-0.610
3971,-0.940,-0.605
3972,-0.920,-0.590
3973,-0.900,-0.590
3974,-0.875,-0.595
3975,-0.865,-0.590
3976,-0.835,-0.590
3977,-0.810,-0.595
3978,-0.785,-0.600
3979,-0.765,-0.610
3980,-0.765,-0.615
3981,-0.745,-0.620
3982,-0.725,-0.625
3983,-0.720,-0.610
3984,-0.705,-0.615
3985,-0.700,-0.610
3986,-0.675,-0.600
3987,-0.660,-0.590
3988,-0.645,-0.590
3989,-0.635,-0.590
3990,-0.625,-0.585
3991,-0.630,-0.590
3992,-0.645,-0.600
3993,-0.630,-0.605
3994,-0.650,-0.605
3995,-0.630,-0.600
3996,-0.635,-0.585
3997,-0.635,-0.570
3998,-0.625,-0.570
3999,-0.625,-0.565
4000,-0.615,-0.555
4001,-0.635,-0.550
4002,-0.630,-0.560
4003,-0.650,-0.555
4004,-0.660,-0.570
4005,-0.675,-0.575
4006,-0.670,-0.575
4007,-0.685,-0.570
4008,-0.680,-0.555
4009,-0.685,-0.550
4010,-0.685,-0.550
4011,-0.675,-0.535
4012,-0.670,-0.540
4013,-0.670,-0.545
4014,-0.670,-0.555
4015,-0.675,-0.565
4016,-0.685,-0.580
4017,-0.700,-0.575
4018,-0.705,-0.575
4019,-0.705,-0.575
4020,-0.700,-0.575
4021,-0.695,-0.570
4022,-0.690,-0.565
4023,-0.695,-0.565
4024,-0.685,-0.555
4025,-0.690,-0.575
4026,-0.685,-0.570
4027,-0.705,-0.580
4028,-0.715,-0.575
4029,-0.720,-0.595
4030,-0.720,-0.595
4031,-0.715,-0.585
4032,-0.720,-0.575
4033,-0.720,-0.560
4034,-0.710,-0.555
4035,-0.710,-0.550
4036,-0.700,-0.545
4037,-0.710,-0.555
4038,-0.715,-0.570
4039,-0.710,-0.560
4040,-0.720,-0.570
4041,-0.725,-0.570
4042,-0.730,-0.585
4043,-0.735,-0.580
4044,-0.730,-0.570
4045,-0.720,-0.565
4046,-0.710,-0.555
4047,-0.700,-0.560
4048,-0.695,-0.560
4049,-0.700,-0.565
4050,-0.700,-0.570
4051,-0.680,-0.565
4052,-0.685,-0.570
4053,-0.675,-0.585
4054,-0.670,-0.580
4055,-0.665,-0.570
4056,-0.645,-0.550
4057,-0.630,-0.545
4058,-0.620,-0.540
4059,-0.615,-0.530
4060,-0.600,-0.535
4061,-0.625,-0.535
4062,-0.625,-0.535
4063,-0.630,-0.540
4064,-0.635,-0.555
4065,-0.645,-0.565
4066,-0.635,-0.575
4067,-0.635,-0.580
4068,-0.620,-0.585
4069,-0.600,-0.590
4070,-0.600,-0.590
4071,-0.605,-0.580
4072,-0.615,-0.570
4073,-0.645,-0.575
4074,-0.680,-0.585
4075,-0.710,-0.590
4076,-0.700,-0.595
4077,-0.705,-0.615
4078,-0.710,-0.625
4079,-0.715,-0.615
4080,-0.725,-0.595
4081,-0.730,-0.590
4082,-0.730,-0.575
4083,-0.760,-0.555
4084,-0.750,-0.535
4085,-0.775,-0.530
4086,-0.765,-0.545
4087,-0.775,-0.555
4088,-0.795,-0.570
4089,-0.795,-0.580
4090,-0.815,-0.570
4091,-0.805,-0.575
4092,-0.805,-0.565
4093,-0.800,-0.570
4094,-0.795,-0.560
4095,-0.790,-0.545
4096,-0.785,-0.555
4097,-0.795,-0.550
4098,-0.785,-0.545
4099,-0.805,-0.565
4100,-0.805,-0.545
4101,-0.795,-0.570
4102,-0.790,-0.570
4103,-0.800,-0.565
4104,-0.795,-0.565
4105,-0.790,-0.555
4106,-0.785,-0.535
4107,-0.790,-0.525
4108,-0.770,-0.515
4109,-0.775,-0.515
4110,-0.750,-0.515
4111,-0.720,-0.530
4112,-0.675,-0.545
4113,-0.605,-0.565
4114,-0.500,-0.575
4115,-0.390,-0.595
4116,-0.255,-0.610
4117,-0.135,-0.635
4118,-0.025,-0.640
4119,0.015,-0.645
4120,0.000,-0.650
4121,-0.095,-0.655
4122,-0.225,-0.675
4123,-0.360,-0.690
4124,-0.475,-0.705
4125,-0.590,-0.700
4126,-0.730,-0.685
4127,-0.860,-0.645
4128,-0.965,-0.590
4129,-1.025,-0.495
4130,-1.035,-0.410
4131,-1.010,-0.300
4132,-0.970,-0.240
4133,-0.945,-0.220
4134,-0.940,-0.265
4135,-0.940,-0.325
4136,-0.935,-0.420
4137,-0.940,-0.475
4138,-0.945,-0.515
4139,-0.940,-0.540
4140,-0.925,-0.545
4141,-0.910,-0.555
4142,-0.905,-0.540
4143,-0.895,-0.545
4144,-0.885,-0.545
4145,-0.890,-0.555
4146,-0.905,-0.545
4147,-0.900,-0.555
4148,-0.915,-0.565
4149,-0.930,-0.585
4150,-0.915,-0.585
4151,-0.920,-0.580
4152,-0.920,-0.580
4153,-0.925,-0.560
4154,-0.910,-0.560
4155,-0.910,-0.550
4156,-0.900,-0.550
4157,-0.900,-0.555
4158,-0.910,-0.550
4159,-0.925,-0.565
4160,-0.925,-0.575
4161,-0.940,-0.585
4162,-0.940,-0.580
4163,-0.925,-0.575
4164,-0.940,-0.575
4165,-0.940,-0.565
4166,-0.950,-0.555
4167,-0.935,-0.540
4168,-0.930,-0.540
4169,-0.935,-0.550
4170,-0.935,-0.550
4171,-0.945,-0.555
4172,-0.955,-0.580
4173,-0.960,-0.590
4174,-0.960,-0.590
4175,-0.970,-0.580
4176,-0.975,-0.585
4177,-0.965,-0.575
4178,-0.960,-0.575
4179,-0.960,-0.575
4180,-0.950,-0.570
4181,-0.970,-0.575
4182,-0.965,-0.580
4183,-0.970,-0.595
4184,-0.980,-0.595
4185,-0.990,-0.615
4186,-0.990,-0.620
4187,-1.000,-0.605
4188,-1.005,-0.590
4189,-1.000,-0.595
4190,-0.995,-0.580
4191,-1.000,-0.580
4192,-0.995,-0.580
4193,-0.995,-0.590
4194,-1.005,-0.590
4195,-1.015,-0.605
4196,-1.030,-0.605
4197,-1.035,-0.605
4198,-1.040,-0.610
4199,-1.045,-0.615
4200,-1.035,-0.600
4201,-1.025,-0.590
4202,-1.015,-0.590
4203,-1.015,-0.580
4204,-1.005,-0.570
4205,-1.005,-0.575
4206,-1.000,-0.585
4207,-1.005,-0.595
4208,-1.005,-0.590
4209,-1.010,-0.600
4210,-1.010,-0.600
4211,-1.010,-0.610
4212,-0.990,-0.605
4213,-0.980,-0.590
4214,-0.965,-0.595
4215,-0.950,-0.595
4216,-0.935,-0.580
4217,-0.920,-0.590
4218,-0.915,-0.590
4219,-0.905,-0.610
4220,-0.900,-0.615
4221,-0.895,-0.620
4222,-0.870,-0.630
4223,-0.860,-0.625
4224,-0.830,-0.605
4225,-0.805,-0.610
4226,-0.775,-0.595
4227,-0.755,-0.585
4228,-0.720,-0.600
4229,-0.695,-0.610
4230,-0.700,-0.605
4231,-0.685,-0.620
4232,-0.690,-0.615
4233,-0.675,-0.620
4234,-0.675,-0.620
4235,-0.655,-0.615
4236,-0.655,-0.600
4237,-0.645,-0.575
4238,-0.635,-0.580
4239,-0.635,-0.565
4240,-0.625,-0.560
4241,-0.640,-0.560
4242,-0.645,-0.575
4243,-0.650,-0.575
4244,-0.660,-0.590
4245,-0.670,-0.595
4246,-0.670,-0.590
4247,-0.675,-0.590
4248,-0.685,-0.580
4249,-0.695,-0.565
4250,-0.680,-0.555
4251,-0.685,-0.560
4252,-0.685,-0.550
4253,-0.700,-0.570
4254,-0.690,-0.560
4255,-0.705,-0.575
4256,-0.710,-0.575
4257,-0.715,-0.580
4258,-0.720,-0.585
4259,-0.735,-0.570
4260,-0.730,-0.575
4261,-0.725,-0.555
4262,-0.720,-0.545
4263,-0.720,-0.530
4264,-0.715,-0.545
4265,-0.720,-0.535
4266,-0.730,-0.550
4267,-0.725,-0.565
4268,-0.730,-0.555
4269,-0.735,-0.570
4270,-0.745,-0.575
4271,-0.745,-0.575
4272,-0.750,-0.565
4273,-0.755,-0.565
4274,-0.750,-0.565
4275,-0.745,-0.545
4276,-0.745,-0.540
4277,-0.740,-0.555
4278,-0.745,-0.565
4279,-0.745,-0.580
4280,-0.765,-0.585
4281,-0.775,-0.590
4282,-0.765,-0.580
4283,-0.770,-0.580
4284,-0.760,-0.570
4285,-0.740,-0.570
4286,-0.740,-0.555
4287,-0.735,-0.550
4288,-0.735,-0.555
4289,-0.745,-0.555
4290,-0.755,-0.555
4291,-0.755,-0.565
4292,-0.750,-0.565
4293,-0.750,-0.580
4294,-0.755,-0.575
4295,-0.755,-0.585
4296,-0.755,-0.570
4297,-0.740,-0.565
4298,-0.725,-0.555
4299,-0.710,-0.550
4300,-0.685,-0.540
4301,-0.685,-0.545
4302,-0.675,-0.545
4303,-0.670,-0.545
4304,-0.655,-0.550
4305,-0.655,-0.555
4306,-0.665,-0.545
4307,-0.660,-0.550
4308,-0.665,-0.550
4309,-0.660,-0.545
4310,-0.660,-0.550
4311,-0.655,-0.545
4312,-0.640,-0.550
4313,-0.640,-0.555
4314,-0.645,-0.565
4315,-0.630,-0.580
4316,-0.625,-0.595
4317,-0.630,-0.600
4318,-0.635,-0.600
4319,-0.650,-0.615
4320,-0.675,-0.595
4321,-0.685,-0.585
4322,-0.690,-0.585
4323,-0.695,-0.585
4324,-0.695,-0.565
4325,-0.690,-0.590
4326,-0.715,-0.590
4327,-0.710,-0.605
4328,-0.730,-0.615
4329,-0.735,-0.615
4330,-0.755,-0.610
4331,-0.775,-0.585
4332,-0.790,-0.570
4333,-0.795,-0.560
4334,-0.785,-0.540
4335,-0.790,-0.530
4336,-0.785,-0.530
4337,-0.795,-0.525
4338,-0.805,-0.550
4339,-0.810,-0.560
4340,-0.820,-0.570
4341,-0.820,-0.575
4342,-0.820,-0.570
4343,-0.820,-0.575
4344,-0.815,-0.565
4345,-0.825,-0.555
4346,-0.805,-0.555
4347,-0.795,-0.555
4348,-0.790,-0.550
4349,-0.795,-0.555
4350,-0.800,-0.555
4351,-0.810,-0.555
4352,-0.810,-0.565
4353,-0.815,-0.565
4354,-0.810,-0.565
4355,-0.810,-0.550
4356,-0.820,-0.555
4357,-0.800,-0.550
4358,-0.795,-0.520
4359,-0.780,-0.515
4360,-0.750,-0.515
4361,-0.710,-0.530
4362,-0.665,-0.515
4363,-0.590,-0.545
4364,-0.485,-0.565
4365,-0.365,-0.590
4366,-0.230,-0.620
4367,-0.125,-0.640
4368,-0.060,-0.655
4369,-0.055,-0.660
4370,-0.110,-0.655
4371,-0.220,-0.665
4372,-0.360,-0.675
4373,-0.495,-0.685
4374,-0.640,-0.680
4375,-0.800,-0.670
4376,-0.965,-0.640
4377,-1.080,-0.580
4378,-1.115,-0.500
4379,-1.110,-0.380
4380,-1.090,-0.295
4381,-1.050,-0.250
4382,-1.025,-0.270
4383,-0.990,-0.295
4384,-0.975,-0.375
4385,-0.970,-0.440
4386,-0.965,-0.480
4387,-0.955,-0.510
4388,-0.950,-0.545
4389,-0.940,-0.555
4390,-0.930,-0.560
4391,-0.930,-0.565
4392,-0.930,-0.570
4393,-0.915,-0.545
4394,-0.915,-0.540
4395,-0.910,-0.535
4396,-0.900,-0.530
4397,-0.900,-0.540
4398,-0.915,-0.545
4399,-0.910,-0.565
4400,-0.915,-0.570
4401,-0.940,-0.570
4402,-0.940,-0.585
4403,-0.945,-0.570
4404,-0.940,-0.570
4405,-0.925,-0.565
4406,-0.920,-0.560
4407,-0.920,-0.560
4408,-0.915,-0.555
4409,-0.915,-0.560
4410,-0.925,-0.565
4411,-0.930,-0.575
4412,-0.940,-0.585
4413,-0.935,-0.595
4414,-0.935,-0.590
4415,-0.945,-0.585
4416,-0.955,-0.585
4417,-0.955,-0.580
4418,-0.945,-0.560
4419,-0.945,-0.555
4420,-0.930,-0.550
4421,-0.940,-0.555
4422,-0.945,-0.565
4423,-0.945,-0.570
4424,-0.955,-0.580
4425,-0.965,-0.590
4426,-0.970,-0.595
4427,-0.980,-0.580
4428,-0.985,-0.575
4429,-0.970,-0.570
4430,-0.965,-0.565
4431,-0.970,-0.565
4432,-0.960,-0.550
4433,-0.975,-0.565
4434,-0.970,-0.565
4435,-0.980,-0.580
4436,-0.990,-0.590
4437,-0.990,-0.600
4438,-1.000,-0.605
4439,-1.025,-0.605
4440,-1.020,-0.605
4441,-1.015,-0.600
4442,-1.000,-0.580
4443,-1.015,-0.585
4444,-1.000,-0.585
4445,-1.000,-0.580
4446,-1.005,-0.595
4447,-1.025,-0.610
4448,-1.030,-0.615
4449,-1.040,-0.615
4450,-1.040,-0.620
4451,-1.045,-0.615
4452,-1.040,-0.600
4453,-1.030,-0.610
4454,-1.015,-0.590
4455,-1.015,-0.585
4456,-1.000,-0.580
4457,-1.005,-0.600
4458,-1.000,-0.600
4459,-1.010,-0.610
4460,-1.015,-0.610
4461,-1.020,-0.620
4462,-1.020,-0.615
4463,-1.025,-0.615
4464,-1.015,-0.615
4465,-0.985,-0.605
4466,-0.965,-0.605
4467,-0.950,-0.595
4468,-0.930,-0.595
4469,-0.910,-0.605
4470,-0.920,-0.610
4471,-0.900,-0.620
4472,-0.880,-0.635
4473,-0.870,-0.640
4474,-0.855,-0.640
4475,-0.845,-0.650
4476,-0.805,-0.650
4477,-0.785,-0.635
4478,-0.765,-0.630
4479,-0.750,-0.625
4480,-0.725,-0.625
4481,-0.715,-0.620
4482,-0.705,-0.615
4483,-0.695,-0.620
4484,-0.700,-0.620
4485,-0.680,-0.625
4486,-0.680,-0.620
4487,-0.680,-0.630
4488,-0.675,-0.605
4489,-0.665,-0.610
4490,-0.660,-0.605
4491,-0.655,-0.585
4492,-0.650,-0.580
4493,-0.645,-0.575
4494,-0.665,-0.585
4495,-0.680,-0.600
4496,-0.685,-0.585
4497,-0.690,-0.600
4498,-0.685,-0.590
4499,-0.700,-0.590
4500,-0.700,-0.580
4501,-0.705,-0.575
4502,-0.695,-0.570
4503,-0.690,-0.570
4504,-0.690,-0.555
4505,-0.705,-0.565
4506,-0.720,-0.575
4507,-0.720,-0.590
4508,-0.720,-0.575
4509,-0.730,-0.585
4510,-0.745,-0.600
4511,-0.750,-0.590
4512,-0.750,-0.590
4513,-0.740,-0.575
4514,-0.740,-0.575
4515,-0.745,-0.580
4516,-0.735,-0.560
4517,-0.735,-0.570
4518,-0.740,-0.565
4519,-0.745,-0.575
4520,-0.755,-0.585
4521,-0.765,-0.590
4522,-0.770,-0.590
4523,-0.785,-0.605
4524,-0.785,-0.590
4525,-0.785,-0.590
4526,-0.770,-0.580
4527,-0.760,-0.560
4528,-0.755,-0.565
4529,-0.755,-0.570
4530,-0.760,-0.575
4531,-0.785,-0.590
4532,-0.775,-0.600
4533,-0.795,-0.605
4534,-0.795,-0.605
4535,-0.795,-0.600
4536,-0.805,-0.605
4537,-0.775,-0.585
4538,-0.775,-0.595
4539,-0.770,-0.580
4540,-0.760,-0.580
4541,-0.760,-0.595
4542,-0.765,-0.580
4543,-0.760,-0.590
4544,-0.775,-0.605
4545,-0.785,-0.610
4546,-0.790,-0.605
4547,-0.790,-0.610
4548,-0.790,-0.605
4549,-0.785,-0.595
4550,-0.775,-0.590
4551,-0.765,-0.565
4552,-0.765,-0.575
4553,-0.760,-0.570
4554,-0.755,-0.565
4555,-0.740,-0.575
4556,-0.745,-0.575
4557,-0.740,-0.590
4558,-0.725,-0.590
4559,-0.720,-0.590
4560,-0.705,-0.580
4561,-0.695,-0.560
4562,-0.690,-0.560
4563,-0.685,-0.555
4564,-0.680,-0.550
4565,-0.685,-0.565
4566,-0.685,-0.575
4567,-0.690,-0.585
4568,-0.700,-0.610
4569,-0.695,-0.620
4570,-0.690,-0.630
4571,-0.685,-0.625
4572,-0.675,-0.630
4573,-0.665,-0.620
4574,-0.675,-0.620
4575,-0.690,-0.620
4576,-0.710,-0.620
4577,-0.725,-0.615
4578,-0.735,-0.620
4579,-0.740,-0.625
4580,-0.755,-0.635
4581,-0.760,-0.640
4582,-0.765,-0.635
4583,-0.765,-0.640
4584,-0.770,-0.640
4585,-0.785,-0.620
4586,-0.790,-0.615
4587,-0.800,-0.595
4588,-0.805,-0.565
4589,-0.805,-0.550
4590,-0.825,-0.555
4591,-0.835,-0.565
4592,-0.835,-0.565
4593,-0.855,-0.580
4594,-0.855,-0.590
4595,-0.855,-0.585
4596,-0.855,-0.580
4597,-0.850,-0.565
4598,-0.845,-0.565
4599,-0.845,-0.565
4600,-0.835,-0.555
4601,-0.835,-0.560
4602,-0.840,-0.580
4603,-0.840,-0.570
4604,-0.855,-0.580
4605,-0.850,-0.580
4606,-0.865,-0.590
4607,-0.855,-0.590
4608,-0.855,-0.585
4609,-0.850,-0.585
4610,-0.840,-0.565
4611,-0.835,-0.560
4612,-0.825,-0.555
4613,-0.825,-0.560
4614,-0.820,-0.535
4615,-0.795,-0.540
4616,-0.775,-0.545
4617,-0.725,-0.555
4618,-0.660,-0.580
4619,-0.580,-0.580
4620,-0.470,-0.610
4621,-0.330,-0.605
4622,-0.235,-0.620
4623,-0.135,-0.620
4624,-0.080,-0.625
4625,-0.100,-0.645
4626,-0.175,-0.655
4627,-0.280,-0.690
4628,-0.405,-0.690
4629,-0.530,-0.695
4630,-0.655,-0.695
4631,-0.810,-0.675
4632,-0.955,-0.640
4633,-1.075,-0.565
4634,-1.125,-0.480
4635,-1.130,-0.370
4636,-1.110,-0.275
4637,-1.090,-0.230
4638,-1.080,-0.225
4639,-1.070,-0.290
4640,-1.075,-0.365
4641,-1.055,-0.455
4642,-1.055,-0.535
4643,-1.030,-0.565
4644,-0.990,-0.580
4645,-0.975,-0.570
4646,-0.955,-0.570
4647,-0.960,-0.550
4648,-0.955,-0.555
4649,-0.950,-0.570
4650,-0.955,-0.575
4651,-0.965,-0.580
4652,-0.970,-0.580
4653,-0.975,-0.590
4654,-0.985,-0.590
4655,-1.000,-0.590
4656,-0.980,-0.590
4657,-0.980,-0.585
4658,-0.990,-0.575
4659,-0.970,-0.570
4660,-0.955,-0.565
4661,-0.960,-0.565
4662,-0.965,-0.575
4663,-0.960,-0.585
4664,-0.980,-0.590
4665,-0.980,-0.600
4666,-0.985,-0.605
4667,-0.990,-0.605
4668,-0.990,-0.595
4669,-0.985,-0.600
4670,-0.980,-0.585
4671,-0.980,-0.590
4672,-0.970,-0.585
4673,-0.975,-0.585
4674,-0.970,-0.590
4675,-0.985,-0.595
4676,-0.990,-0.605
4677,-0.990,-0.610
4678,-1.000,-0.620
4679,-1.010,-0.625
4680,-1.015,-0.610
4681,-1.015,-0.600
4682,-1.010,-0.585
4683,-1.010,-0.595
4684,-1.005,-0.605
4685,-1.005,-0.600
4686,-1.025,-0.600
4687,-1.020,-0.615
4688,-1.035,-0.625
4689,-1.035,-0.630
4690,-1.040,-0.630
4691,-1.040,-0.635
4692,-1.045,-0.620
4693,-1.045,-0.625
4694,-1.055,-0.615
4695,-1.035,-0.605
4696,-1.020,-0.605
4697,-1.025,-0.605
4698,-1.025,-0.615
4699,-1.030,-0.615
4700,-1.035,-0.640
4701,-1.050,-0.640
4702,-1.055,-0.650
4703,-1.065,-0.655
4704,-1.060,-0.640
4705,-1.060,-0.650
4706,-1.050,-0.640
4707,-1.050,-0.630
4708,-1.055,-0.615
4709,-1.045,-0.630
4710,-1.045,-0.620
4711,-1.040,-0.630
4712,-1.040,-0.630
4713,-1.050,-0.635
4714,-1.040,-0.645
4715,-1.050,-0.640
4716,-1.050,-0.630
4717,-1.035,-0.625
4718,-1.025,-0.615
4719,-1.010,-0.615
4720,-0.990,-0.605
4721,-0.980,-0.615
4722,-0.975,-0.620
4723,-0.970,-0.630
4724,-0.955,-0.635
4725,-0.960,-0.650
4726,-0.945,-0.645
4727,-0.940,-0.650
4728,-0.920,-0.650
4729,-0.885,-0.640
4730,-0.865,-0.640
4731,-0.845,-0.630
4732,-0.815,-0.635
4733,-0.805,-0.645
4734,-0.790,-0.640
4735,-0.775,-0.655
4736,-0.765,-0.675
4737,-0.740,-0.675
4738,-0.740,-0.665
4739,-0.715,-0.665
4740,-0.705,-0.665
4741,-0.695,-0.645
4742,-0.690,-0.630
4743,-0.695,-0.615
4744,-0.675,-0.620
4745,-0.675,-0.610
4746,-0.680,-0.610
4747,-0.685,-0.630
4748,-0.690,-0.630
4749,-0.705,-0.625
4750,-0.720,-0.625
4751,-0.715,-0.610
4752,-0.725,-0.590
4753,-0.725,-0.585
4754,-0.720,-0.580
4755,-0.740,-0.575
4756,-0.725,-0.575
4757,-0.735,-0.565
4758,-0.745,-0.575
4759,-0.760,-0.585
4760,-0.755,-0.590
4761,-0.765,-0.605
4762,-0.775,-0.605
4763,-0.790,-0.615
4764,-0.790,-0.600
4765,-0.780,-0.590
4766,-0.765,-0.585
4767,-0.770,-0.580
4768,-0.765,-0.575
4769,-0.765,-0.580
4770,-0.770,-0.590
4771,-0.780,-0.590
4772,-0.785,-0.600
4773,-0.795,-0.600
4774,-0.800,-0.610
4775,-0.810,-0.605
4776,-0.815,-0.600
4777,-0.815,-0.590
4778,-0.795,-0.585
4779,-0.795,-0.585
4780,-0.800,-0.595
4781,-0.795,-0.595
4782,-0.805,-0.585
4783,-0.810,-0.610
4784,-0.800,-0.615
4785,-0.800,-0.630
4786,-0.810,-0.635
4787,-0.815,-0.630
4788,-0.815,-0.630
4789,-0.810,-0.610
4790,-0.795,-0.595
4791,-0.805,-0.580
4792,-0.780,-0.570
4793,-0.780,-0.575
4794,-0.775,-0.590
4795,-0.790,-0.590
4796,-0.795,-0.590
4797,-0.805,-0.615
4798,-0.820,-0.625
4799,-0.815,-0.610
4800,-0.820,-0.610
4801,-0.810,-0.600
4802,-0.795,-0.595
4803,-0.770,-0.580
4804,-0.765,-0.575
4805,-0.760,-0.580
4806,-0.740,-0.575
4807,-0.735,-0.575
4808,-0.745,-0.580
4809,-0.750,-0.565
4810,-0.745,-0.575
4811,-0.755,-0.580
4812,-0.750,-0.585
4813,-0.745,-0.580
4814,-0.725,-0.575
4815,-0.715,-0.580
4816,-0.685,-0.590
4817,-0.680,-0.595
4818,-0.685,-0.600
4819,-0.690,-0.630
4820,-0.695,-0.640
4821,-0.715,-0.635
4822,-0.730,-0.660
4823,-0.745,-0.655
4824,-0.765,-0.655
4825,-0.780,-0.630
4826,-0.780,-0.640
4827,-0.780,-0.620
4828,-0.785,-0.630
4829,-0.790,-0.630
4830,-0.790,-0.630
4831,-0.810,-0.625
4832,-0.835,-0.625
4833,-0.855,-0.625
4834,-0.860,-0.610
4835,-0.865,-0.610
4836,-0.880,-0.615
4837,-0.885,-0.590
4838,-0.880,-0.585
4839,-0.860,-0.580
4840,-0.860,-0.570
4841,-0.855,-0.575
4842,-0.865,-0.575
4843,-0.875,-0.590
4844,-0.890,-0.595
4845,-0.900,-0.605
4846,-0.900,-0.605
4847,-0.895,-0.605
4848,-0.885,-0.605
4849,-0.900,-0.575
4850,-0.895,-0.585
4851,-0.885,-0.580
4852,-0.865,-0.570
4853,-0.860,-0.585
4854,-0.860,-0.580
4855,-0.860,-0.585
4856,-0.870,-0.590
4857,-0.870,-0.600
4858,-0.870,-0.595
4859,-0.865,-0.595
4860,-0.855,-0.595
4861,-0.840,-0.580
4862,-0.810,-0.575
4863,-0.770,-0.565
4864,-0.710,-0.560
4865,-0.635,-0.570
4866,-0.540,-0.580
4867,-0.435,-0.610
4868,-0.320,-0.640
4869,-0.230,-0.665
4870,-0.150,-0.690
4871,-0.095,-0.715
4872,-0.100,-0.720
4873,-0.155,-0.705
4874,-0.260,-0.705
4875,-0.365,-0.705
4876,-0.495,-0.690
4877,-0.625,-0.680
4878,-0.780,-0.655
4879,-0.965,-0.610
4880,-1.080,-0.540
4881,-1.145,-0.435
4882,-1.145,-0.315
4883,-1.125,-0.205
4884,-1.110,-0.160
4885,-1.095,-0.195
4886,-1.085,-0.300
4887,-1.075,-0.400
4888,-1.040,-0.480
4889,-1.015,-0.560
4890,-0.985,-0.580
4891,-0.975,-0.610
4892,-0.975,-0.605
4893,-0.975,-0.610
4894,-1.000,-0.610
4895,-1.020,-0.605
4896,-1.020,-0.605
4897,-1.020,-0.610
4898,-0.995,-0.600
4899,-0.985,-0.585
4900,-0.970,-0.590
4901,-0.980,-0.590
4902,-0.965,-0.595
4903,-0.970,-0.590
4904,-1.005,-0.610
4905,-1.010,-0.615
4906,-1.010,-0.615
4907,-1.005,-0.620
4908,-1.005,-0.615
4909,-0.995,-0.590
4910,-0.990,-0.605
4911,-1.005,-0.600
4912,-0.995,-0.585
4913,-0.995,-0.585
4914,-1.000,-0.595
4915,-1.000,-0.605
4916,-1.010,-0.600
4917,-1.025,-0.625
4918,-1.020,-0.620
4919,-1.025,-0.625
4920,-1.015,-0.620
4921,-1.010,-0.610
4922,-1.015,-0.620
4923,-1.005,-0.605
4924,-1.010,-0.595
4925,-1.010,-0.605
4926,-1.020,-0.615
4927,-1.035,-0.620
4928,-1.035,-0.625
4929,-1.040,-0.630
4930,-1.040,-0.635
4931,-1.050,-0.635
4932,-1.045,-0.640
4933,-1.040,-0.635
4934,-1.035,-0.620
4935,-1.040,-0.615
4936,-1.025,-0.605
4937,-1.045,-0.610
4938,-1.050,-0.615
4939,-1.045,-0.615
4940,-1.060,-0.620
4941,-1.055,-0.640
4942,-1.060,-0.640
4943,-1.080,-0.635
4944,-1.070,-0.640
4945,-1.070,-0.625
4946,-1.075,-0.625
4947,-1.075,-0.615
4948,-1.060,-0.620
4949,-1.060,-0.615
4950,-1.060,-0.630
4951,-1.070,-0.640
4952,-1.075,-0.645
4953,-1.080,-0.665
4954,-1.080,-0.665
4955,-1.080,-0.660
4956,-1.065,-0.660
4957,-1.070,-0.665
4958,-1.060,-0.660
4959,-1.050,-0.650
4960,-1.035,-0.635
4961,-1.040,-0.640
4962,-1.050,-0.655
4963,-1.035,-0.645
4964,-1.025,-0.655
4965,-1.025,-0.665
4966,-1.020,-0.670
4967,-1.005,-0.685
4968,-0.985,-0.670
4969,-0.965,-0.675
4970,-0.945,-0.670
4971,-0.930,-0.665
4972,-0.920,-0.645
4973,-0.895,-0.655
4974,-0.895,-0.665
4975,-0.885,-0.665
4976,-0.860,-0.675
4977,-0.845,-0.680
4978,-0.835,-0.685
4979,-0.840,-0.685
4980,-0.815,-0.665
4981,-0.785,-0.660
4982,-0.760,-0.650
4983,-0.745,-0.640
4984,-0.740,-0.630
4985,-0.720,-0.625
4986,-0.720,-0.625
4987,-0.715,-0.625
4988,-0.730,-0.635
4989,-0.730,-0.640
4990,-0.740,-0.630
4991,-0.730,-0.635
4992,-0.740,-0.635
4993,-0.745,-0.615
4994,-0.745,-0.610
4995,-0.745,-0.595
4996,-0.750,-0.585
4997,-0.740,-0.580
4998,-0.740,-0.575
4999,-0.755,-0.595
5000,-0.765,-0.595
5001,-0.775,-0.600
5002,-0.800,-0.605
5003,-0.805,-0.595
5004,-0.805,-0.600
5005,-0.800,-0.585
5006,-0.790,-0.575
5007,-0.790,-0.575
5008,-0.790,-0.570
5009,-0.790,-0.565
5010,-0.785,-0.575
5011,-0.800,-0.580
5012,-0.800,-0.590
5013,-0.805,-0.610
5014,-0.820,-0.595
5015,-0.820,-0.595
5016,-0.815,-0.595
5017,-0.820,-0.580
5018,-0.820,-0.585
5019,-0.810,-0.575
5020,-0.805,-0.570
5021,-0.805,-0.585
5022,-0.810,-0.585
5023,-0.820,-0.605
5024,-0.825,-0.615
5025,-0.820,-0.625
5026,-0.825,-0.625
5027,-0.835,-0.615
5028,-0.840,-0.610
5029,-0.835,-0.605
5030,-0.845,-0.590
5031,-0.825,-0.580
5032,-0.815,-0.575
5033,-0.815,-0.580
5034,-0.825,-0.575
5035,-0.840,-0.615
5036,-0.840,-0.595
5037,-0.845,-0.605
5038,-0.840,-0.610
5039,-0.845,-0.620
5040,-0.845,-0.615
5041,-0.835,-0.615
5042,-0.840,-0.615
5043,-0.830,-0.595
5044,-0.825,-0.590
5045,-0.820,-0.585
5046,-0.825,-0.595
5047,-0.825,-0.590
5048,-0.830,-0.595
5049,-0.830,-0.605
5050,-0.825,-0.610
5051,-0.815,-0.620
5052,-0.815,-0.600
5053,-0.805,-0.590
5054,-0.785,-0.575
5055,-0.775,-0.560
5056,-0.760,-0.565
5057,-0.760,-0.570
5058,-0.760,-0.580
5059,-0.765,-0.580
5060,-0.770,-0.585
5061,-0.780,-0.585
5062,-0.780,-0.585
5063,-0.775,-0.590
5064,-0.775,-0.595
5065,-0.775,-0.585
5066,-0.735,-0.585
5067,-0.730,-0.575
5068,-0.720,-0.580
5069,-0.705,-0.585
5070,-0.715,-0.595
5071,-0.745,-0.600
5072,-0.785,-0.610
5073,-0.785,-0.620
5074,-0.800,-0.635
5075,-0.810,-0.635
5076,-0.815,-0.620
5077,-0.805,-0.615
5078,-0.795,-0.600
5079,-0.800,-0.600
5080,-0.800,-0.600
5081,-0.805,-0.600
5082,-0.815,-0.605
5083,-0.850,-0.620
5084,-0.850,-0.610
5085,-0.870,-0.605
5086,-0.885,-0.605
5087,-0.900,-0.590
5088,-0.900,-0.605
5089,-0.900,-0.585
5090,-0.885,-0.585
5091,-0.890,-0.565
5092,-0.890,-0.560
5093,-0.885,-0.570
5094,-0.895,-0.565
5095,-0.890,-0.585
5096,-0.895,-0.580
5097,-0.895,-0.590
5098,-0.915,-0.600
5099,-0.920,-0.590
5100,-0.920,-0.580
5101,-0.905,-0.575
5102,-0.905,-0.575
5103,-0.895,-0.570
5104,-0.890,-0.560
5105,-0.880,-0.570
5106,-0.885,-0.575
5107,-0.880,-0.570
5108,-0.885,-0.570
5109,-0.875,-0.575
5110,-0.875,-0.570
5111,-0.850,-0.585
5112,-0.805,-0.570
5113,-0.730,-0.585
5114,-0.640,-0.585
5115,-0.510,-0.585
5116,-0.380,-0.600
5117,-0.250,-0.635
5118,-0.145,-0.665
5119,-0.090,-0.680
5120,-0.080,-0.720
5121,-0.145,-0.735
5122,-0.265,-0.740
5123,-0.415,-0.740
5124,-0.545,-0.735
5125,-0.690,-0.700
5126,-0.855,-0.655
5127,-1.020,-0.580
5128,-1.140,-0.505
5129,-1.185,-0.415
5130,-1.170,-0.310
5131,-1.135,-0.210
5132,-1.115,-0.150
5133,-1.120,-0.175
5134,-1.140,-0.250
5135,-1.135,-0.340
5136,-1.130,-0.430
5137,-1.100,-0.505
5138,-1.055,-0.545
5139,-1.035,-0.565
5140,-0.995,-0.560
5141,-0.985,-0.560
5142,-0.975,-0.570
5143,-0.970,-0.585
5144,-0.985,-0.585
5145,-1.005,-0.600
5146,-1.010,-0.615
5147,-1.005,-0.615
5148,-1.000,-0.615
5149,-1.000,-0.595
5150,-0.995,-0.600
5151,-0.985,-0.590
5152,-0.990,-0.575
5153,-0.990,-0.590
5154,-0.995,-0.595
5155,-1.000,-0.590
5156,-1.015,-0.595
5157,-1.020,-0.600
5158,-1.020,-0.615
5159,-1.035,-0.605
5160,-1.030,-0.610
5161,-1.025,-0.600
5162,-1.015,-0.600
5163,-1.025,-0.600
5164,-1.015,-0.585
5165,-1.005,-0.580
5166,-1.010,-0.585
5167,-1.015,-0.605
5168,-1.020,-0.595
5169,-1.025,-0.605
5170,-1.035,-0.615
5171,-1.050,-0.630
5172,-1.045,-0.625
5173,-1.050,-0.605
5174,-1.055,-0.610
5175,-1.045,-0.595
5176,-1.040,-0.590
5177,-1.035,-0.605
5178,-1.040,-0.610
5179,-1.055,-0.610
5180,-1.065,-0.620
5181,-1.085,-0.630
5182,-1.075,-0.625
5183,-1.080,-0.635
5184,-1.080,-0.630
5185,-1.075,-0.630
5186,-1.070,-0.625
5187,-1.065,-0.615
5188,-1.060,-0.605
5189,-1.060,-0.625
5190,-1.065,-0.615
5191,-1.075,-0.620
5192,-1.075,-0.630
5193,-1.095,-0.635
5194,-1.110,-0.635
5195,-1.115,-0.645
5196,-1.100,-0.640
5197,-1.110,-0.645
5198,-1.095,-0.635
5199,-1.080,-0.635
5200,-1.080,-0.620
5201,-1.070,-0.635
5202,-1.070,-0.635
5203,-1.080,-0.655
5204,-1.095,-0.655
5205,-1.100,-0.670
5206,-1.085,-0.675
5207,-1.080,-0.670
5208,-1.080,-0.670
5209,-1.075,-0.665
5210,-1.065,-0.665
5211,-1.050,-0.655
5212,-1.040,-0.655
5213,-1.020,-0.645
5214,-1.005,-0.665
5215,-0.995,-0.660
5216,-0.990,-0.670
5217,-0.975,-0.665
5218,-0.960,-0.675
5219,-0.955,-0.675
5220,-0.945,-0.680
5221,-0.915,-0.655
5222,-0.900,-0.655
5223,-0.860,-0.660
5224,-0.840,-0.650
5225,-0.805,-0.655
5226,-0.810,-0.650
5227,-0.790,-0.655
5228,-0.800,-0.650
5229,-0.790,-0.650
5230,-0.790,-0.655
5231,-0.795,-0.660
5232,-0.770,-0.640
5233,-0.755,-0.635
5234,-0.745,-0.620
5235,-0.730,-0.610
5236,-0.725,-0.590
5237,-0.725,-0.585
5238,-0.735,-0.575
5239,-0.735,-0.600
5240,-0.745,-0.615
5241,-0.755,-0.625
5242,-0.770,-0.615
5243,-0.775,-0.605
5244,-0.770,-0.600
5245,-0.770,-0.580
5246,-0.765,-0.580
5247,-0.760,-0.575
5248,-0.755,-0.560
5249,-0.760,-0.560
5250,-0.765,-0.565
5251,-0.770,-0.560
5252,-0.770,-0.575
5253,-0.795,-0.565
5254,-0.810,-0.585
5255,-0.810,-0.585
5256,-0.805,-0.580
5257,-0.805,-0.575
5258,-0.795,-0.570
5259,-0.800,-0.550
5260,-0.785,-0.555
5261,-0.780,-0.555
5262,-0.775,-0.570
5263,-0.790,-0.575
5264,-0.795,-0.580
5265,-0.810,-0.585
5266,-0.810,-0.600
5267,-0.810,-0.595
5268,-0.815,-0.585
5269,-0.820,-0.575
5270,-0.800,-0.570
5271,-0.800,-0.570
5272,-0.800,-0.555
5273,-0.795,-0.575
5274,-0.800,-0.580
5275,-0.795,-0.580
5276,-0.805,-0.590
5277,-0.825,-0.605
5278,-0.835,-0.600
5279,-0.835,-0.600
5280,-0.820,-0.600
5281,-0.810,-0.605
5282,-0.800,-0.580
5283,-0.795,-0.580
5284,-0.785,-0.575
5285,-0.780,-0.565
5286,-0.785,-0.565
5287,-0.795,-0.575
5288,-0.800,-0.580
5289,-0.800,-0.565
5290,-0.805,-0.585
5291,-0.810,-0.580
5292,-0.790,-0.575
5293,-0.775,-0.580
5294,-0.775,-0.555
5295,-0.750,-0.545
5296,-0.755,-0.530
5297,-0.745,-0.535
5298,-0.745,-0.530
5299,-0.735,-0.525
5300,-0.750,-0.545
5301,-0.760,-0.555
5302,-0.770,-0.560
5303,-0.750,-0.560
5304,-0.745,-0.575
5305,-0.735,-0.555
5306,-0.710,-0.560
5307,-0.685,-0.550
5308,-0.670,-0.560
5309,-0.670,-0.565
5310,-0.685,-0.570
5311,-0.680,-0.585
5312,-0.705,-0.600
5313,-0.725,-0.610
5314,-0.740,-0.625
5315,-0.755,-0.630
5316,-0.750,-0.625
5317,-0.750,-0.610
5318,-0.750,-0.615
5319,-0.765,-0.595
5320,-0.760,-0.580
5321,-0.775,-0.560
5322,-0.795,-0.555
5323,-0.810,-0.570
5324,-0.825,-0.570
5325,-0.845,-0.570
5326,-0.855,-0.575
5327,-0.870,-0.580
5328,-0.870,-0.575
5329,-0.865,-0.570
5330,-0.865,-0.565
5331,-0.865,-0.555
5332,-0.855,-0.545
5333,-0.845,-0.550
5334,-0.860,-0.550
5335,-0.850,-0.555
5336,-0.860,-0.565
5337,-0.880,-0.580
5338,-0.885,-0.590
5339,-0.860,-0.600
5340,-0.870,-0.580
5341,-0.880,-0.580
5342,-0.875,-0.580
5343,-0.860,-0.565
5344,-0.855,-0.550
5345,-0.855,-0.550
5346,-0.845,-0.550
5347,-0.840,-0.560
5348,-0.840,-0.565
5349,-0.855,-0.575
5350,-0.850,-0.565
5351,-0.850,-0.585
5352,-0.825,-0.570
5353,-0.770,-0.555
5354,-0.700,-0.560
5355,-0.625,-0.565
5356,-0.535,-0.580
5357,-0.405,-0.590
5358,-0.265,-0.610
5359,-0.140,-0.635
5360,-0.065,-0.655
5361,-0.030,-0.670
5362,-0.050,-0.680
5363,-0.120,-0.670
5364,-0.240,-0.680
5365,-0.355,-0.675
5366,-0.470,-0.665
5367,-0.595,-0.660
5368,-0.710,-0.620
5369,-0.855,-0.605
5370,-0.985,-0.570
5371,-1.080,-0.520
5372,-1.110,-0.450
5373,-1.100,-0.355
5374,-1.070,-0.275
5375,-1.065,-0.215
5376,-1.080,-0.215
5377,-1.090,-0.240
5378,-1.075,-0.315
5379,-1.055,-0.375
5380,-1.035,-0.440
5381,-1.010,-0.485
5382,-0.995,-0.520
5383,-0.975,-0.540
5384,-0.965,-0.560
5385,-0.965,-0.575
5386,-0.975,-0.585
5387,-0.975,-0.595
5388,-0.970,-0.580
5389,-0.965,-0.570
5390,-0.965,-0.560
5391,-0.950,-0.565
5392,-0.950,-0.565
5393,-0.950,-0.545
5394,-0.950,-0.555
5395,-0.960,-0.555
5396,-0.965,-0.575
5397,-0.970,-0.580
5398,-0.985,-0.580
5399,-0.980,-0.575
5400,-0.975,-0.580
5401,-0.965,-0.575
5402,-0.980,-0.560
5403,-0.960,-0.565
5404,-0.965,-0.555
5405,-0.970,-0.560
5406,-0.970,-0.570
5407,-0.980,-0.570
5408,-1.000,-0.580
5409,-0.990,-0.595
5410,-0.990,-0.595
5411,-1.005,-0.600
5412,-1.000,-0.585
5413,-0.995,-0.585
5414,-0.990,-0.575
5415,-0.985,-0.560
5416,-0.990,-0.555
5417,-0.985,-0.570
5418,-0.990,-0.560
5419,-1.000,-0.565
5420,-1.010,-0.575
5421,-0.995,-0.590
5422,-1.015,-0.590
5423,-1.025,-0.595
5424,-1.025,-0.585
5425,-1.025,-0.585
5426,-1.030,-0.565
5427,-1.030,-0.575
5428,-1.020,-0.565
5429,-1.020,-0.560
5430,-1.025,-0.570
5431,-1.040,-0.570
5432,-1.045,-0.585
5433,-1.040,-0.590
5434,-1.075,-0.595
5435,-1.085,-0.600
5436,-1.085,-0.605
5437,-1.090,-0.600
5438,-1.080,-0.590
5439,-1.075,-0.580
5440,-1.080,-0.580
5441,-1.075,-0.580
5442,-1.070,-0.585
5443,-1.075,-0.595
5444,-1.085,-0.600
5445,-1.090,-0.605
5446,-1.100,-0.610
5447,-1.120,-0.610
5448,-1.125,-0.610
5449,-1.105,-0.605
5450,-1.105,-0.585
5451,-1.090,-0.590
5452,-1.085,-0.580
5453,-1.080,-0.580
5454,-1.080,-0.595
5455,-1.080,-0.595
5456,-1.080,-0.610
5457,-1.085,-0.625
5458,-1.085,-0.615
5459,-1.080,-0.620
5460,-1.070,-0.610
5461,-1.065,-0.600
5462,-1.050,-0.585
5463,-1.040,-0.600
5464,-1.015,-0.590
5465,-1.015,-0.590
5466,-1.000,-0.600
5467,-0.985,-0.595
5468,-0.975,-0.610
5469,-0.960,-0.615
5470,-0.945,-0.625
5471,-0.930,-0.625
5472,-0.915,-0.630
5473,-0.880,-0.625
5474,-0.850,-0.605
5475,-0.815,-0.600
5476,-0.785,-0.600
5477,-0.755,-0.595
5478,-0.740,-0.600
5479,-0.730,-0.605
5480,-0.720,-0.590
5481,-0.730,-0.605
5482,-0.725,-0.605
5483,-0.715,-0.595
5484,-0.725,-0.590
5485,-0.725,-0.580
5486,-0.710,-0.555
5487,-0.695,-0.555
5488,-0.685,-0.535
5489,-0.680,-0.530
5490,-0.685,-0.535
5491,-0.690,-0.535
5492,-0.700,-0.545
5493,-0.715,-0.555
5494,-0.730,-0.550
5495,-0.735,-0.550
5496,-0.730,-0.545
5497,-0.720,-0.535
5498,-0.715,-0.535
5499,-0.730,-0.535
5500,-0.710,-0.525
5501,-0.715,-0.525
5502,-0.725,-0.520
5503,-0.720,-0.525
5504,-0.725,-0.550
5505,-0.735,-0.550
5506,-0.740,-0.555
5507,-0.745,-0.550
5508,-0.745,-0.555
5509,-0.745,-0.550
5510,-0.735,-0.540
5511,-0.735,-0.535
5512,-0.735,-0.520
5513,-0.730,-0.525
5514,-0.740,-0.530
5515,-0.745,-0.530
5516,-0.750,-0.530
5517,-0.755,-0.540
5518,-0.755,-0.555
5519,-0.765,-0.555
5520,-0.770,-0.560
5521,-0.770,-0.540
5522,-0.750,-0.530
5523,-0.760,-0.525
5524,-0.760,-0.525
5525,-0.755,-0.535
5526,-0.750,-0.535
5527,-0.760,-0.535
5528,-0.760,-0.535
5529,-0.770,-0.560
5530,-0.790,-0.570
5531,-0.795,-0.575
5532,-0.785,-0.560
5533,-0.770,-0.560
5534,-0.765,-0.545
5535,-0.765,-0.530
5536,-0.760,-0.540
5537,-0.760,-0.545
5538,-0.760,-0.545
5539,-0.755,-0.550
5540,-0.765,-0.565
5541,-0.770,-0.575
5542,-0.770,-0.570
5543,-0.780,-0.565
5544,-0.765,-0.560
5545,-0.765,-0.555
5546,-0.750,-0.550
5547,-0.730,-0.530
5548,-0.730,-0.530
5549,-0.710,-0.530
5550,-0.710,-0.520
5551,-0.685,-0.530
5552,-0.685,-0.530
5553,-0.685,-0.540
5554,-0.690,-0.535
5555,-0.685,-0.530
5556,-0.680,-0.520
5557,-0.675,-0.520
5558,-0.680,-0.500
5559,-0.670,-0.505
5560,-0.660,-0.520
5561,-0.645,-0.515
5562,-0.650,-0.540
5563,-0.640,-0.545
5564,-0.635,-0.565
5565,-0.640,-0.575
5566,-0.635,-0.585
5567,-0.660,-0.585
5568,-0.680,-0.575
5569,-0.685,-0.580
5570,-0.705,-0.575
5571,-0.705,-0.570
5572,-0.725,-0.555
5573,-0.715,-0.580
5574,-0.715,-0.570
5575,-0.725,-0.575
5576,-0.725,-0.585
5577,-0.745,-0.580
5578,-0.755,-0.585
5579,-0.775,-0.585
5580,-0.790,-0.570
5581,-0.800,-0.545
5582,-0.795,-0.525
5583,-0.800,-0.530
5584,-0.815,-0.520
5585,-0.805,-0.520
5586,-0.815,-0.525
5587,-0.825,-0.540
5588,-0.830,-0.540
5589,-0.830,-0.540
5590,-0.830,-0.550
5591,-0.835,-0.550
5592,-0.835,-0.545
5593,-0.845,-0.540
5594,-0.835,-0.550
5595,-0.825,-0.545
5596,-0.815,-0.545
5597,-0.805,-0.525
5598,-0.810,-0.540
5599,-0.815,-0.540
5600,-0.805,-0.540
5601,-0.820,-0.560
5602,-0.825,-0.560
5603,-0.825,-0.570
5604,-0.825,-0.545
5605,-0.815,-0.540
5606,-0.805,-0.525
5607,-0.780,-0.515
5608,-0.760,-0.500
5609,-0.710,-0.500
5610,-0.665,-0.505
5611,-0.600,-0.525
5612,-0.510,-0.545
5613,-0.405,-0.560
5614,-0.275,-0.590
5615,-0.165,-0.610
5616,-0.050,-0.625
5617,0.020,-0.640
5618,0.020,-0.625
5619,-0.050,-0.625
5620,-0.195,-0.635
5621,-0.350,-0.650
5622,-0.545,-0.655
5623,-0.745,-0.645
5624,-0.930,-0.585
5625,-1.045,-0.525
5626,-1.095,-0.405
5627,-1.085,-0.325
5628,-1.050,-0.270
5629,-1.000,-0.290
5630,-0.945,-0.335
5631,-0.930,-0.395
5632,-0.900,-0.440
5633,-0.905,-0.490
5634,-0.915,-0.525
5635,-0.925,-0.550
5636,-0.945,-0.565
5637,-0.940,-0.560
5638,-0.950,-0.555
5639,-0.940,-0.565
5640,-0.935,-0.555
5641,-0.940,-0.540
5642,-0.925,-0.535
5643,-0.930,-0.535
5644,-0.930,-0.535
5645,-0.925,-0.525
5646,-0.930,-0.550
5647,-0.925,-0.545
5648,-0.950,-0.560
5649,-0.955,-0.555
5650,-0.955,-0.555
5651,-0.960,-0.565
5652,-0.960,-0.560
5653,-0.955,-0.560
5654,-0.955,-0.560
5655,-0.950,-0.540
5656,-0.945,-0.540
5657,-0.940,-0.545
5658,-0.940,-0.535
5659,-0.940,-0.555
5660,-0.950,-0.555
5661,-0.960,-0.560
5662,-0.960,-0.580
5663,-0.965,-0.575
5664,-0.975,-0.575
5665,-0.980,-0.585
5666,-0.970,-0.565
5667,-0.970,-0.560
5668,-0.965,-0.550
5669,-0.965,-0.555
5670,-0.970,-0.555
5671,-0.980,-0.560
5672,-1.010,-0.575
5673,-1.020,-0.575
5674,-1.000,-0.580
5675,-1.010,-0.570
5676,-1.015,-0.585
5677,-1.005,-0.575
5678,-1.005,-0.575
5679,-1.005,-0.575
5680,-0.995,-0.555
5681,-1.010,-0.560
5682,-1.010,-0.570
5683,-1.015,-0.575
5684,-1.025,-0.590
5685,-1.035,-0.590
5686,-1.040,-0.595
5687,-1.045,-0.590
5688,-1.055,-0.595
5689,-1.055,-0.585
5690,-1.060,-0.585
5691,-1.045,-0.570
5692,-1.045,-0.570
5693,-1.050,-0.575
5694,-1.060,-0.575
5695,-1.070,-0.590
5696,-1.075,-0.605
5697,-1.085,-0.605
5698,-1.090,-0.610
5699,-1.085,-0.600
5700,-1.090,-0.610
5701,-1.085,-0.590
5702,-1.090,-0.590
5703,-1.080,-0.605
5704,-1.065,-0.590
5705,-1.050,-0.575
5706,-1.050,-0.575
5707,-1.060,-0.580
5708,-1.045,-0.595
5709,-1.050,-0.590
5710,-1.050,-0.600
5711,-1.035,-0.605
5712,-1.040,-0.595
5713,-1.025,-0.600
5714,-1.010,-0.590
5715,-0.985,-0.580
5716,-0.970,-0.575
5717,-0.945,-0.565
5718,-0.925,-0.580
5719,-0.915,-0.585
5720,-0.895,-0.595
5721,-0.890,-0.610
5722,-0.880,-0.610
5723,-0.855,-0.620
5724,-0.830,-0.610
5725,-0.815,-0.620
5726,-0.785,-0.605
5727,-0.755,-0.605
5728,-0.745,-0.590
5729,-0.710,-0.595
5730,-0.715,-0.585
5731,-0.710,-0.595
5732,-0.700,-0.590
5733,-0.695,-0.610
5734,-0.700,-0.605
5735,-0.700,-0.595
5736,-0.705,-0.595
5737,-0.700,-0.580
5738,-0.695,-0.570
5739,-0.695,-0.565
5740,-0.695,-0.550
5741,-0.685,-0.555
5742,-0.695,-0.545
5743,-0.705,-0.550
5744,-0.710,-0.560
5745,-0.720,-0.560
5746,-0.730,-0.570
5747,-0.720,-0.565
5748,-0.725,-0.560
5749,-0.730,-0.555
5750,-0.730,-0.555
5751,-0.720,-0.535
5752,-0.720,-0.530
5753,-0.715,-0.530
5754,-0.720,-0.525
5755,-0.730,-0.540
5756,-0.745,-0.545
5757,-0.740,-0.555
5758,-0.750,-0.555
5759,-0.745,-0.565
5760,-0.755,-0.560
5761,-0.760,-0.570
5762,-0.760,-0.555
5763,-0.745,-0.555
5764,-0.740,-0.540
5765,-0.735,-0.535
5766,-0.740,-0.540
5767,-0.760,-0.545
5768,-0.760,-0.550
5769,-0.765,-0.570
5770,-0.770,-0.580
5771,-0.775,-0.570
5772,-0.775,-0.570
5773,-0.785,-0.560
5774,-0.780,-0.555
5775,-0.770,-0.545
5776,-0.765,-0.540
5777,-0.760,-0.540
5778,-0.765,-0.545
5779,-0.770,-0.545
5780,-0.770,-0.560
5781,-0.780,-0.565
5782,-0.785,-0.570
5783,-0.800,-0.570
5784,-0.800,-0.570
5785,-0.795,-0.565
5786,-0.780,-0.560
5787,-0.780,-0.560
5788,-0.770,-0.550
5789,-0.780,-0.555
5790,-0.770,-0.550
5791,-0.765,-0.560
5792,-0.770,-0.570
5793,-0.775,-0.570
5794,-0.765,-0.580
5795,-0.765,-0.585
5796,-0.755,-0.570
5797,-0.740,-0.555
5798,-0.725,-0.535
5799,-0.710,-0.525
5800,-0.700,-0.515
5801,-0.680,-0.505
5802,-0.680,-0.510
5803,-0.675,-0.525
5804,-0.685,-0.545
5805,-0.710,-0.530
5806,-0.700,-0.550
5807,-0.705,-0.560
5808,-0.705,-0.565
5809,-0.695,-0.565
5810,-0.675,-0.550
5811,-0.655,-0.550
5812,-0.650,-0.530
5813,-0.640,-0.550
5814,-0.650,-0.555
5815,-0.670,-0.555
5816,-0.680,-0.585
5817,-0.710,-0.585
5818,-0.730,-0.600
5819,-0.745,-0.600
5820,-0.760,-0.600
5821,-0.760,-0.595
5822,-0.750,-0.585
5823,-0.740,-0.580
5824,-0.740,-0.570
5825,-0.740,-0.570
5826,-0.770,-0.585
5827,-0.770,-0.585
5828,-0.810,-0.575
5829,-0.815,-0.570
5830,-0.825,-0.575
5831,-0.835,-0.565
5832,-0.845,-0.550
5833,-0.855,-0.560
5834,-0.855,-0.545
5835,-0.840,-0.545
5836,-0.835,-0.535
5837,-0.830,-0.530
5838,-0.840,-0.545
5839,-0.840,-0.540
5840,-0.845,-0.550
5841,-0.845,-0.545
5842,-0.850,-0.565
5843,-0.850,-0.550
5844,-0.860,-0.545
5845,-0.865,-0.545
5846,-0.855,-0.545
5847,-0.840,-0.540
5848,-0.835,-0.515
5849,-0.820,-0.520
5850,-0.825,-0.515
5851,-0.825,-0.525
5852,-0.830,-0.530
5853,-0.845,-0.535
5854,-0.835,-0.530
5855,-0.835,-0.540
5856,-0.820,-0.540
5857,-0.780,-0.535
5858,-0.710,-0.535
5859,-0.640,-0.530
5860,-0.545,-0.535
5861,-0.420,-0.550
5862,-0.295,-0.575
5863,-0.165,-0.590
5864,-0.065,-0.620
5865,-0.010,-0.630
5866,-0.010,-0.640
5867,-0.085,-0.655
5868,-0.210,-0.665
5869,-0.350,-0.665
5870,-0.480,-0.675
5871,-0.615,-0.655
5872,-0.780,-0.635
5873,-0.915,-0.600
5874,-1.035,-0.570
5875,-1.100,-0.485
5876,-1.110,-0.395
5877,-1.085,-0.315
5878,-1.065,-0.295
5879,-1.040,-0.310
5880,-1.010,-0.335
5881,-0.980,-0.415
5882,-0.965,-0.455
5883,-0.965,-0.480
5884,-0.960,-0.495
5885,-0.950,-0.505
5886,-0.955,-0.520
5887,-0.950,-0.520
5888,-0.950,-0.535
5889,-0.950,-0.550
5890,-0.955,-0.565
5891,-0.960,-0.555
5892,-0.955,-0.555
5893,-0.960,-0.555
5894,-0.970,-0.540
5895,-0.960,-0.535
5896,-0.960,-0.530
5897,-0.960,-0.525
5898,-0.955,-0.525
5899,-0.960,-0.545
5900,-0.960,-0.550
5901,-0.975,-0.555
5902,-0.985,-0.565
5903,-0.990,-0.570
5904,-0.985,-0.570
5905,-0.990,-0.565
5906,-0.990,-0.560
5907,-0.985,-0.555
5908,-0.975,-0.535
5909,-0.955,-0.540
5910,-0.975,-0.540
5911,-0.970,-0.540
5912,-0.985,-0.550
5913,-0.985,-0.545
5914,-1.000,-0.565
5915,-1.005,-0.560
5916,-1.010,-0.565
5917,-1.015,-0.550
5918,-1.010,-0.560
5919,-1.005,-0.555
5920,-1.010,-0.545
5921,-1.010,-0.545
5922,-1.025,-0.555
5923,-1.025,-0.560
5924,-1.025,-0.560
5925,-1.040,-0.570
5926,-1.040,-0.575
5927,-1.050,-0.580
5928,-1.055,-0.580
5929,-1.060,-0.570
5930,-1.060,-0.555
5931,-1.065,-0.555
5932,-1.065,-0.550
5933,-1.050,-0.555
5934,-1.055,-0.560
5935,-1.070,-0.560
5936,-1.075,-0.570
5937,-1.080,-0.565
5938,-1.090,-0.580
5939,-1.105,-0.585
5940,-1.105,-0.580
5941,-1.115,-0.565
5942,-1.105,-0.565
5943,-1.100,-0.560
5944,-1.105,-0.550
5945,-1.100,-0.555
5946,-1.095,-0.560
5947,-1.110,-0.555
5948,-1.115,-0.565
5949,-1.125,-0.575
5950,-1.130,-0.580
5951,-1.120,-0.590
5952,-1.130,-0.580
5953,-1.125,-0.585
5954,-1.110,-0.575
5955,-1.105,-0.570
5956,-1.090,-0.560
5957,-1.095,-0.565
5958,-1.080,-0.565
5959,-1.075,-0.575
5960,-1.080,-0.580
5961,-1.080,-0.590
5962,-1.080,-0.585
5963,-1.070,-0.590
5964,-1.065,-0.585
5965,-1.060,-0.580
5966,-1.040,-0.570
5967,-1.020,-0.565
5968,-0.985,-0.565
5969,-0.955,-0.565
5970,-0.945,-0.565
5971,-0.915,-0.575
5972,-0.900,-0.575
5973,-0.885,-0.580
5974,-0.875,-0.600
5975,-0.855,-0.605
5976,-0.835,-0.610
5977,-0.810,-0.605
5978,-0.785,-0.580
5979,-0.765,-0.575
5980,-0.765,-0.570
5981,-0.740,-0.570
5982,-0.730,-0.570
5983,-0.720,-0.575
5984,-0.725,-0.580
5985,-0.750,-0.580
5986,-0.735,-0.580
5987,-0.740,-0.590
5988,-0.740,-0.585
5989,-0.735,-0.570
5990,-0.735,-0.575
5991,-0.735,-0.560
5992,-0.735,-0.535
5993,-0.725,-0.545
5994,-0.740,-0.535
5995,-0.755,-0.530
5996,-0.745,-0.545
5997,-0.755,-0.550
5998,-0.770,-0.550
5999,-0.765,-0.550
6000,-0.775,-0.550
6001,-0.775,-0.540
6002,-0.765,-0.530
6003,-0.765,-0.525
6004,-0.765,-0.520
6005,-0.760,-0.505
6006,-0.755,-0.510
6007,-0.770,-0.530
6008,-0.780,-0.540
6009,-0.785,-0.540
6010,-0.790,-0.555
6011,-0.795,-0.540
6012,-0.795,-0.545
6013,-0.795,-0.530
6014,-0.790,-0.535
6015,-0.790,-0.530
6016,-0.780,-0.530
6017,-0.770,-0.530
6018,-0.775,-0.535
6019,-0.775,-0.540
6020,-0.785,-0.550
6021,-0.800,-0.565
6022,-0.805,-0.565
6023,-0.815,-0.560
6024,-0.820,-0.575
6025,-0.825,-0.555
6026,-0.820,-0.545
6027,-0.805,-0.545
6028,-0.790,-0.535
6029,-0.790,-0.540
6030,-0.785,-0.535
6031,-0.785,-0.540
6032,-0.790,-0.555
6033,-0.795,-0.565
6034,-0.800,-0.555
6035,-0.800,-0.570
6036,-0.800,-0.560
6037,-0.795,-0.550
6038,-0.795,-0.540
6039,-0.780,-0.545
6040,-0.775,-0.530
6041,-0.765,-0.530
6042,-0.755,-0.535
6043,-0.760,-0.535
6044,-0.760,-0.550
6045,-0.750,-0.555
6046,-0.745,-0.550
6047,-0.735,-0.555
6048,-0.725,-0.555
6049,-0.710,-0.540
6050,-0.705,-0.535
6051,-0.695,-0.525
6052,-0.685,-0.510
6053,-0.690,-0.515
6054,-0.690,-0.520
6055,-0.695,-0.525
6056,-0.695,-0.545
6057,-0.675,-0.555
6058,-0.680,-0.565
6059,-0.680,-0.580
6060,-0.685,-0.570
6061,-0.705,-0.580
6062,-0.715,-0.575
6063,-0.725,-0.570
6064,-0.745,-0.560
6065,-0.745,-0.565
6066,-0.740,-0.565
6067,-0.750,-0.575
6068,-0.740,-0.585
6069,-0.760,-0.600
6070,-0.780,-0.605
6071,-0.800,-0.600
6072,-0.820,-0.590
6073,-0.830,-0.565
6074,-0.840,-0.540
6075,-0.845,-0.530
6076,-0.845,-0.520
6077,-0.845,-0.515
6078,-0.850,-0.535
6079,-0.855,-0.520
6080,-0.860,-0.540
6081,-0.865,-0.560
6082,-0.865,-0.565
6083,-0.870,-0.565
6084,-0.875,-0.560
6085,-0.875,-0.555
6086,-0.865,-0.540
6087,-0.870,-0.530
6088,-0.855,-0.515
6089,-0.845,-0.520
6090,-0.840,-0.530
6091,-0.845,-0.545
6092,-0.845,-0.540
6093,-0.855,-0.535
6094,-0.855,-0.545
6095,-0.860,-0.550
6096,-0.870,-0.540
6097,-0.850,-0.530
6098,-0.850,-0.530
6099,-0.830,-0.525
6100,-0.810,-0.505
6101,-0.770,-0.510
6102,-0.705,-0.510
6103,-0.635,-0.530
6104,-0.535,-0.550
6105,-0.425,-0.580
6106,-0.290,-0.605
6107,-0.185,-0.625
6108,-0.095,-0.640
6109,-0.040,-0.650
6110,-0.060,-0.645
6111,-0.140,-0.655
6112,-0.260,-0.660
6113,-0.385,-0.670
6114,-0.525,-0.670
6115,-0.675,-0.665
6116,-0.840,-0.635
6117,-1.000,-0.600
6118,-1.110,-0.520
6119,-1.160,-0.415
6120,-1.160,-0.320
6121,-1.125,-0.275
6122,-1.085,-0.285
6123,-1.030,-0.345
6124,-0.995,-0.400
6125,-0.970,-0.460
6126,-0.970,-0.510
6127,-0.960,-0.525
6128,-0.955,-0.545
6129,-0.965,-0.555
6130,-0.960,-0.550
6131,-0.970,-0.550
6132,-0.965,-0.550
6133,-0.975,-0.540
6134,-0.970,-0.530
6135,-0.960,-0.525
6136,-0.955,-0.515
6137,-0.960,-0.530
6138,-0.950,-0.535
6139,-0.955,-0.535
6140,-0.970,-0.555
6141,-0.990,-0.555
6142,-0.995,-0.560
6143,-0.995,-0.555
6144,-0.995,-0.570
6145,-0.985,-0.560
6146,-0.985,-0.540
6147,-0.975,-0.545
6148,-0.970,-0.530
6149,-0.965,-0.535
6150,-0.975,-0.540
6151,-0.975,-0.545
6152,-0.990,-0.550
6153,-0.995,-0.555
6154,-0.990,-0.565
6155,-1.000,-0.565
6156,-1.025,-0.560
6157,-1.020,-0.550
6158,-0.995,-0.550
6159,-0.995,-0.540
6160,-0.990,-0.525
6161,-0.990,-0.525
6162,-0.990,-0.525
6163,-0.995,-0.535
6164,-1.010,-0.550
6165,-1.020,-0.545
6166,-1.020,-0.555
6167,-1.040,-0.570
6168,-1.045,-0.565
6169,-1.040,-0.570
6170,-1.040,-0.545
6171,-1.040,-0.550
6172,-1.040,-0.545
6173,-1.030,-0.540
6174,-1.030,-0.540
6175,-1.035,-0.550
6176,-1.050,-0.570
6177,-1.060,-0.580
6178,-1.075,-0.590
6179,-1.065,-0.595
6180,-1.075,-0.580
6181,-1.080,-0.575
6182,-1.075,-0.565
6183,-1.070,-0.560
6184,-1.070,-0.540
6185,-1.070,-0.545
6186,-1.065,-0.560
6187,-1.075,-0.565
6188,-1.090,-0.560
6189,-1.095,-0.570
6190,-1.095,-0.575
6191,-1.100,-0.590
6192,-1.100,-0.575
6193,-1.100,-0.575
6194,-1.085,-0.575
6195,-1.085,-0.565
6196,-1.070,-0.555
6197,-1.065,-0.560
6198,-1.050,-0.555
6199,-1.050,-0.565
6200,-1.055,-0.575
6201,-1.055,-0.580
6202,-1.050,-0.590
6203,-1.045,-0.595
6204,-1.040,-0.600
6205,-1.035,-0.600
6206,-1.005,-0.595
6207,-0.995,-0.575
6208,-0.965,-0.575
6209,-0.935,-0.575
6210,-0.925,-0.570
6211,-0.905,-0.585
6212,-0.890,-0.590
6213,-0.895,-0.595
6214,-0.860,-0.600
6215,-0.850,-0.620
6216,-0.835,-0.600
6217,-0.810,-0.605
6218,-0.800,-0.590
6219,-0.780,-0.590
6220,-0.755,-0.580
6221,-0.740,-0.580
6222,-0.725,-0.575
6223,-0.730,-0.570
6224,-0.720,-0.570
6225,-0.725,-0.575
6226,-0.730,-0.590
6227,-0.730,-0.580
6228,-0.725,-0.570
6229,-0.725,-0.570
6230,-0.720,-0.560
6231,-0.710,-0.545
6232,-0.705,-0.545
6233,-0.715,-0.545
6234,-0.725,-0.535
6235,-0.725,-0.545
6236,-0.735,-0.555
6237,-0.740,-0.555
6238,-0.760,-0.570
6239,-0.750,-0.575
6240,-0.755,-0.565
6241,-0.755,-0.550
6242,-0.755,-0.545
6243,-0.755,-0.545
6244,-0.750,-0.535
6245,-0.745,-0.535
6246,-0.745,-0.530
6247,-0.745,-0.535
6248,-0.765,-0.540
6249,-0.770,-0.550
6250,-0.780,-0.555
6251,-0.775,-0.550
6252,-0.770,-0.560
6253,-0.775,-0.555
6254,-0.770,-0.535
6255,-0.770,-0.545
6256,-0.760,-0.525
6257,-0.760,-0.530
6258,-0.760,-0.530
6259,-0.765,-0.540
6260,-0.775,-0.550
6261,-0.785,-0.555
6262,-0.780,-0.565
6263,-0.800,-0.580
6264,-0.795,-0.580
6265,-0.795,-0.590
6266,-0.795,-0.575
6267,-0.790,-0.560
6268,-0.785,-0.555
6269,-0.790,-0.555
6270,-0.780,-0.565
6271,-0.780,-0.565
6272,-0.790,-0.575
6273,-0.790,-0.565
6274,-0.805,-0.590
6275,-0.815,-0.595
6276,-0.810,-0.585
6277,-0.795,-0.585
6278,-0.805,-0.570
6279,-0.800,-0.570
6280,-0.805,-0.550
6281,-0.785,-0.555
6282,-0.780,-0.550
6283,-0.780,-0.555
6284,-0.780,-0.570
6285,-0.770,-0.560
6286,-0.775,-0.560
6287,-0.780,-0.570
6288,-0.775,-0.565
6289,-0.760,-0.560
6290,-0.750,-0.555
6291,-0.735,-0.535
6292,-0.730,-0.535
6293,-0.700,-0.530
6294,-0.700,-0.515
6295,-0.685,-0.520
6296,-0.690,-0.530
6297,-0.720,-0.535
6298,-0.715,-0.550
6299,-0.710,-0.570
6300,-0.715,-0.560
6301,-0.705,-0.550
6302,-0.705,-0.550
6303,-0.690,-0.555
6304,-0.675,-0.535
6305,-0.655,-0.545
6306,-0.650,-0.545
6307,-0.650,-0.565
6308,-0.655,-0.565
6309,-0.670,-0.580
6310,-0.690,-0.595
6311,-0.720,-0.595
6312,-0.735,-0.590
6313,-0.755,-0.595
6314,-0.755,-0.580
6315,-0.755,-0.585
6316,-0.745,-0.570
6317,-0.735,-0.565
6318,-0.750,-0.575
6319,-0.755,-0.570
6320,-0.765,-0.595
6321,-0.785,-0.590
6322,-0.815,-0.585
6323,-0.830,-0.570
6324,-0.845,-0.550
6325,-0.840,-0.540
6326,-0.850,-0.530
6327,-0.845,-0.520
6328,-0.845,-0.520
6329,-0.850,-0.520
6330,-0.845,-0.530
6331,-0.850,-0.535
6332,-0.845,-0.535
6333,-0.855,-0.540
6334,-0.855,-0.555
6335,-0.860,-0.550
6336,-0.880,-0.550
6337,-0.870,-0.550
6338,-0.865,-0.540
6339,-0.865,-0.545
6340,-0.855,-0.530
6341,-0.850,-0.535
6342,-0.850,-0.530
6343,-0.860,-0.530
6344,-0.860,-0.535
6345,-0.870,-0.540
6346,-0.865,-0.550
6347,-0.855,-0.545
6348,-0.860,-0.555
6349,-0.850,-0.545
6350,-0.850,-0.525
6351,-0.830,-0.515
6352,-0.785,-0.500
6353,-0.750,-0.505
6354,-0.685,-0.505
6355,-0.615,-0.525
6356,-0.505,-0.545
6357,-0.390,-0.575
6358,-0.260,-0.605
6359,-0.160,-0.630
6360,-0.095,-0.635
6361,-0.075,-0.650
6362,-0.145,-0.640
6363,-0.220,-0.640
6364,-0.355,-0.655
6365,-0.475,-0.670
6366,-0.595,-0.690
6367,-0.725,-0.680
6368,-0.890,-0.650
6369,-1.050,-0.625
6370,-1.145,-0.570
6371,-1.180,-0.490
