'sample interval','MLII','V1'
'0.00277778 sec','mV','mV'
0,-0.095,0.025
1,-0.095,0.025
2,-0.095,0.025
3,-0.095,0.025
4,-0.095,0.025
5,-0.095,0.025
6,-0.095,0.025
7,-0.095,0.025
8,-0.110,0.025
9,-0.140,0.010
10,-0.140,0.025
11,-0.135,0.055
12,-0.115,0.045
13,-0.110,0.040
14,-0.135,0.025
15,-0.150,0.020
16,-0.180,0.015
17,-0.175,0.025
18,-0.160,0.040
19,-0.150,0.045
20,-0.160,0.030
21,-0.170,0.000
22,-0.185,0.020
23,-0.180,0.015
24,-0.175,0.030
25,-0.155,0.020
26,-0.170,0.010
27,-0.195,-0.015
28,-0.210,-0.015
29,-0.175,0.000
30,-0.145,0.010
31,-0.135,-0.010
32,-0.125,-0.010
33,-0.145,-0.015
34,-0.165,-0.020
35,-0.155,-0.005
36,-0.135,0.015
37,-0.120,0.000
38,-0.110,-0.005
39,-0.110,0.010
40,-0.125,0.060
41,-0.120,0.105
42,-0.120,0.115
43,-0.100,0.055
44,-0.030,-0.015
45,0.075,-0.140
46,0.200,-0.240
47,0.315,-0.325
48,0.405,-0.420
49,0.480,-0.555
50,0.570,-0.715
51,0.660,-0.860
52,0.815,-0.975
53,1.005,-1.055
54,1.240,-1.100
55,1.465,-1.150
56,1.700,-1.195
57,1.910,-1.230
58,2.055,-1.225
59,2.100,-1.210
60,2.045,-1.205
61,1.850,-1.235
62,1.470,-1.245
63,1.045,-1.235
64,0.745,-1.160
65,0.595,-1.085
66,0.500,-1.005
67,0.465,-0.925
68,0.435,-0.825
69,0.415,-0.720
70,0.395,-0.615
71,0.375,-0.515
72,0.350,-0.440
73,0.300,-0.385
74,0.245,-0.335
75,0.180,-0.285
76,0.135,-0.225
77,0.115,-0.165
78,0.115,-0.115
79,0.075,-0.060
80,0.025,-0.040
81,-0.020,-0.010
82,-0.070,0.055
83,-0.100,0.120
84,-0.130,0.165
85,-0.155,0.195
86,-0.200,0.215
87,-0.245,0.215
88,-0.275,0.240
89,-0.290,0.285
90,-0.285,0.290
91,-0.275,0.290
92,-0.290,0.295
93,-0.305,0.290
94,-0.325,0.315
95,-0.325,0.335
96,-0.320,0.350
97,-0.330,0.365
98,-0.340,0.355
99,-0.350,0.345
100,-0.350,0.375
101,-0.345,0.395
102,-0.340,0.435
103,-0.340,0.430
104,-0.350,0.440
105,-0.360,0.430
106,-0.365,0.435
107,-0.375,0.475
108,-0.375,0.505
109,-0.360,0.510
110,-0.365,0.515
111,-0.395,0.530
112,-0.390,0.560
113,-0.395,0.585
114,-0.385,0.605
115,-0.405,0.615
116,-0.420,0.635
117,-0.425,0.645
118,-0.440,0.670
119,-0.440,0.715
120,-0.440,0.745
121,-0.450,0.745
122,-0.465,0.725
123,-0.460,0.725
124,-0.490,0.765
125,-0.475,0.795
126,-0.465,0.825
127,-0.480,0.835
128,-0.510,0.835
129,-0.530,0.850
130,-0.555,0.845
131,-0.560,0.875
132,-0.525,0.905
133,-0.535,0.885
134,-0.560,0.875
135,-0.590,0.860
136,-0.620,0.875
137,-0.585,0.880
138,-0.570,0.875
139,-0.560,0.850
140,-0.575,0.830
141,-0.585,0.780
142,-0.595,0.765
143,-0.565,0.755
144,-0.540,0.745
145,-0.525,0.695
146,-0.510,0.660
147,-0.525,0.600
148,-0.515,0.585
149,-0.470,0.575
150,-0.445,0.545
151,-0.410,0.515
152,-0.400,0.455
153,-0.390,0.400
154,-0.370,0.355
155,-0.345,0.340
156,-0.300,0.320
157,-0.290,0.285
158,-0.250,0.245
159,-0.235,0.205
160,-0.230,0.175
161,-0.220,0.185
162,-0.190,0.165
163,-0.165,0.150
164,-0.160,0.120
165,-0.160,0.115
166,-0.165,0.105
167,-0.150,0.115
168,-0.150,0.110
169,-0.150,0.070
170,-0.155,0.065
171,-0.165,0.045
172,-0.160,0.045
173,-0.155,0.070
174,-0.150,0.080
175,-0.155,0.055
176,-0.155,0.040
177,-0.165,0.030
178,-0.160,0.035
179,-0.145,0.050
180,-0.165,0.065
181,-0.165,0.050
182,-0.170,0.040
183,-0.175,0.035
184,-0.175,0.050
185,-0.160,0.050
186,-0.155,0.055
187,-0.155,0.055
188,-0.170,0.030
189,-0.205,0.050
190,-0.195,0.045
191,-0.185,0.070
192,-0.165,0.075
193,-0.175,0.060
194,-0.190,0.050
195,-0.200,0.040
196,-0.205,0.050
197,-0.185,0.070
198,-0.165,0.075
199,-0.155,0.075
200,-0.170,0.055
201,-0.195,0.050
202,-0.215,0.035
203,-0.205,0.060
204,-0.195,0.085
205,-0.190,0.070
206,-0.190,0.065
207,-0.195,0.050
208,-0.205,0.045
209,-0.195,0.075
210,-0.185,0.075
211,-0.185,0.075
212,-0.195,0.060
213,-0.185,0.055
214,-0.205,0.050
215,-0.195,0.065
216,-0.200,0.085
217,-0.170,0.080
218,-0.175,0.055
219,-0.190,0.040
220,-0.195,0.045
221,-0.185,0.055
222,-0.170,0.075
223,-0.185,0.065
224,-0.180,0.040
225,-0.180,0.025
226,-0.175,0.040
227,-0.175,0.035
228,-0.165,0.055
229,-0.165,0.050
230,-0.180,0.045
231,-0.190,0.040
232,-0.200,0.045
233,-0.190,0.045
234,-0.160,0.070
235,-0.165,0.055
236,-0.200,0.025
237,-0.195,0.015
238,-0.195,0.015
239,-0.180,0.045
240,-0.180,0.050
241,-0.160,0.045
242,-0.185,0.020
243,-0.205,0.020
244,-0.205,0.015
245,-0.210,0.025
246,-0.185,0.030
247,-0.185,0.020
248,-0.190,0.005
249,-0.205,0.000
250,-0.220,0.005
251,-0.210,0.000
252,-0.190,0.015
253,-0.170,0.005
254,-0.180,-0.005
255,-0.195,0.000
256,-0.210,-0.010
257,-0.200,0.020
258,-0.185,0.015
259,-0.195,0.015
260,-0.185,-0.010
261,-0.190,-0.010
262,-0.190,-0.005
263,-0.175,0.010
264,-0.170,0.030
265,-0.160,0.025
266,-0.175,0.015
267,-0.180,-0.005
268,-0.175,0.035
269,-0.165,0.035
270,-0.145,0.075
271,-0.140,0.075
272,-0.150,0.055
273,-0.190,0.065
274,-0.185,0.080
275,-0.130,0.090
276,-0.090,0.110
277,-0.110,0.115
278,-0.105,0.090
279,-0.125,0.090
280,-0.140,0.110
281,-0.115,0.110
282,-0.100,0.135
283,-0.100,0.100
284,-0.105,0.075
285,-0.140,0.045
286,-0.160,0.040
287,-0.155,0.055
288,-0.145,0.060
289,-0.160,0.065
290,-0.160,0.030
291,-0.175,0.020
292,-0.170,0.000
293,-0.175,0.015
294,-0.150,0.025
295,-0.160,0.030
296,-0.175,0.025
297,-0.190,0.020
298,-0.205,0.025
299,-0.200,0.030
300,-0.190,0.035
301,-0.190,0.025
302,-0.205,0.015
303,-0.200,-0.010
304,-0.205,0.010
305,-0.190,0.030
306,-0.180,0.045
307,-0.210,0.045
308,-0.215,0.010
309,-0.215,-0.005
310,-0.230,0.005
311,-0.215,0.005
312,-0.195,0.005
313,-0.185,0.005
314,-0.195,-0.015
315,-0.205,-0.020
316,-0.210,-0.030
317,-0.180,-0.025
318,-0.155,-0.015
319,-0.140,-0.015
320,-0.150,-0.025
321,-0.170,-0.035
322,-0.175,-0.030
323,-0.165,-0.030
324,-0.145,0.015
325,-0.135,0.005
326,-0.135,0.020
327,-0.160,0.025
328,-0.170,0.015
329,-0.145,0.005
330,-0.075,-0.075
331,0.055,-0.215
332,0.180,-0.380
333,0.275,-0.550
334,0.360,-0.705
335,0.460,-0.815
336,0.565,-0.905
337,0.670,-1.000
338,0.795,-1.075
339,0.920,-1.170
340,1.060,-1.225
341,1.240,-1.265
342,1.420,-1.290
343,1.635,-1.300
344,1.805,-1.290
345,1.950,-1.275
346,2.050,-1.220
347,2.085,-1.190
348,2.025,-1.165
349,1.860,-1.150
350,1.545,-1.135
351,1.185,-1.100
352,0.870,-1.040
353,0.695,-0.975
354,0.600,-0.930
355,0.555,-0.895
356,0.495,-0.860
357,0.460,-0.785
358,0.435,-0.685
359,0.420,-0.580
360,0.415,-0.490
361,0.390,-0.460
362,0.330,-0.415
363,0.260,-0.370
364,0.220,-0.310
365,0.185,-0.240
366,0.160,-0.170
367,0.115,-0.130
368,0.060,-0.095
369,0.010,-0.065
370,-0.015,-0.020
371,-0.050,0.035
372,-0.075,0.090
373,-0.115,0.105
374,-0.160,0.140
375,-0.210,0.155
376,-0.240,0.180
377,-0.265,0.225
378,-0.250,0.260
379,-0.285,0.270
380,-0.315,0.265
381,-0.360,0.270
382,-0.380,0.290
383,-0.380,0.320
384,-0.360,0.335
385,-0.355,0.340
386,-0.365,0.335
387,-0.385,0.330
388,-0.415,0.355
389,-0.415,0.385
390,-0.410,0.395
391,-0.415,0.395
392,-0.420,0.370
393,-0.430,0.390
394,-0.430,0.415
395,-0.420,0.445
396,-0.410,0.455
397,-0.425,0.455
398,-0.435,0.450
399,-0.470,0.470
400,-0.465,0.490
401,-0.460,0.510
402,-0.445,0.545
403,-0.440,0.550
404,-0.460,0.540
405,-0.480,0.545
406,-0.485,0.580
407,-0.485,0.610
408,-0.490,0.655
409,-0.485,0.675
410,-0.510,0.665
411,-0.535,0.660
412,-0.555,0.685
413,-0.550,0.700
414,-0.530,0.730
415,-0.515,0.750
416,-0.535,0.740
417,-0.570,0.770
418,-0.565,0.795
419,-0.575,0.825
420,-0.585,0.845
421,-0.585,0.850
422,-0.590,0.845
423,-0.615,0.855
424,-0.630,0.880
425,-0.645,0.905
426,-0.635,0.940
427,-0.640,0.925
428,-0.670,0.925
429,-0.675,0.910
430,-0.685,0.915
431,-0.660,0.925
432,-0.645,0.935
433,-0.660,0.925
434,-0.695,0.905
435,-0.710,0.875
436,-0.710,0.885
437,-0.685,0.885
438,-0.675,0.875
439,-0.665,0.865
440,-0.670,0.800
441,-0.675,0.790
442,-0.685,0.750
443,-0.675,0.765
444,-0.655,0.740
445,-0.625,0.695
446,-0.600,0.655
447,-0.620,0.620
448,-0.600,0.585
449,-0.575,0.575
450,-0.540,0.550
451,-0.530,0.505
452,-0.505,0.465
453,-0.495,0.410
454,-0.465,0.395
455,-0.430,0.380
456,-0.390,0.355
457,-0.355,0.300
458,-0.335,0.250
459,-0.330,0.210
460,-0.310,0.210
461,-0.270,0.225
462,-0.265,0.225
463,-0.260,0.190
464,-0.270,0.150
465,-0.270,0.130
466,-0.265,0.110
467,-0.235,0.115
468,-0.195,0.125
469,-0.195,0.100
470,-0.210,0.095
471,-0.235,0.075
472,-0.230,0.080
473,-0.220,0.085
474,-0.195,0.095
475,-0.195,0.070
476,-0.210,0.050
477,-0.220,0.030
478,-0.220,0.040
479,-0.210,0.065
480,-0.200,0.075
481,-0.205,0.070
482,-0.210,0.040
483,-0.210,0.025
484,-0.210,0.025
485,-0.215,0.050
486,-0.195,0.070
487,-0.195,0.060
488,-0.205,0.045
489,-0.215,0.035
490,-0.215,0.055
491,-0.210,0.055
492,-0.190,0.065
493,-0.205,0.055
494,-0.210,0.055
495,-0.220,0.055
496,-0.230,0.070
497,-0.215,0.090
498,-0.195,0.100
499,-0.195,0.085
500,-0.210,0.075
501,-0.235,0.065
502,-0.240,0.060
503,-0.235,0.085
504,-0.230,0.085
505,-0.215,0.075
506,-0.215,0.075
507,-0.230,0.070
508,-0.245,0.070
509,-0.240,0.085
510,-0.230,0.095
511,-0.230,0.100
512,-0.235,0.090
513,-0.255,0.065
514,-0.235,0.085
515,-0.240,0.090
516,-0.220,0.115
517,-0.235,0.110
518,-0.240,0.085
519,-0.240,0.065
520,-0.245,0.075
521,-0.220,0.095
522,-0.225,0.110
523,-0.215,0.105
524,-0.225,0.095
525,-0.240,0.090
526,-0.250,0.085
527,-0.235,0.090
528,-0.205,0.105
529,-0.200,0.090
530,-0.220,0.080
531,-0.225,0.060
532,-0.230,0.070
533,-0.215,0.095
534,-0.200,0.105
535,-0.200,0.095
536,-0.210,0.065
537,-0.210,0.055
538,-0.215,0.065
539,-0.210,0.070
540,-0.205,0.090
541,-0.200,0.095
542,-0.200,0.075
543,-0.210,0.065
544,-0.215,0.070
545,-0.205,0.065
546,-0.185,0.070
547,-0.200,0.055
548,-0.215,0.045
549,-0.225,0.040
550,-0.205,0.060
551,-0.195,0.070
552,-0.190,0.095
553,-0.185,0.080
554,-0.185,0.065
555,-0.210,0.055
556,-0.225,0.055
557,-0.225,0.065
558,-0.185,0.070
559,-0.180,0.075
560,-0.180,0.055
561,-0.215,0.060
562,-0.245,0.070
563,-0.230,0.070
564,-0.205,0.080
565,-0.185,0.070
566,-0.190,0.045
567,-0.205,0.035
568,-0.210,0.055
569,-0.190,0.055
570,-0.190,0.065
571,-0.185,0.075
572,-0.205,0.050
573,-0.210,0.035
574,-0.220,0.050
575,-0.205,0.075
576,-0.190,0.090
577,-0.190,0.090
578,-0.185,0.080
579,-0.200,0.075
580,-0.205,0.090
581,-0.175,0.100
582,-0.155,0.100
583,-0.135,0.120
584,-0.170,0.105
585,-0.165,0.110
586,-0.165,0.125
587,-0.150,0.145
588,-0.125,0.160
589,-0.110,0.160
590,-0.125,0.145
591,-0.130,0.145
592,-0.130,0.140
593,-0.125,0.150
594,-0.130,0.160
595,-0.125,0.140
596,-0.125,0.110
597,-0.140,0.085
598,-0.145,0.080
599,-0.125,0.105
600,-0.130,0.075
601,-0.145,0.070
602,-0.160,0.060
603,-0.180,0.030
604,-0.180,0.045
605,-0.180,0.040
606,-0.160,0.060
607,-0.140,0.060
608,-0.155,0.045
609,-0.170,0.035
610,-0.200,0.025
611,-0.205,0.035
612,-0.175,0.050
613,-0.190,0.045
614,-0.195,0.040
615,-0.215,0.030
616,-0.215,0.045
617,-0.215,0.040
618,-0.215,0.045
619,-0.215,0.035
620,-0.215,0.005
621,-0.220,0.005
622,-0.210,0.020
623,-0.195,0.035
624,-0.185,0.050
625,-0.195,0.045
626,-0.205,0.025
627,-0.210,0.005
628,-0.190,0.010
629,-0.165,0.005
630,-0.155,0.030
631,-0.155,0.010
632,-0.165,0.005
633,-0.180,0.005
634,-0.175,0.000
635,-0.160,0.010
636,-0.135,0.020
637,-0.130,0.010
638,-0.140,0.015
639,-0.150,0.025
640,-0.145,0.060
641,-0.145,0.095
642,-0.125,0.130
643,-0.105,0.105
644,-0.075,0.060
645,-0.035,-0.015
646,0.065,-0.125
647,0.185,-0.220
648,0.310,-0.335
649,0.410,-0.480
650,0.515,-0.610
651,0.595,-0.740
652,0.705,-0.830
653,0.830,-0.905
654,0.975,-0.985
655,1.125,-1.095
656,1.265,-1.175
657,1.430,-1.235
658,1.630,-1.260
659,1.840,-1.275
660,2.000,-1.280
661,2.065,-1.280
662,2.050,-1.290
663,1.955,-1.295
664,1.775,-1.285
665,1.520,-1.265
666,1.205,-1.200
667,0.905,-1.145
668,0.670,-1.115
669,0.520,-1.080
670,0.445,-1.020
671,0.440,-0.940
672,0.455,-0.840
673,0.450,-0.745
674,0.410,-0.640
675,0.365,-0.555
676,0.315,-0.475
677,0.265,-0.400
678,0.225,-0.315
679,0.195,-0.265
680,0.145,-0.225
681,0.100,-0.170
682,0.065,-0.110
683,0.035,-0.045
684,-0.020,0.015
685,-0.060,0.050
686,-0.100,0.085
687,-0.150,0.110
688,-0.170,0.130
689,-0.205,0.195
690,-0.215,0.235
691,-0.230,0.250
692,-0.260,0.260
693,-0.310,0.255
694,-0.335,0.290
695,-0.315,0.315
696,-0.300,0.330
697,-0.315,0.320
698,-0.325,0.330
699,-0.340,0.325
700,-0.350,0.350
701,-0.330,0.380
702,-0.330,0.400
703,-0.345,0.400
704,-0.370,0.395
705,-0.385,0.385
706,-0.395,0.395
707,-0.360,0.440
708,-0.340,0.460
709,-0.345,0.465
710,-0.355,0.465
711,-0.385,0.450
712,-0.400,0.480
713,-0.405,0.490
714,-0.380,0.500
715,-0.390,0.525
716,-0.400,0.525
717,-0.410,0.550
718,-0.445,0.565
719,-0.430,0.585
720,-0.420,0.610
721,-0.420,0.625
722,-0.415,0.640
723,-0.435,0.615
724,-0.455,0.645
725,-0.450,0.675
726,-0.455,0.725
727,-0.450,0.720
728,-0.475,0.740
729,-0.495,0.740
730,-0.495,0.775
731,-0.505,0.805
732,-0.495,0.835
733,-0.510,0.845
734,-0.535,0.860
735,-0.550,0.845
736,-0.550,0.875
737,-0.550,0.890
738,-0.550,0.905
739,-0.560,0.910
740,-0.590,0.900
741,-0.620,0.895
742,-0.615,0.915
743,-0.620,0.940
744,-0.620,0.950
745,-0.615,0.920
746,-0.620,0.900
747,-0.635,0.875
748,-0.655,0.885
749,-0.650,0.865
750,-0.615,0.870
751,-0.600,0.850
752,-0.615,0.805
753,-0.620,0.775
754,-0.630,0.755
755,-0.615,0.745
756,-0.595,0.720
757,-0.565,0.685
758,-0.560,0.645
759,-0.540,0.595
760,-0.520,0.570
761,-0.495,0.540
762,-0.470,0.505
763,-0.435,0.460
764,-0.410,0.410
765,-0.390,0.380
766,-0.375,0.340
767,-0.350,0.330
768,-0.320,0.310
769,-0.280,0.290
770,-0.275,0.230
771,-0.270,0.195
772,-0.255,0.185
773,-0.225,0.190
774,-0.190,0.185
775,-0.185,0.170
776,-0.175,0.140
777,-0.195,0.115
778,-0.205,0.115
779,-0.180,0.115
780,-0.170,0.105
781,-0.150,0.095
782,-0.155,0.080
783,-0.160,0.055
784,-0.180,0.040
785,-0.180,0.065
786,-0.155,0.075
787,-0.150,0.075
788,-0.160,0.055
789,-0.160,0.045
790,-0.155,0.055
791,-0.170,0.060
792,-0.175,0.060
793,-0.140,0.040
794,-0.145,0.030
795,-0.155,0.035
796,-0.160,0.035
797,-0.160,0.065
798,-0.145,0.055
799,-0.145,0.055
800,-0.165,0.020
801,-0.170,0.010
802,-0.180,0.040
803,-0.175,0.045
804,-0.155,0.060
805,-0.145,0.050
806,-0.160,0.040
807,-0.180,0.015
808,-0.190,0.025
809,-0.180,0.060
810,-0.165,0.065
811,-0.155,0.045
812,-0.145,0.035
813,-0.170,0.025
814,-0.180,0.045
815,-0.175,0.065
816,-0.165,0.080
817,-0.160,0.070
818,-0.185,0.050
819,-0.195,0.035
820,-0.215,0.035
821,-0.180,0.065
822,-0.165,0.090
823,-0.170,0.065
824,-0.175,0.055
825,-0.180,0.050
826,-0.180,0.055
827,-0.180,0.060
828,-0.160,0.075
829,-0.150,0.050
830,-0.165,0.035
831,-0.190,0.050
832,-0.200,0.045
833,-0.185,0.075
834,-0.170,0.075
835,-0.160,0.070
836,-0.165,0.060
837,-0.190,0.040
838,-0.165,0.060
839,-0.170,0.070
840,-0.155,0.085
841,-0.150,0.075
842,-0.155,0.055
843,-0.165,0.040
844,-0.165,0.050
845,-0.165,0.060
846,-0.155,0.070
847,-0.150,0.035
848,-0.170,0.035
849,-0.190,0.030
850,-0.175,0.025
851,-0.165,0.055
852,-0.145,0.060
853,-0.145,0.060
854,-0.155,0.040
855,-0.175,0.030
856,-0.180,0.020
857,-0.175,0.040
858,-0.145,0.060
859,-0.150,0.060
860,-0.140,0.045
861,-0.180,0.030
862,-0.180,0.035
863,-0.180,0.040
864,-0.160,0.060
865,-0.150,0.045
866,-0.155,0.035
867,-0.165,0.015
868,-0.170,0.030
869,-0.165,0.045
870,-0.155,0.050
871,-0.145,0.065
872,-0.165,0.040
873,-0.180,0.020
874,-0.185,0.020
875,-0.175,0.050
876,-0.150,0.040
877,-0.150,0.040
878,-0.160,0.035
879,-0.175,0.025
880,-0.195,0.025
881,-0.155,0.040
882,-0.140,0.050
883,-0.125,0.040
884,-0.135,0.030
885,-0.180,0.010
886,-0.180,0.010
887,-0.165,0.050
888,-0.155,0.070
889,-0.160,0.065
890,-0.160,0.050
891,-0.155,0.030
892,-0.150,0.040
893,-0.145,0.055
894,-0.130,0.065
895,-0.130,0.080
896,-0.140,0.070
897,-0.145,0.060
898,-0.150,0.100
899,-0.120,0.125
900,-0.105,0.115
901,-0.085,0.135
902,-0.100,0.110
903,-0.100,0.105
904,-0.120,0.125
905,-0.105,0.145
906,-0.070,0.155
907,-0.075,0.145
908,-0.090,0.145
909,-0.100,0.115
910,-0.120,0.110
911,-0.115,0.095
912,-0.100,0.075
913,-0.115,0.065
914,-0.125,0.040
915,-0.130,0.035
916,-0.145,0.040
917,-0.155,0.050
918,-0.155,0.050
919,-0.145,0.030
920,-0.135,0.020
921,-0.155,0.015
922,-0.170,0.015
923,-0.170,0.025
924,-0.165,0.040
925,-0.165,0.040
926,-0.180,0.030
927,-0.190,0.010
928,-0.200,0.010
929,-0.185,0.025
930,-0.180,0.030
931,-0.175,0.025
932,-0.200,0.020
933,-0.205,0.000
934,-0.195,0.005
935,-0.195,0.015
936,-0.175,0.035
937,-0.165,0.020
938,-0.175,0.000
939,-0.190,-0.025
940,-0.195,0.000
941,-0.185,0.015
942,-0.170,0.020
943,-0.160,0.015
944,-0.170,-0.010
945,-0.170,-0.010
946,-0.165,-0.015
947,-0.150,-0.005
948,-0.140,0.005
949,-0.125,-0.010
950,-0.145,-0.020
951,-0.145,-0.015
952,-0.135,0.015
953,-0.135,0.030
954,-0.120,0.050
955,-0.125,0.075
956,-0.135,0.075
957,-0.150,0.055
958,-0.150,0.045
959,-0.070,0.005
960,0.020,-0.050
961,0.120,-0.165
962,0.225,-0.285
963,0.290,-0.420
964,0.365,-0.505
965,0.450,-0.585
966,0.530,-0.700
967,0.600,-0.820
968,0.685,-0.945
969,0.805,-1.060
970,0.965,-1.130
971,1.170,-1.180
972,1.390,-1.220
973,1.605,-1.245
974,1.800,-1.270
975,1.920,-1.255
976,1.955,-1.225
977,1.920,-1.200
978,1.760,-1.185
979,1.500,-1.160
980,1.150,-1.145
981,0.845,-1.110
982,0.645,-1.045
983,0.570,-1.005
984,0.535,-0.905
985,0.495,-0.845
986,0.485,-0.750
987,0.435,-0.650
988,0.395,-0.570
989,0.365,-0.485
990,0.350,-0.415
991,0.295,-0.360
992,0.235,-0.310
993,0.165,-0.260
994,0.140,-0.185
995,0.085,-0.110
996,0.080,-0.065
997,0.030,-0.035
998,-0.010,-0.010
999,-0.120,0.040
1000,-0.135,0.120
1001,-0.130,0.170
1002,-0.155,0.205
1003,-0.195,0.200
1004,-0.235,0.220
1005,-0.270,0.235
1006,-0.280,0.270
1007,-0.290,0.290
1008,-0.300,0.300
1009,-0.305,0.295
1010,-0.325,0.300
1011,-0.330,0.325
1012,-0.330,0.345
1013,-0.320,0.340
1014,-0.330,0.335
1015,-0.345,0.335
1016,-0.350,0.330
1017,-0.360,0.355
1018,-0.355,0.390
1019,-0.355,0.420
1020,-0.345,0.415
1021,-0.360,0.425
1022,-0.380,0.415
1023,-0.405,0.420
1024,-0.400,0.460
1025,-0.390,0.480
1026,-0.380,0.485
1027,-0.385,0.495
1028,-0.410,0.500
1029,-0.440,0.510
1030,-0.410,0.540
1031,-0.395,0.540
1032,-0.395,0.560
1033,-0.400,0.565
1034,-0.420,0.580
1035,-0.435,0.600
1036,-0.450,0.635
1037,-0.450,0.670
1038,-0.450,0.685
1039,-0.455,0.690
1040,-0.470,0.710
1041,-0.475,0.720
1042,-0.505,0.770
1043,-0.485,0.805
1044,-0.500,0.800
1045,-0.490,0.815
1046,-0.510,0.815
1047,-0.520,0.835
1048,-0.520,0.860
1049,-0.520,0.875
1050,-0.520,0.885
1051,-0.540,0.890
1052,-0.560,0.880
1053,-0.580,0.890
1054,-0.575,0.930
1055,-0.580,0.935
1056,-0.580,0.920
1057,-0.595,0.900
1058,-0.615,0.880
1059,-0.625,0.895
1060,-0.605,0.890
1061,-0.595,0.885
1062,-0.585,0.880
1063,-0.610,0.855
1064,-0.630,0.820
1065,-0.630,0.800
1066,-0.605,0.775
1067,-0.575,0.760
1068,-0.560,0.720
1069,-0.555,0.680
1070,-0.555,0.650
1071,-0.555,0.615
1072,-0.520,0.585
1073,-0.490,0.560
1074,-0.470,0.525
1075,-0.430,0.470
1076,-0.440,0.430
1077,-0.425,0.395
1078,-0.400,0.400
1079,-0.375,0.360
1080,-0.345,0.340
1081,-0.315,0.285
1082,-0.300,0.265
1083,-0.290,0.225
1084,-0.255,0.210
1085,-0.230,0.205
1086,-0.230,0.190
1087,-0.210,0.160
1088,-0.205,0.140
1089,-0.205,0.120
1090,-0.180,0.110
1091,-0.185,0.125
1092,-0.165,0.105
1093,-0.180,0.090
1094,-0.185,0.065
1095,-0.175,0.075
1096,-0.165,0.085
1097,-0.140,0.105
1098,-0.155,0.085
1099,-0.155,0.060
1100,-0.190,0.040
1101,-0.180,0.040
1102,-0.180,0.055
1103,-0.160,0.070
1104,-0.155,0.075
1105,-0.160,0.050
1106,-0.185,0.050
1107,-0.185,0.060
1108,-0.175,0.070
1109,-0.160,0.070
1110,-0.155,0.065
1111,-0.165,0.050
1112,-0.170,0.040
1113,-0.190,0.055
1114,-0.180,0.060
1115,-0.170,0.070
1116,-0.170,0.070
1117,-0.180,0.040
1118,-0.180,0.030
1119,-0.190,0.045
1120,-0.180,0.060
1121,-0.165,0.080
1122,-0.160,0.075
1123,-0.165,0.060
1124,-0.200,0.050
1125,-0.205,0.055
1126,-0.200,0.065
1127,-0.170,0.090
1128,-0.185,0.085
1129,-0.170,0.070
1130,-0.205,0.070
1131,-0.200,0.065
1132,-0.185,0.090
1133,-0.170,0.105
1134,-0.170,0.100
1135,-0.175,0.070
1136,-0.190,0.070
1137,-0.200,0.075
1138,-0.180,0.090
1139,-0.190,0.095
1140,-0.190,0.105
1141,-0.185,0.090
1142,-0.195,0.095
1143,-0.200,0.095
1144,-0.190,0.115
1145,-0.175,0.115
1146,-0.170,0.110
1147,-0.190,0.090
1148,-0.195,0.085
1149,-0.200,0.095
1150,-0.195,0.100
1151,-0.175,0.120
1152,-0.170,0.100
1153,-0.185,0.080
1154,-0.205,0.085
1155,-0.205,0.095
1156,-0.190,0.110
1157,-0.170,0.125
1158,-0.170,0.095
1159,-0.170,0.080
1160,-0.175,0.060
1161,-0.175,0.075
1162,-0.180,0.085
1163,-0.170,0.095
1164,-0.160,0.090
1165,-0.155,0.090
1166,-0.170,0.075
1167,-0.165,0.075
1168,-0.160,0.085
1169,-0.160,0.100
1170,-0.165,0.095
1171,-0.160,0.060
1172,-0.175,0.065
1173,-0.190,0.065
1174,-0.160,0.085
1175,-0.150,0.075
1176,-0.135,0.080
1177,-0.145,0.055
1178,-0.165,0.055
1179,-0.175,0.065
1180,-0.175,0.075
1181,-0.165,0.095
1182,-0.160,0.080
1183,-0.165,0.075
1184,-0.175,0.045
1185,-0.180,0.040
1186,-0.170,0.055
1187,-0.175,0.075
1188,-0.170,0.075
1189,-0.165,0.065
1190,-0.180,0.055
1191,-0.180,0.050
1192,-0.175,0.070
1193,-0.175,0.070
1194,-0.170,0.065
1195,-0.170,0.045
1196,-0.200,0.050
1197,-0.190,0.045
1198,-0.185,0.055
1199,-0.160,0.060
1200,-0.155,0.075
1201,-0.145,0.050
1202,-0.170,0.040
1203,-0.185,0.040
1204,-0.195,0.065
1205,-0.165,0.085
1206,-0.165,0.085
1207,-0.145,0.075
1208,-0.165,0.055
1209,-0.170,0.065
1210,-0.160,0.080
1211,-0.150,0.105
1212,-0.135,0.110
1213,-0.135,0.110
1214,-0.135,0.100
1215,-0.150,0.125
1216,-0.130,0.135
1217,-0.120,0.165
1218,-0.105,0.160
1219,-0.115,0.145
1220,-0.115,0.145
1221,-0.145,0.145
1222,-0.130,0.175
1223,-0.105,0.190
1224,-0.080,0.170
1225,-0.095,0.160
1226,-0.100,0.140
1227,-0.120,0.115
1228,-0.115,0.115
1229,-0.105,0.100
1230,-0.100,0.105
1231,-0.100,0.075
1232,-0.135,0.070
1233,-0.160,0.070
1234,-0.150,0.080
1235,-0.130,0.085
1236,-0.135,0.080
1237,-0.125,0.055
1238,-0.125,0.040
1239,-0.140,0.050
1240,-0.140,0.065
1241,-0.145,0.075
1242,-0.145,0.075
1243,-0.160,0.060
1244,-0.180,0.060
1245,-0.180,0.055
1246,-0.180,0.060
1247,-0.180,0.080
1248,-0.180,0.080
1249,-0.180,0.055
1250,-0.185,0.055
1251,-0.180,0.060
1252,-0.175,0.070
1253,-0.140,0.085
1254,-0.150,0.075
1255,-0.170,0.060
1256,-0.195,0.050
1257,-0.210,0.040
1258,-0.190,0.055
1259,-0.165,0.050
1260,-0.145,0.060
1261,-0.140,0.030
1262,-0.165,0.030
1263,-0.165,0.030
1264,-0.165,0.040
1265,-0.150,0.055
1266,-0.140,0.040
1267,-0.125,0.040
1268,-0.130,0.040
1269,-0.140,0.060
1270,-0.145,0.095
1271,-0.125,0.120
1272,-0.115,0.155
1273,-0.115,0.125
1274,-0.125,0.100
1275,-0.130,0.085
1276,-0.060,0.025
1277,0.055,-0.090
1278,0.175,-0.225
1279,0.305,-0.415
1280,0.405,-0.605
1281,0.525,-0.745
1282,0.650,-0.870
1283,0.790,-0.980
1284,0.965,-1.085
1285,1.170,-1.185
1286,1.355,-1.270
1287,1.555,-1.290
1288,1.745,-1.305
1289,1.905,-1.315
1290,2.000,-1.305
1291,2.030,-1.300
1292,1.995,-1.285
1293,1.940,-1.255
1294,1.845,-1.225
1295,1.650,-1.185
1296,1.335,-1.135
1297,1.000,-1.095
1298,0.740,-1.025
1299,0.585,-0.955
1300,0.530,-0.860
1301,0.505,-0.735
1302,0.485,-0.635
1303,0.465,-0.555
1304,0.415,-0.495
1305,0.355,-0.440
1306,0.315,-0.370
1307,0.285,-0.310
1308,0.255,-0.280
1309,0.230,-0.240
1310,0.185,-0.210
1311,0.150,-0.165
1312,0.130,-0.070
1313,0.090,-0.020
1314,0.060,0.020
1315,0.000,0.020
1316,-0.055,0.075
1317,-0.100,0.135
1318,-0.135,0.205
1319,-0.175,0.250
1320,-0.195,0.265
1321,-0.235,0.270
1322,-0.265,0.275
1323,-0.285,0.305
1324,-0.290,0.325
1325,-0.285,0.370
1326,-0.280,0.370
1327,-0.305,0.365
1328,-0.330,0.360
1329,-0.335,0.395
1330,-0.345,0.410
1331,-0.345,0.420
1332,-0.320,0.425
1333,-0.325,0.440
1334,-0.350,0.440
1335,-0.350,0.455
1336,-0.375,0.475
1337,-0.360,0.495
1338,-0.355,0.500
1339,-0.365,0.490
1340,-0.370,0.495
1341,-0.395,0.515
1342,-0.390,0.525
1343,-0.385,0.545
1344,-0.400,0.560
1345,-0.410,0.550
1346,-0.410,0.550
1347,-0.410,0.580
1348,-0.395,0.600
1349,-0.405,0.620
1350,-0.400,0.625
1351,-0.410,0.620
1352,-0.445,0.640
1353,-0.455,0.655
1354,-0.450,0.700
1355,-0.435,0.720
1356,-0.440,0.735
1357,-0.465,0.750
1358,-0.470,0.760
1359,-0.515,0.755
1360,-0.510,0.790
1361,-0.510,0.810
1362,-0.500,0.830
1363,-0.515,0.845
1364,-0.520,0.840
1365,-0.530,0.875
1366,-0.520,0.895
1367,-0.510,0.925
1368,-0.515,0.910
1369,-0.535,0.920
1370,-0.555,0.925
1371,-0.585,0.950
1372,-0.575,0.970
1373,-0.565,0.990
1374,-0.575,0.995
1375,-0.590,1.000
1376,-0.625,0.990
1377,-0.635,0.995
1378,-0.630,1.015
1379,-0.610,1.030
1380,-0.615,1.005
1381,-0.625,0.985
1382,-0.660,0.985
1383,-0.655,1.005
1384,-0.650,0.990
1385,-0.645,1.000
1386,-0.640,0.985
1387,-0.635,0.950
1388,-0.635,0.905
1389,-0.620,0.890
1390,-0.620,0.875
1391,-0.605,0.865
1392,-0.595,0.820
1393,-0.595,0.790
1394,-0.590,0.755
1395,-0.560,0.720
1396,-0.535,0.695
1397,-0.505,0.690
1398,-0.485,0.640
1399,-0.475,0.600
1400,-0.465,0.555
1401,-0.470,0.550
1402,-0.420,0.525
1403,-0.395,0.510
1404,-0.365,0.485
1405,-0.365,0.435
1406,-0.340,0.385
1407,-0.325,0.360
1408,-0.305,0.340
1409,-0.280,0.330
1410,-0.260,0.310
1411,-0.250,0.270
1412,-0.225,0.250
1413,-0.220,0.230
1414,-0.200,0.220
1415,-0.165,0.215
1416,-0.150,0.205
1417,-0.165,0.180
1418,-0.160,0.160
1419,-0.155,0.165
1420,-0.145,0.165
1421,-0.130,0.170
1422,-0.120,0.185
1423,-0.160,0.155
1424,-0.160,0.145
1425,-0.165,0.140
1426,-0.160,0.150
1427,-0.145,0.135
1428,-0.125,0.140
1429,-0.130,0.135
1430,-0.145,0.135
1431,-0.165,0.125
1432,-0.155,0.135
1433,-0.140,0.150
1434,-0.130,0.145
1435,-0.130,0.125
1436,-0.150,0.115
1437,-0.155,0.130
1438,-0.150,0.145
1439,-0.140,0.155
1440,-0.145,0.145
1441,-0.155,0.145
1442,-0.165,0.135
1443,-0.175,0.125
1444,-0.150,0.135
1445,-0.145,0.150
1446,-0.135,0.155
1447,-0.135,0.140
1448,-0.160,0.110
1449,-0.170,0.130
1450,-0.165,0.160
1451,-0.150,0.170
1452,-0.135,0.150
1453,-0.150,0.125
1454,-0.155,0.125
1455,-0.170,0.135
1456,-0.165,0.155
1457,-0.170,0.165
1458,-0.135,0.165
1459,-0.160,0.160
1460,-0.160,0.140
1461,-0.160,0.150
1462,-0.150,0.165
1463,-0.145,0.170
1464,-0.145,0.175
1465,-0.165,0.145
1466,-0.170,0.150
1467,-0.170,0.150
1468,-0.160,0.160
1469,-0.145,0.190
1470,-0.130,0.175
1471,-0.150,0.155
1472,-0.175,0.145
1473,-0.170,0.150
1474,-0.170,0.165
1475,-0.160,0.190
1476,-0.150,0.180
1477,-0.150,0.165
1478,-0.160,0.145
1479,-0.165,0.165
1480,-0.160,0.160
1481,-0.150,0.175
1482,-0.145,0.165
1483,-0.145,0.140
1484,-0.180,0.135
1485,-0.155,0.135
1486,-0.150,0.145
1487,-0.155,0.160
1488,-0.130,0.165
1489,-0.150,0.140
1490,-0.170,0.130
1491,-0.160,0.120
1492,-0.140,0.145
1493,-0.150,0.160
1494,-0.135,0.140
1495,-0.140,0.125
1496,-0.145,0.105
1497,-0.155,0.110
1498,-0.150,0.125
1499,-0.120,0.120
1500,-0.100,0.135
1501,-0.115,0.105
1502,-0.135,0.090
1503,-0.130,0.090
1504,-0.130,0.110
1505,-0.120,0.120
1506,-0.130,0.120
1507,-0.130,0.115
1508,-0.130,0.105
1509,-0.145,0.095
1510,-0.135,0.110
1511,-0.120,0.120
1512,-0.125,0.115
1513,-0.115,0.115
1514,-0.140,0.095
1515,-0.140,0.095
1516,-0.135,0.110
1517,-0.125,0.130
1518,-0.125,0.110
1519,-0.125,0.095
1520,-0.140,0.075
1521,-0.140,0.100
1522,-0.130,0.125
1523,-0.110,0.130
1524,-0.080,0.130
1525,-0.105,0.115
1526,-0.105,0.105
1527,-0.125,0.110
1528,-0.130,0.130
1529,-0.130,0.135
1530,-0.090,0.135
1531,-0.100,0.140
1532,-0.105,0.140
1533,-0.105,0.145
1534,-0.090,0.180
1535,-0.080,0.195
1536,-0.070,0.180
1537,-0.070,0.170
1538,-0.080,0.170
1539,-0.080,0.200
1540,-0.090,0.210
1541,-0.055,0.230
1542,-0.045,0.230
1543,-0.065,0.220
1544,-0.070,0.210
1545,-0.080,0.185
1546,-0.065,0.200
1547,-0.055,0.200
1548,-0.045,0.170
1549,-0.065,0.125
1550,-0.095,0.095
1551,-0.110,0.100
1552,-0.100,0.095
1553,-0.080,0.120
1554,-0.075,0.115
1555,-0.090,0.090
1556,-0.115,0.085
1557,-0.125,0.090
1558,-0.125,0.110
1559,-0.115,0.130
1560,-0.110,0.115
1561,-0.125,0.090
1562,-0.140,0.075
1563,-0.155,0.060
1564,-0.145,0.085
1565,-0.160,0.100
1566,-0.160,0.100
1567,-0.150,0.100
1568,-0.160,0.070
1569,-0.150,0.080
1570,-0.155,0.080
1571,-0.150,0.090
1572,-0.145,0.085
1573,-0.150,0.060
1574,-0.160,0.055
1575,-0.150,0.070
1576,-0.160,0.075
1577,-0.140,0.085
1578,-0.130,0.075
1579,-0.135,0.050
1580,-0.135,0.040
1581,-0.135,0.045
1582,-0.125,0.060
1583,-0.100,0.070
1584,-0.095,0.080
1585,-0.115,0.065
1586,-0.120,0.055
1587,-0.115,0.070
1588,-0.100,0.105
1589,-0.085,0.155
1590,-0.080,0.185
1591,-0.100,0.160
1592,-0.110,0.155
1593,-0.060,0.085
1594,0.065,0.035
1595,0.225,-0.035
1596,0.320,-0.125
1597,0.385,-0.265
1598,0.435,-0.445
1599,0.520,-0.615
1600,0.660,-0.745
1601,0.845,-0.860
1602,1.055,-0.980
1603,1.260,-1.070
1604,1.460,-1.130
1605,1.670,-1.180
1606,1.880,-1.200
1607,2.015,-1.210
1608,2.045,-1.220
1609,1.980,-1.250
1610,1.785,-1.265
1611,1.470,-1.270
1612,1.125,-1.250
1613,0.835,-1.215
1614,0.665,-1.160
1615,0.545,-1.105
1616,0.460,-1.030
1617,0.415,-0.930
1618,0.395,-0.790
1619,0.410,-0.660
1620,0.405,-0.565
1621,0.355,-0.485
1622,0.300,-0.410
1623,0.260,-0.350
1624,0.215,-0.275
1625,0.190,-0.195
1626,0.160,-0.145
1627,0.110,-0.090
1628,0.075,-0.065
1629,0.020,-0.005
1630,0.010,0.045
1631,-0.025,0.085
1632,-0.050,0.130
1633,-0.085,0.160
1634,-0.135,0.200
1635,-0.170,0.235
1636,-0.190,0.280
1637,-0.200,0.335
1638,-0.220,0.330
1639,-0.245,0.340
1640,-0.275,0.330
1641,-0.300,0.365
1642,-0.295,0.385
1643,-0.290,0.405
1644,-0.270,0.410
1645,-0.290,0.405
1646,-0.310,0.405
1647,-0.335,0.410
1648,-0.315,0.430
1649,-0.305,0.465
1650,-0.290,0.455
1651,-0.320,0.445
1652,-0.340,0.440
1653,-0.340,0.475
1654,-0.355,0.510
1655,-0.335,0.530
1656,-0.320,0.540
1657,-0.335,0.535
1658,-0.355,0.535
1659,-0.360,0.550
1660,-0.365,0.560
1661,-0.365,0.595
1662,-0.380,0.605
1663,-0.365,0.605
1664,-0.380,0.600
1665,-0.380,0.630
1666,-0.390,0.655
1667,-0.390,0.685
1668,-0.385,0.680
1669,-0.390,0.680
1670,-0.420,0.695
1671,-0.420,0.730
1672,-0.410,0.760
1673,-0.420,0.800
1674,-0.430,0.815
1675,-0.445,0.805
1676,-0.470,0.840
1677,-0.475,0.850
1678,-0.470,0.880
1679,-0.465,0.905
1680,-0.470,0.935
1681,-0.505,0.915
1682,-0.530,0.905
1683,-0.530,0.920
1684,-0.530,0.935
1685,-0.510,0.965
1686,-0.510,0.960
1687,-0.525,0.950
1688,-0.545,0.950
1689,-0.565,0.950
1690,-0.580,0.955
1691,-0.570,0.970
1692,-0.555,0.940
1693,-0.560,0.920
1694,-0.590,0.890
1695,-0.600,0.870
1696,-0.585,0.870
1697,-0.570,0.860
1698,-0.550,0.815
1699,-0.540,0.780
1700,-0.550,0.745
1701,-0.540,0.710
1702,-0.520,0.685
1703,-0.495,0.675
1704,-0.465,0.630
1705,-0.460,0.600
1706,-0.455,0.550
1707,-0.435,0.515
1708,-0.395,0.495
1709,-0.370,0.460
1710,-0.335,0.420
1711,-0.320,0.360
1712,-0.300,0.320
1713,-0.275,0.305
1714,-0.250,0.290
1715,-0.205,0.285
1716,-0.190,0.265
1717,-0.180,0.220
1718,-0.200,0.195
1719,-0.175,0.185
1720,-0.165,0.190
1721,-0.145,0.185
1722,-0.130,0.170
1723,-0.115,0.150
1724,-0.135,0.130
1725,-0.140,0.125
1726,-0.135,0.125
1727,-0.120,0.135
1728,-0.110,0.130
1729,-0.115,0.120
1730,-0.115,0.105
1731,-0.140,0.110
1732,-0.140,0.110
1733,-0.120,0.120
1734,-0.120,0.115
1735,-0.130,0.095
1736,-0.145,0.080
1737,-0.130,0.070
1738,-0.135,0.090
1739,-0.130,0.130
1740,-0.125,0.115
1741,-0.125,0.100
1742,-0.140,0.080
1743,-0.150,0.085
1744,-0.135,0.090
1745,-0.120,0.100
1746,-0.115,0.095
1747,-0.135,0.090
1748,-0.150,0.085
1749,-0.160,0.085
1750,-0.145,0.115
1751,-0.130,0.115
1752,-0.120,0.105
1753,-0.135,0.090
1754,-0.140,0.090
1755,-0.160,0.085
1756,-0.165,0.095
1757,-0.145,0.125
1758,-0.135,0.110
1759,-0.135,0.100
1760,-0.135,0.090
1761,-0.145,0.080
1762,-0.150,0.120
1763,-0.145,0.120
1764,-0.125,0.115
1765,-0.125,0.110
1766,-0.145,0.095
1767,-0.145,0.105
1768,-0.140,0.120
1769,-0.120,0.145
1770,-0.130,0.120
1771,-0.145,0.115
1772,-0.165,0.105
1773,-0.150,0.115
1774,-0.140,0.135
1775,-0.135,0.150
1776,-0.135,0.140
1777,-0.140,0.125
1778,-0.145,0.115
1779,-0.160,0.105
1780,-0.140,0.110
1781,-0.130,0.140
1782,-0.110,0.125
1783,-0.125,0.110
1784,-0.130,0.105
1785,-0.145,0.115
1786,-0.140,0.105
1787,-0.115,0.110
1788,-0.105,0.110
1789,-0.120,0.105
1790,-0.120,0.090
1791,-0.140,0.100
1792,-0.130,0.100
1793,-0.120,0.125
1794,-0.110,0.115
1795,-0.110,0.100
1796,-0.120,0.085
1797,-0.120,0.070
1798,-0.110,0.075
1799,-0.105,0.090
1800,-0.115,0.065
1801,-0.115,0.075
1802,-0.135,0.050
1803,-0.135,0.050
1804,-0.130,0.070
1805,-0.105,0.080
1806,-0.115,0.070
1807,-0.125,0.050
1808,-0.150,0.045
1809,-0.140,0.060
1810,-0.140,0.060
1811,-0.115,0.090
1812,-0.120,0.080
1813,-0.120,0.060
1814,-0.150,0.045
1815,-0.155,0.045
1816,-0.145,0.055
1817,-0.135,0.065
1818,-0.125,0.060
1819,-0.115,0.045
1820,-0.130,0.040
1821,-0.135,0.030
1822,-0.130,0.050
1823,-0.120,0.060
1824,-0.110,0.060
1825,-0.110,0.045
1826,-0.130,0.035
1827,-0.125,0.050
1828,-0.130,0.070
1829,-0.115,0.075
1830,-0.090,0.055
1831,-0.085,0.040
1832,-0.100,0.030
1833,-0.100,0.045
1834,-0.075,0.060
1835,-0.065,0.090
1836,-0.060,0.080
1837,-0.070,0.070
1838,-0.070,0.070
1839,-0.065,0.085
1840,-0.055,0.100
1841,-0.050,0.120
1842,-0.025,0.125
1843,-0.050,0.115
1844,-0.050,0.100
1845,-0.060,0.090
1846,-0.040,0.095
1847,-0.035,0.075
1848,-0.030,0.075
1849,-0.070,0.050
1850,-0.085,0.015
1851,-0.100,0.020
1852,-0.100,0.020
1853,-0.080,0.040
1854,-0.070,0.030
1855,-0.075,0.010
1856,-0.085,0.000
1857,-0.125,0.000
1858,-0.130,0.010
1859,-0.125,0.010
1860,-0.105,0.010
1861,-0.125,-0.005
1862,-0.140,-0.030
1863,-0.155,0.000
1864,-0.155,-0.010
1865,-0.165,-0.005
1866,-0.135,0.000
1867,-0.135,-0.015
1868,-0.140,-0.025
1869,-0.140,-0.015
1870,-0.140,-0.005
1871,-0.135,0.000
1872,-0.135,0.000
1873,-0.145,-0.025
1874,-0.150,-0.035
1875,-0.165,-0.025
1876,-0.145,0.005
1877,-0.135,0.005
1878,-0.110,-0.010
1879,-0.110,-0.020
1880,-0.130,-0.040
1881,-0.120,-0.045
1882,-0.100,-0.030
1883,-0.090,-0.005
1884,-0.085,0.000
1885,-0.085,0.010
1886,-0.090,0.015
1887,-0.100,0.030
1888,-0.080,0.050
1889,-0.060,0.025
1890,-0.015,-0.045
1891,0.045,-0.175
1892,0.155,-0.315
1893,0.280,-0.495
1894,0.385,-0.650
1895,0.500,-0.775
1896,0.605,-0.925
1897,0.715,-1.045
1898,0.860,-1.160
1899,1.040,-1.220
1900,1.230,-1.260
1901,1.385,-1.280
1902,1.540,-1.320
1903,1.670,-1.345
1904,1.815,-1.330
1905,1.960,-1.295
1906,2.060,-1.250
1907,2.075,-1.215
1908,2.005,-1.185
1909,1.795,-1.205
1910,1.455,-1.165
1911,1.100,-1.110
1912,0.805,-1.030
1913,0.655,-0.950
1914,0.585,-0.900
1915,0.535,-0.815
1916,0.510,-0.725
1917,0.470,-0.650
1918,0.445,-0.560
1919,0.420,-0.490
1920,0.390,-0.460
1921,0.340,-0.410
1922,0.290,-0.390
1923,0.250,-0.315
1924,0.190,-0.235
1925,0.165,-0.150
1926,0.115,-0.095
1927,0.070,-0.055
1928,0.005,-0.025
1929,-0.055,0.020
1930,-0.065,0.075
1931,-0.105,0.140
1932,-0.130,0.175
1933,-0.185,0.180
1934,-0.230,0.205
1935,-0.240,0.210
1936,-0.265,0.235
1937,-0.255,0.250
1938,-0.270,0.245
1939,-0.255,0.255
1940,-0.285,0.255
1941,-0.305,0.265
1942,-0.310,0.310
1943,-0.300,0.325
1944,-0.295,0.340
1945,-0.315,0.355
1946,-0.330,0.320
1947,-0.335,0.330
1948,-0.335,0.350
1949,-0.310,0.390
1950,-0.305,0.400
1951,-0.330,0.395
1952,-0.350,0.380
1953,-0.365,0.390
1954,-0.350,0.420
1955,-0.355,0.445
1956,-0.360,0.450
1957,-0.375,0.440
1958,-0.380,0.440
1959,-0.375,0.470
1960,-0.375,0.515
1961,-0.375,0.540
1962,-0.365,0.550
1963,-0.385,0.530
1964,-0.410,0.560
1965,-0.420,0.575
1966,-0.410,0.620
1967,-0.400,0.645
1968,-0.400,0.655
1969,-0.425,0.655
1970,-0.460,0.635
1971,-0.465,0.665
1972,-0.450,0.690
1973,-0.440,0.710
1974,-0.430,0.745
1975,-0.455,0.750
1976,-0.475,0.750
1977,-0.500,0.775
1978,-0.495,0.795
1979,-0.490,0.840
1980,-0.490,0.820
1981,-0.500,0.820
1982,-0.520,0.820
1983,-0.545,0.825
1984,-0.545,0.845
1985,-0.540,0.865
1986,-0.535,0.865
1987,-0.545,0.855
1988,-0.565,0.825
1989,-0.580,0.825
1990,-0.585,0.810
1991,-0.575,0.835
1992,-0.565,0.805
1993,-0.550,0.790
1994,-0.570,0.755
1995,-0.575,0.730
1996,-0.570,0.710
1997,-0.565,0.700
1998,-0.550,0.665
1999,-0.530,0.610
2000,-0.525,0.580
2001,-0.515,0.525
2002,-0.480,0.490
2003,-0.440,0.485
2004,-0.430,0.435
2005,-0.425,0.410
2006,-0.400,0.375
2007,-0.380,0.340
2008,-0.345,0.325
2009,-0.315,0.315
2010,-0.290,0.270
2011,-0.315,0.235
2012,-0.280,0.190
2013,-0.275,0.160
2014,-0.240,0.150
2015,-0.200,0.145
2016,-0.180,0.120
2017,-0.185,0.090
2018,-0.200,0.055
2019,-0.205,0.055
2020,-0.175,0.055
2021,-0.160,0.050
2022,-0.125,0.040
2023,-0.135,0.030
2024,-0.155,0.005
2025,-0.155,0.000
2026,-0.160,0.015
2027,-0.145,0.015
2028,-0.140,0.005
2029,-0.145,-0.010
2030,-0.150,-0.020
2031,-0.165,-0.020
2032,-0.155,-0.010
2033,-0.150,0.010
2034,-0.145,0.010
2035,-0.160,-0.015
2036,-0.170,-0.015
2037,-0.160,-0.020
2038,-0.145,-0.015
2039,-0.130,0.005
2040,-0.135,-0.005
2041,-0.155,-0.025
2042,-0.160,-0.010
2043,-0.150,-0.025
2044,-0.140,-0.010
2045,-0.130,0.005
2046,-0.130,0.000
2047,-0.160,-0.015
2048,-0.160,-0.025
2049,-0.175,-0.025
2050,-0.160,-0.005
2051,-0.150,0.025
2052,-0.140,0.025
2053,-0.140,0.010
2054,-0.165,-0.025
2055,-0.180,-0.020
2056,-0.190,-0.010
2057,-0.170,0.015
2058,-0.155,0.020
2059,-0.160,0.005
2060,-0.175,0.015
2061,-0.210,0.015
2062,-0.190,0.035
2063,-0.180,0.035
2064,-0.160,0.025
2065,-0.170,0.000
2066,-0.185,0.000
2067,-0.180,0.010
2068,-0.165,0.020
2069,-0.165,0.010
2070,-0.155,0.030
2071,-0.185,0.005
2072,-0.190,-0.005
2073,-0.190,0.000
2074,-0.175,0.010
2075,-0.165,0.045
2076,-0.165,0.025
2077,-0.185,0.015
2078,-0.195,0.005
2079,-0.195,-0.005
2080,-0.165,-0.005
2081,-0.145,0.030
2082,-0.145,0.015
2083,-0.150,0.000
2084,-0.185,0.000
2085,-0.195,0.000
2086,-0.185,0.025
2087,-0.180,0.020
2088,-0.170,0.015
2089,-0.155,0.005
2090,-0.170,-0.010
2091,-0.180,-0.005
2092,-0.180,0.005
2093,-0.160,0.015
2094,-0.145,0.010
2095,-0.160,0.005
2096,-0.165,-0.020
2097,-0.180,-0.020
2098,-0.170,-0.010
2099,-0.180,-0.010
2100,-0.160,-0.020
2101,-0.175,-0.010
2102,-0.175,0.005
2103,-0.165,-0.005
2104,-0.155,0.010
2105,-0.150,0.025
2106,-0.130,0.025
2107,-0.140,0.010
2108,-0.150,0.000
2109,-0.130,0.000
2110,-0.110,0.035
2111,-0.105,0.050
2112,-0.090,0.050
2113,-0.075,0.040
2114,-0.060,0.035
2115,-0.050,0.060
2116,-0.025,0.075
2117,0.010,0.100
2118,0.055,0.115
2119,0.085,0.120
2120,0.100,0.130
2121,0.150,0.160
2122,0.225,0.205
2123,0.335,0.225
2124,0.425,0.240
2125,0.535,0.245
2126,0.580,0.260
2127,0.610,0.315
2128,0.665,0.375
2129,0.740,0.435
2130,0.785,0.485
2131,0.850,0.555
2132,0.890,0.605
2133,0.930,0.675
2134,0.975,0.790
2135,0.990,0.925
2136,1.005,1.100
2137,0.975,1.310
2138,0.930,1.540
2139,0.845,1.725
2140,0.670,1.845
2141,0.325,1.935
2142,-0.110,1.945
2143,-0.610,1.980
2144,-1.010,1.985
2145,-1.295,2.025
2146,-1.465,2.050
2147,-1.600,2.100
2148,-1.675,2.090
2149,-1.720,2.065
2150,-1.710,2.005
2151,-1.660,1.935
2152,-1.625,1.855
2153,-1.575,1.790
2154,-1.530,1.665
2155,-1.450,1.520
2156,-1.380,1.410
2157,-1.335,1.305
2158,-1.315,1.220
2159,-1.280,1.130
2160,-1.230,1.075
2161,-1.185,1.045
2162,-1.165,1.055
2163,-1.135,1.080
2164,-1.095,1.115
2165,-1.050,1.160
2166,-1.020,1.145
2167,-1.030,1.125
2168,-1.030,1.065
2169,-1.035,0.995
2170,-1.025,0.900
2171,-0.980,0.780
2172,-0.935,0.620
2173,-0.870,0.465
2174,-0.810,0.330
2175,-0.735,0.180
2176,-0.640,0.055
2177,-0.535,-0.050
2178,-0.460,-0.140
2179,-0.360,-0.250
2180,-0.305,-0.305
2181,-0.265,-0.340
2182,-0.230,-0.355
2183,-0.195,-0.365
2184,-0.155,-0.415
2185,-0.140,-0.480
2186,-0.115,-0.530
2187,-0.105,-0.570
2188,-0.090,-0.570
2189,-0.060,-0.585
2190,-0.050,-0.620
2191,-0.050,-0.655
2192,-0.025,-0.695
2193,-0.020,-0.710
2194,-0.005,-0.715
2195,0.030,-0.735
2196,0.055,-0.770
2197,0.070,-0.805
2198,0.075,-0.825
2199,0.075,-0.830
2200,0.085,-0.830
2201,0.105,-0.870
2202,0.110,-0.890
2203,0.135,-0.930
2204,0.165,-0.975
2205,0.190,-1.005
2206,0.220,-1.010
2207,0.245,-1.020
2208,0.270,-1.050
2209,0.290,-1.100
2210,0.310,-1.145
2211,0.340,-1.185
2212,0.380,-1.190
2213,0.415,-1.205
2214,0.440,-1.235
2215,0.475,-1.265
2216,0.480,-1.285
2217,0.515,-1.300
2218,0.535,-1.330
2219,0.575,-1.335
2220,0.600,-1.360
2221,0.630,-1.395
2222,0.650,-1.430
2223,0.675,-1.445
2224,0.695,-1.440
2225,0.750,-1.440
2226,0.785,-1.455
2227,0.795,-1.470
2228,0.805,-1.495
2229,0.810,-1.480
2230,0.840,-1.455
2231,0.875,-1.450
2232,0.890,-1.460
2233,0.885,-1.450
2234,0.870,-1.450
2235,0.855,-1.410
2236,0.855,-1.370
2237,0.880,-1.325
2238,0.890,-1.295
2239,0.870,-1.265
2240,0.835,-1.240
2241,0.800,-1.200
2242,0.795,-1.130
2243,0.795,-1.075
2244,0.765,-1.025
2245,0.745,-0.975
2246,0.700,-0.955
2247,0.655,-0.925
2248,0.630,-0.865
2249,0.625,-0.815
2250,0.605,-0.755
2251,0.565,-0.715
2252,0.515,-0.685
2253,0.465,-0.610
2254,0.430,-0.535
2255,0.400,-0.475
2256,0.365,-0.460
2257,0.310,-0.420
2258,0.265,-0.395
2259,0.220,-0.345
2260,0.180,-0.295
2261,0.155,-0.245
2262,0.130,-0.240
2263,0.105,-0.220
2264,0.075,-0.230
2265,0.030,-0.205
2266,-0.010,-0.180
2267,0.010,-0.145
2268,-0.010,-0.130
2269,-0.020,-0.125
2270,-0.040,-0.150
2271,-0.060,-0.125
2272,-0.065,-0.110
2273,-0.065,-0.095
2274,-0.075,-0.090
2275,-0.085,-0.095
2276,-0.105,-0.095
2277,-0.125,-0.080
2278,-0.105,-0.070
2279,-0.095,-0.050
2280,-0.095,-0.040
2281,-0.120,-0.070
2282,-0.130,-0.085
2283,-0.130,-0.080
2284,-0.135,-0.050
2285,-0.105,-0.020
2286,-0.105,-0.035
2287,-0.130,-0.040
2288,-0.145,-0.065
2289,-0.165,-0.070
2290,-0.165,-0.050
2291,-0.135,-0.015
2292,-0.140,-0.030
2293,-0.140,-0.035
2294,-0.160,-0.050
2295,-0.170,-0.055
2296,-0.175,-0.025
2297,-0.160,-0.010
2298,-0.140,0.000
2299,-0.165,-0.005
2300,-0.160,-0.010
2301,-0.175,-0.015
2302,-0.180,-0.015
2303,-0.155,0.000
2304,-0.145,-0.005
2305,-0.140,0.000
2306,-0.160,-0.030
2307,-0.180,-0.030
2308,-0.190,-0.015
2309,-0.180,0.005
2310,-0.180,0.000
2311,-0.180,-0.005
2312,-0.170,-0.030
2313,-0.170,-0.020
2314,-0.165,-0.005
2315,-0.175,0.025
2316,-0.185,0.025
2317,-0.180,0.005
2318,-0.190,-0.015
2319,-0.185,-0.010
2320,-0.170,-0.015
2321,-0.160,0.015
2322,-0.170,0.005
2323,-0.180,-0.015
2324,-0.205,-0.020
2325,-0.190,-0.015
2326,-0.170,0.035
2327,-0.155,0.025
2328,-0.155,0.035
2329,-0.155,-0.015
2330,-0.170,-0.025
2331,-0.185,-0.025
2332,-0.180,0.005
2333,-0.175,0.015
2334,-0.165,0.010
2335,-0.175,0.010
2336,-0.190,-0.005
2337,-0.200,0.000
2338,-0.205,0.010
2339,-0.185,0.020
2340,-0.175,0.005
2341,-0.170,0.010
2342,-0.175,0.005
2343,-0.195,0.015
2344,-0.195,0.020
2345,-0.185,0.035
2346,-0.170,0.025
2347,-0.170,0.015
2348,-0.180,0.005
2349,-0.200,0.025
2350,-0.200,0.020
2351,-0.185,0.045
2352,-0.170,0.045
2353,-0.180,0.035
2354,-0.180,0.010
2355,-0.180,0.005
2356,-0.180,0.020
2357,-0.170,0.045
2358,-0.170,0.020
2359,-0.180,0.010
2360,-0.195,-0.010
2361,-0.215,0.000
2362,-0.205,0.015
2363,-0.190,0.010
2364,-0.180,0.010
2365,-0.180,0.010
2366,-0.190,0.000
2367,-0.200,-0.005
2368,-0.185,0.020
2369,-0.175,0.020
2370,-0.175,0.020
2371,-0.185,0.005
2372,-0.220,-0.015
2373,-0.215,0.000
2374,-0.210,0.005
2375,-0.175,0.035
2376,-0.170,0.025
2377,-0.180,-0.005
2378,-0.190,0.005
2379,-0.215,-0.005
2380,-0.210,0.015
2381,-0.185,0.020
2382,-0.180,0.020
2383,-0.180,0.020
2384,-0.195,-0.020
2385,-0.215,-0.010
2386,-0.200,0.000
2387,-0.185,0.015
2388,-0.160,0.010
2389,-0.160,0.000
2390,-0.175,-0.025
2391,-0.185,-0.005
2392,-0.185,0.010
2393,-0.175,0.030
2394,-0.160,0.015
2395,-0.165,0.000
2396,-0.190,-0.010
2397,-0.185,0.005
2398,-0.185,0.020
2399,-0.170,0.030
2400,-0.170,0.040
2401,-0.170,0.015
2402,-0.170,0.000
2403,-0.185,-0.005
2404,-0.185,0.000
2405,-0.170,0.030
2406,-0.165,0.020
2407,-0.160,0.020
2408,-0.165,0.005
2409,-0.160,0.015
2410,-0.135,0.005
2411,-0.115,0.030
2412,-0.095,0.035
2413,-0.115,0.030
2414,-0.120,0.035
2415,-0.130,0.030
2416,-0.115,0.060
2417,-0.100,0.070
2418,-0.090,0.060
2419,-0.100,0.060
2420,-0.100,0.020
2421,-0.105,0.025
2422,-0.090,0.040
2423,-0.080,0.035
2424,-0.070,0.045
2425,-0.090,0.025
2426,-0.110,0.005
2427,-0.110,-0.010
2428,-0.100,0.005
2429,-0.100,0.020
2430,-0.075,0.005
2431,-0.105,0.000
2432,-0.140,-0.015
2433,-0.170,-0.015
2434,-0.160,-0.025
2435,-0.140,-0.015
2436,-0.140,-0.010
2437,-0.165,-0.025
2438,-0.175,-0.040
2439,-0.190,-0.040
2440,-0.185,-0.020
2441,-0.180,-0.015
2442,-0.180,-0.035
2443,-0.165,-0.050
2444,-0.165,-0.045
2445,-0.180,-0.050
2446,-0.190,-0.015
2447,-0.170,0.005
2448,-0.175,0.015
2449,-0.175,-0.020
2450,-0.175,-0.035
2451,-0.185,-0.040
2452,-0.175,-0.025
2453,-0.165,-0.010
2454,-0.150,-0.015
2455,-0.165,-0.025
2456,-0.170,-0.030
2457,-0.170,-0.035
2458,-0.155,-0.010
2459,-0.135,0.010
2460,-0.125,0.025
2461,-0.130,0.045
2462,-0.145,0.055
2463,-0.155,0.045
2464,-0.125,0.015
2465,-0.060,-0.035
2466,0.055,-0.150
2467,0.175,-0.290
2468,0.265,-0.450
2469,0.380,-0.595
2470,0.515,-0.705
2471,0.655,-0.805
2472,0.830,-0.935
2473,1.025,-1.040
2474,1.230,-1.125
2475,1.440,-1.160
2476,1.660,-1.165
2477,1.870,-1.160
2478,2.010,-1.200
2479,2.070,-1.225
2480,2.085,-1.230
2481,2.045,-1.220
2482,1.970,-1.195
2483,1.750,-1.165
2484,1.375,-1.145
2485,0.950,-1.105
2486,0.625,-1.060
2487,0.470,-0.970
2488,0.425,-0.855
2489,0.400,-0.740
2490,0.385,-0.635
2491,0.345,-0.585
2492,0.270,-0.550
2493,0.225,-0.495
2494,0.180,-0.435
2495,0.160,-0.370
2496,0.120,-0.310
2497,0.085,-0.255
2498,0.060,-0.210
2499,0.030,-0.160
2500,0.010,-0.095
2501,-0.005,-0.040
2502,-0.045,-0.010
2503,-0.115,0.035
2504,-0.155,0.070
2505,-0.195,0.115
2506,-0.215,0.170
2507,-0.230,0.225
2508,-0.255,0.225
2509,-0.290,0.240
2510,-0.335,0.245
2511,-0.345,0.260
2512,-0.330,0.280
2513,-0.310,0.305
2514,-0.305,0.300
2515,-0.330,0.300
2516,-0.355,0.300
2517,-0.395,0.305
2518,-0.405,0.335
2519,-0.380,0.370
2520,-0.365,0.365
2521,-0.375,0.385
2522,-0.385,0.370
2523,-0.405,0.380
2524,-0.400,0.400
2525,-0.390,0.425
2526,-0.380,0.425
2527,-0.390,0.415
2528,-0.415,0.420
2529,-0.425,0.440
2530,-0.420,0.470
2531,-0.405,0.480
2532,-0.390,0.505
2533,-0.400,0.490
2534,-0.425,0.505
2535,-0.425,0.525
2536,-0.445,0.550
2537,-0.440,0.575
2538,-0.440,0.590
2539,-0.450,0.615
2540,-0.475,0.600
2541,-0.470,0.635
2542,-0.465,0.655
2543,-0.475,0.685
2544,-0.485,0.700
2545,-0.495,0.710
2546,-0.505,0.705
2547,-0.525,0.705
2548,-0.505,0.750
2549,-0.500,0.770
2550,-0.515,0.780
2551,-0.545,0.780
2552,-0.570,0.785
2553,-0.575,0.815
2554,-0.565,0.810
2555,-0.555,0.830
2556,-0.580,0.840
2557,-0.595,0.830
2558,-0.610,0.810
2559,-0.630,0.815
2560,-0.620,0.840
2561,-0.605,0.850
2562,-0.605,0.820
2563,-0.630,0.790
2564,-0.650,0.770
2565,-0.645,0.755
2566,-0.650,0.750
2567,-0.620,0.745
2568,-0.600,0.720
2569,-0.600,0.660
2570,-0.610,0.625
2571,-0.610,0.580
2572,-0.580,0.570
2573,-0.540,0.540
2574,-0.500,0.520
2575,-0.490,0.465
2576,-0.480,0.425
2577,-0.460,0.400
2578,-0.450,0.380
2579,-0.410,0.365
2580,-0.375,0.330
2581,-0.350,0.280
2582,-0.335,0.230
2583,-0.330,0.215
2584,-0.300,0.215
2585,-0.270,0.190
2586,-0.230,0.170
2587,-0.205,0.140
2588,-0.200,0.100
2589,-0.200,0.090
2590,-0.180,0.085
2591,-0.155,0.110
2592,-0.160,0.085
2593,-0.140,0.075
2594,-0.145,0.035
2595,-0.150,0.050
2596,-0.160,0.055
2597,-0.145,0.070
2598,-0.140,0.060
2599,-0.135,0.025
2600,-0.160,0.020
2601,-0.155,0.020
2602,-0.155,0.030
2603,-0.145,0.035
2604,-0.130,0.035
2605,-0.160,0.020
2606,-0.170,0.010
2607,-0.175,0.025
2608,-0.160,0.045
2609,-0.155,0.045
2610,-0.150,0.040
2611,-0.165,0.045
2612,-0.185,0.030
2613,-0.185,0.025
2614,-0.180,0.050
2615,-0.160,0.055
2616,-0.155,0.055
2617,-0.145,0.050
2618,-0.180,0.045
2619,-0.190,0.055
2620,-0.170,0.065
2621,-0.155,0.085
2622,-0.135,0.075
2623,-0.160,0.070
2624,-0.180,0.070
2625,-0.190,0.070
2626,-0.165,0.090
2627,-0.155,0.110
2628,-0.140,0.100
2629,-0.150,0.090
2630,-0.160,0.070
2631,-0.185,0.090
2632,-0.165,0.090
2633,-0.145,0.115
2634,-0.140,0.115
2635,-0.140,0.095
2636,-0.155,0.085
2637,-0.150,0.090
2638,-0.170,0.105
2639,-0.160,0.120
2640,-0.150,0.115
2641,-0.155,0.120
2642,-0.145,0.095
2643,-0.145,0.090
2644,-0.150,0.095
2645,-0.135,0.110
2646,-0.130,0.105
2647,-0.130,0.100
2648,-0.135,0.085
2649,-0.140,0.085
2650,-0.140,0.080
2651,-0.120,0.110
2652,-0.120,0.090
2653,-0.130,0.070
2654,-0.150,0.060
2655,-0.165,0.075
2656,-0.155,0.085
2657,-0.135,0.100
2658,-0.140,0.085
2659,-0.135,0.060
2660,-0.170,0.040
2661,-0.155,0.040
2662,-0.150,0.075
2663,-0.145,0.100
2664,-0.125,0.080
2665,-0.145,0.060
2666,-0.155,0.030
2667,-0.165,0.040
2668,-0.165,0.060
2669,-0.155,0.060
2670,-0.135,0.060
2671,-0.165,0.040
2672,-0.175,0.035
2673,-0.185,0.045
2674,-0.170,0.050
2675,-0.150,0.055
2676,-0.145,0.035
2677,-0.150,0.035
2678,-0.175,0.025
2679,-0.155,0.035
2680,-0.155,0.025
2681,-0.135,0.050
2682,-0.115,0.030
2683,-0.110,0.025
2684,-0.115,0.000
2685,-0.115,0.005
2686,-0.090,0.025
2687,-0.080,0.055
2688,-0.065,0.055
2689,-0.065,0.035
2690,-0.080,0.025
2691,-0.090,0.025
2692,-0.080,0.040
2693,-0.070,0.045
2694,-0.055,0.040
2695,-0.060,0.015
2696,-0.075,0.000
2697,-0.080,0.010
2698,-0.060,0.030
2699,-0.065,0.035
2700,-0.065,0.030
2701,-0.065,-0.005
2702,-0.095,-0.005
2703,-0.105,-0.005
2704,-0.095,0.020
2705,-0.080,0.035
2706,-0.085,0.030
2707,-0.100,-0.005
2708,-0.125,-0.015
2709,-0.150,-0.015
2710,-0.140,0.010
2711,-0.145,0.015
2712,-0.140,0.025
2713,-0.160,0.000
2714,-0.180,0.000
2715,-0.195,0.005
2716,-0.180,0.000
2717,-0.165,0.010
2718,-0.155,-0.005
2719,-0.150,-0.015
2720,-0.165,-0.020
2721,-0.185,-0.015
2722,-0.180,0.025
2723,-0.170,0.040
2724,-0.170,0.015
2725,-0.170,0.015
2726,-0.170,0.005
2727,-0.185,0.005
2728,-0.185,0.010
2729,-0.165,0.035
2730,-0.165,0.035
2731,-0.160,0.015
2732,-0.160,-0.010
2733,-0.155,0.010
2734,-0.150,0.020
2735,-0.135,0.040
2736,-0.125,0.045
2737,-0.130,0.050
2738,-0.150,0.080
2739,-0.150,0.090
2740,-0.140,0.085
2741,-0.090,0.030
2742,-0.010,-0.070
2743,0.075,-0.185
2744,0.165,-0.350
2745,0.265,-0.505
2746,0.380,-0.635
2747,0.500,-0.755
2748,0.610,-0.880
2749,0.735,-1.000
2750,0.870,-1.105
2751,1.060,-1.175
2752,1.245,-1.205
2753,1.445,-1.220
2754,1.620,-1.245
2755,1.750,-1.245
2756,1.835,-1.240
2757,1.890,-1.190
2758,1.915,-1.150
2759,1.935,-1.130
2760,1.860,-1.115
2761,1.650,-1.120
2762,1.340,-1.085
2763,1.025,-1.035
2764,0.785,-0.960
2765,0.640,-0.880
2766,0.555,-0.830
2767,0.480,-0.745
2768,0.440,-0.665
2769,0.415,-0.590
2770,0.385,-0.515
2771,0.370,-0.455
2772,0.335,-0.405
2773,0.285,-0.385
2774,0.235,-0.355
2775,0.180,-0.320
2776,0.145,-0.245
2777,0.135,-0.185
2778,0.120,-0.120
2779,0.080,-0.085
2780,0.025,-0.030
2781,-0.025,0.020
2782,-0.075,0.070
2783,-0.090,0.125
2784,-0.120,0.175
2785,-0.150,0.190
2786,-0.205,0.195
2787,-0.240,0.230
2788,-0.260,0.265
2789,-0.280,0.300
2790,-0.300,0.320
2791,-0.315,0.310
2792,-0.340,0.305
2793,-0.350,0.315
2794,-0.345,0.340
2795,-0.340,0.375
2796,-0.345,0.370
2797,-0.370,0.365
2798,-0.375,0.370
2799,-0.395,0.385
2800,-0.380,0.390
2801,-0.375,0.435
2802,-0.360,0.430
2803,-0.395,0.430
2804,-0.410,0.420
2805,-0.430,0.430
2806,-0.425,0.460
2807,-0.400,0.480
2808,-0.395,0.490
2809,-0.430,0.490
2810,-0.435,0.490
2811,-0.440,0.500
2812,-0.430,0.515
2813,-0.430,0.530
2814,-0.415,0.540
2815,-0.425,0.535
2816,-0.440,0.540
2817,-0.450,0.555
2818,-0.450,0.605
2819,-0.445,0.630
2820,-0.450,0.630
2821,-0.455,0.630
2822,-0.465,0.630
2823,-0.480,0.660
2824,-0.480,0.685
2825,-0.480,0.715
2826,-0.475,0.720
2827,-0.495,0.720
2828,-0.525,0.740
2829,-0.535,0.745
2830,-0.530,0.765
2831,-0.515,0.785
2832,-0.500,0.810
2833,-0.515,0.805
2834,-0.540,0.810
2835,-0.565,0.810
2836,-0.565,0.855
2837,-0.560,0.880
2838,-0.565,0.885
2839,-0.565,0.875
2840,-0.585,0.875
2841,-0.605,0.875
2842,-0.600,0.895
2843,-0.610,0.915
2844,-0.610,0.915
2845,-0.625,0.915
2846,-0.630,0.890
2847,-0.645,0.890
2848,-0.640,0.870
2849,-0.645,0.895
2850,-0.625,0.880
2851,-0.645,0.850
2852,-0.655,0.820
2853,-0.670,0.805
2854,-0.635,0.800
2855,-0.615,0.790
2856,-0.590,0.770
2857,-0.600,0.730
2858,-0.605,0.685
2859,-0.600,0.670
2860,-0.585,0.645
2861,-0.550,0.625
2862,-0.520,0.595
2863,-0.505,0.555
2864,-0.495,0.515
2865,-0.490,0.475
2866,-0.470,0.470
2867,-0.445,0.435
2868,-0.405,0.425
2869,-0.375,0.390
2870,-0.375,0.355
2871,-0.355,0.330
2872,-0.335,0.315
2873,-0.310,0.320
2874,-0.290,0.275
2875,-0.295,0.235
2876,-0.280,0.210
2877,-0.275,0.180
2878,-0.240,0.185
2879,-0.210,0.180
2880,-0.205,0.160
2881,-0.200,0.140
2882,-0.215,0.140
2883,-0.225,0.130
2884,-0.210,0.125
2885,-0.160,0.140
2886,-0.150,0.115
2887,-0.155,0.095
2888,-0.190,0.085
2889,-0.190,0.075
2890,-0.185,0.090
2891,-0.160,0.100
2892,-0.155,0.105
2893,-0.160,0.085
2894,-0.160,0.070
2895,-0.180,0.065
2896,-0.175,0.080
2897,-0.165,0.085
2898,-0.180,0.085
2899,-0.175,0.075
2900,-0.175,0.060
2901,-0.185,0.065
2902,-0.165,0.095
2903,-0.160,0.095
2904,-0.160,0.090
2905,-0.170,0.080
2906,-0.185,0.080
2907,-0.195,0.085
2908,-0.185,0.110
2909,-0.160,0.120
2910,-0.145,0.130
2911,-0.170,0.100
2912,-0.170,0.080
2913,-0.180,0.095
2914,-0.185,0.105
2915,-0.170,0.120
2916,-0.165,0.120
2917,-0.170,0.110
2918,-0.180,0.110
2919,-0.195,0.120
2920,-0.185,0.125
2921,-0.180,0.130
2922,-0.155,0.130
2923,-0.165,0.105
2924,-0.200,0.100
2925,-0.195,0.120
2926,-0.200,0.120
2927,-0.190,0.130
2928,-0.180,0.125
2929,-0.180,0.125
2930,-0.215,0.110
2931,-0.225,0.115
2932,-0.200,0.115
2933,-0.165,0.140
2934,-0.160,0.145
2935,-0.160,0.125
2936,-0.195,0.095
2937,-0.215,0.115
2938,-0.200,0.135
2939,-0.175,0.145
2940,-0.170,0.135
2941,-0.175,0.135
2942,-0.160,0.100
2943,-0.190,0.115
2944,-0.175,0.130
2945,-0.170,0.135
2946,-0.170,0.130
2947,-0.155,0.120
2948,-0.170,0.120
2949,-0.175,0.120
2950,-0.195,0.115
2951,-0.175,0.115
2952,-0.170,0.110
2953,-0.170,0.105
2954,-0.185,0.095
2955,-0.195,0.085
2956,-0.175,0.100
2957,-0.175,0.115
2958,-0.155,0.115
2959,-0.170,0.090
2960,-0.180,0.080
2961,-0.195,0.085
2962,-0.185,0.105
2963,-0.165,0.120
2964,-0.155,0.115
2965,-0.155,0.095
2966,-0.160,0.070
2967,-0.175,0.070
2968,-0.185,0.075
2969,-0.180,0.090
2970,-0.155,0.075
2971,-0.160,0.075
2972,-0.170,0.075
2973,-0.175,0.055
2974,-0.160,0.085
2975,-0.155,0.085
2976,-0.140,0.085
2977,-0.155,0.060
2978,-0.170,0.055
2979,-0.180,0.040
2980,-0.160,0.050
2981,-0.150,0.080
2982,-0.135,0.065
2983,-0.140,0.060
2984,-0.145,0.050
2985,-0.145,0.045
2986,-0.140,0.060
2987,-0.110,0.060
2988,-0.080,0.060
2989,-0.080,0.055
2990,-0.095,0.040
2991,-0.105,0.060
2992,-0.120,0.085
2993,-0.095,0.100
2994,-0.095,0.070
2995,-0.110,0.075
2996,-0.105,0.070
2997,-0.115,0.070
2998,-0.095,0.085
2999,-0.080,0.090
3000,-0.055,0.085
3001,-0.060,0.070
3002,-0.080,0.045
3003,-0.070,0.065
3004,-0.075,0.060
3005,-0.070,0.065
3006,-0.055,0.050
3007,-0.065,0.055
3008,-0.090,0.035
3009,-0.100,0.030
3010,-0.085,0.045
3011,-0.070,0.075
3012,-0.055,0.065
3013,-0.065,0.035
3014,-0.075,0.040
3015,-0.090,0.040
3016,-0.095,0.045
3017,-0.090,0.055
3018,-0.090,0.030
3019,-0.125,0.025
3020,-0.135,0.020
3021,-0.140,0.015
3022,-0.140,0.015
3023,-0.145,0.035
3024,-0.145,0.030
3025,-0.140,0.000
3026,-0.165,-0.005
3027,-0.155,-0.005
3028,-0.140,0.000
3029,-0.130,0.015
3030,-0.105,0.030
3031,-0.115,0.015
3032,-0.140,0.025
3033,-0.155,0.005
3034,-0.155,0.030
3035,-0.135,0.050
3036,-0.140,0.045
3037,-0.145,0.020
3038,-0.140,0.025
3039,-0.155,0.030
3040,-0.155,0.035
3041,-0.140,0.040
3042,-0.130,0.055
3043,-0.130,0.040
3044,-0.145,0.025
3045,-0.145,0.025
3046,-0.135,0.035
3047,-0.120,0.050
3048,-0.100,0.045
3049,-0.110,0.055
3050,-0.125,0.055
3051,-0.150,0.075
3052,-0.145,0.100
3053,-0.125,0.120
3054,-0.110,0.120
3055,-0.090,0.100
3056,-0.060,0.035
3057,-0.005,-0.045
3058,0.095,-0.135
3059,0.200,-0.240
3060,0.300,-0.340
3061,0.380,-0.485
3062,0.450,-0.620
3063,0.550,-0.740
3064,0.655,-0.835
3065,0.800,-0.930
3066,0.935,-1.020
3067,1.100,-1.105
3068,1.245,-1.160
3069,1.390,-1.195
3070,1.560,-1.210
3071,1.720,-1.235
3072,1.830,-1.255
3073,1.870,-1.265
3074,1.875,-1.255
3075,1.865,-1.230
3076,1.825,-1.215
3077,1.750,-1.170
3078,1.630,-1.175
3079,1.430,-1.150
3080,1.170,-1.125
3081,0.930,-1.090
3082,0.720,-1.000
3083,0.580,-0.925
3084,0.500,-0.860
3085,0.435,-0.790
3086,0.395,-0.715
3087,0.370,-0.625
3088,0.345,-0.525
3089,0.355,-0.450
3090,0.325,-0.405
3091,0.275,-0.375
3092,0.220,-0.325
3093,0.165,-0.280
3094,0.125,-0.225
3095,0.115,-0.180
3096,0.105,-0.145
3097,0.090,-0.120
3098,0.060,-0.080
3099,0.030,-0.030
3100,0.005,0.010
3101,-0.020,0.060
3102,-0.070,0.095
3103,-0.095,0.110
3104,-0.130,0.145
3105,-0.175,0.195
3106,-0.205,0.235
3107,-0.225,0.270
3108,-0.235,0.305
3109,-0.290,0.300
3110,-0.305,0.305
3111,-0.330,0.320
3112,-0.340,0.345
3113,-0.335,0.365
3114,-0.320,0.350
3115,-0.330,0.355
3116,-0.350,0.350
3117,-0.375,0.360
3118,-0.370,0.375
3119,-0.370,0.400
3120,-0.360,0.410
3121,-0.360,0.410
3122,-0.365,0.405
3123,-0.380,0.420
3124,-0.390,0.440
3125,-0.390,0.455
3126,-0.380,0.470
3127,-0.380,0.460
3128,-0.405,0.455
3129,-0.405,0.470
3130,-0.410,0.495
3131,-0.415,0.530
3132,-0.405,0.510
3133,-0.420,0.505
3134,-0.435,0.515
3135,-0.445,0.515
3136,-0.455,0.555
3137,-0.430,0.565
3138,-0.410,0.575
3139,-0.410,0.585
3140,-0.435,0.590
3141,-0.465,0.595
3142,-0.465,0.620
3143,-0.455,0.645
3144,-0.445,0.665
3145,-0.460,0.680
3146,-0.480,0.680
3147,-0.495,0.700
3148,-0.510,0.720
3149,-0.495,0.750
3150,-0.500,0.765
3151,-0.490,0.775
3152,-0.520,0.775
3153,-0.530,0.785
3154,-0.520,0.800
3155,-0.530,0.835
3156,-0.530,0.835
3157,-0.555,0.830
3158,-0.565,0.840
3159,-0.590,0.850
3160,-0.585,0.870
3161,-0.570,0.885
3162,-0.570,0.890
3163,-0.590,0.900
3164,-0.620,0.880
3165,-0.640,0.900
3166,-0.645,0.905
3167,-0.625,0.915
3168,-0.615,0.915
3169,-0.620,0.885
3170,-0.650,0.860
3171,-0.665,0.845
3172,-0.660,0.830
3173,-0.645,0.835
3174,-0.640,0.830
3175,-0.645,0.800
3176,-0.635,0.765
3177,-0.625,0.750
3178,-0.605,0.740
3179,-0.590,0.715
3180,-0.580,0.680
3181,-0.575,0.640
3182,-0.575,0.595
3183,-0.535,0.560
3184,-0.515,0.550
3185,-0.465,0.520
3186,-0.440,0.475
3187,-0.415,0.435
3188,-0.405,0.385
3189,-0.395,0.350
3190,-0.375,0.340
3191,-0.335,0.335
3192,-0.290,0.305
3193,-0.275,0.275
3194,-0.285,0.240
3195,-0.265,0.230
3196,-0.250,0.230
3197,-0.220,0.200
3198,-0.205,0.190
3199,-0.190,0.170
3200,-0.190,0.145
3201,-0.190,0.140
3202,-0.175,0.135
3203,-0.175,0.155
3204,-0.150,0.145
3205,-0.150,0.115
3206,-0.140,0.090
3207,-0.155,0.105
3208,-0.135,0.090
3209,-0.130,0.115
3210,-0.120,0.115
3211,-0.130,0.095
3212,-0.145,0.095
3213,-0.135,0.100
3214,-0.130,0.115
3215,-0.105,0.125
3216,-0.085,0.135
3217,-0.075,0.125
3218,-0.075,0.130
3219,-0.055,0.155
3220,-0.020,0.190
3221,0.050,0.245
3222,0.140,0.270
3223,0.220,0.295
3224,0.310,0.325
3225,0.395,0.365
3226,0.500,0.425
3227,0.630,0.495
3228,0.745,0.565
3229,0.865,0.620
3230,0.955,0.645
3231,1.040,0.710
3232,1.115,0.775
3233,1.200,0.830
3234,1.250,0.860
3235,1.295,0.890
3236,1.295,0.900
3237,1.245,0.950
3238,1.140,1.005
3239,0.930,1.070
3240,0.620,1.125
3241,0.240,1.140
3242,-0.120,1.170
3243,-0.435,1.165
3244,-0.695,1.140
3245,-0.890,1.130
3246,-1.065,1.080
3247,-1.180,1.040
3248,-1.310,0.990
3249,-1.400,0.965
3250,-1.460,0.955
3251,-1.530,0.940
3252,-1.590,0.920
3253,-1.675,0.880
3254,-1.735,0.860
3255,-1.795,0.860
3256,-1.840,0.870
3257,-1.855,0.905
3258,-1.890,0.905
3259,-1.905,0.890
3260,-1.935,0.880
3261,-1.960,0.865
3262,-1.960,0.850
3263,-1.920,0.830
3264,-1.855,0.775
3265,-1.785,0.730
3266,-1.670,0.690
3267,-1.510,0.685
3268,-1.355,0.680
3269,-1.210,0.710
3270,-1.105,0.690
3271,-1.035,0.680
3272,-0.990,0.665
3273,-0.930,0.670
3274,-0.885,0.670
3275,-0.840,0.685
3276,-0.795,0.675
3277,-0.765,0.645
3278,-0.735,0.620
3279,-0.750,0.575
3280,-0.720,0.530
3281,-0.685,0.465
3282,-0.600,0.395
3283,-0.545,0.300
3284,-0.510,0.240
3285,-0.470,0.165
3286,-0.420,0.125
3287,-0.350,0.100
3288,-0.310,0.045
3289,-0.270,-0.030
3290,-0.230,-0.090
3291,-0.200,-0.130
3292,-0.165,-0.130
3293,-0.105,-0.150
3294,-0.060,-0.175
3295,-0.045,-0.225
3296,-0.055,-0.265
3297,-0.050,-0.285
3298,-0.005,-0.295
3299,0.035,-0.325
3300,0.075,-0.355
3301,0.085,-0.400
3302,0.085,-0.420
3303,0.095,-0.420
3304,0.115,-0.430
3305,0.135,-0.445
3306,0.185,-0.460
3307,0.205,-0.495
3308,0.220,-0.530
3309,0.240,-0.555
3310,0.250,-0.560
3311,0.285,-0.550
3312,0.335,-0.575
3313,0.325,-0.605
3314,0.350,-0.620
3315,0.345,-0.635
3316,0.390,-0.640
3317,0.430,-0.650
3318,0.490,-0.675
3319,0.500,-0.710
3320,0.510,-0.725
3321,0.515,-0.745
3322,0.555,-0.750
3323,0.600,-0.740
3324,0.640,-0.765
3325,0.665,-0.790
3326,0.680,-0.810
3327,0.700,-0.835
3328,0.720,-0.830
3329,0.745,-0.825
3330,0.780,-0.835
3331,0.810,-0.865
3332,0.830,-0.870
3333,0.865,-0.885
3334,0.895,-0.865
3335,0.925,-0.850
3336,0.935,-0.850
3337,0.955,-0.870
3338,0.950,-0.880
3339,0.945,-0.880
3340,0.990,-0.865
3341,1.020,-0.840
3342,1.050,-0.845
3343,1.060,-0.855
3344,1.075,-0.850
3345,1.070,-0.845
3346,1.085,-0.830
3347,1.100,-0.805
3348,1.135,-0.795
3349,1.150,-0.770
3350,1.140,-0.775
3351,1.135,-0.740
3352,1.135,-0.730
3353,1.140,-0.705
3354,1.150,-0.705
3355,1.125,-0.705
3356,1.130,-0.720
3357,1.115,-0.690
3358,1.120,-0.655
3359,1.115,-0.615
3360,1.115,-0.595
3361,1.095,-0.590
3362,1.060,-0.575
3363,1.025,-0.540
3364,1.000,-0.510
3365,1.005,-0.470
3366,0.980,-0.450
3367,0.965,-0.440
3368,0.910,-0.415
3369,0.875,-0.400
3370,0.845,-0.350
3371,0.830,-0.310
3372,0.805,-0.295
3373,0.765,-0.275
3374,0.725,-0.265
3375,0.690,-0.250
3376,0.660,-0.210
3377,0.635,-0.180
3378,0.595,-0.170
3379,0.560,-0.165
3380,0.535,-0.160
3381,0.495,-0.145
3382,0.475,-0.105
3383,0.440,-0.070
3384,0.425,-0.065
3385,0.385,-0.065
3386,0.335,-0.055
3387,0.285,-0.040
3388,0.250,-0.015
3389,0.235,0.010
3390,0.215,0.015
3391,0.190,0.015
3392,0.145,0.020
3393,0.105,0.015
3394,0.100,0.035
3395,0.075,0.060
3396,0.055,0.055
3397,0.040,0.035
3398,0.015,0.025
3399,0.000,0.025
3400,0.005,0.040
3401,0.015,0.065
3402,0.000,0.070
3403,-0.020,0.050
3404,-0.050,0.035
3405,-0.070,0.030
3406,-0.085,0.040
3407,-0.060,0.065
3408,-0.050,0.055
3409,-0.050,0.060
3410,-0.075,0.040
3411,-0.110,0.055
3412,-0.120,0.060
3413,-0.100,0.075
3414,-0.100,0.065
3415,-0.110,0.050
3416,-0.125,0.030
3417,-0.145,0.040
3418,-0.130,0.050
3419,-0.125,0.060
3420,-0.110,0.070
3421,-0.135,0.060
3422,-0.145,0.045
3423,-0.145,0.045
3424,-0.145,0.060
3425,-0.140,0.060
3426,-0.135,0.065
3427,-0.145,0.055
3428,-0.165,0.045
3429,-0.160,0.035
3430,-0.165,0.055
3431,-0.170,0.075
3432,-0.150,0.065
3433,-0.155,0.055
3434,-0.160,0.035
3435,-0.185,0.060
3436,-0.180,0.060
3437,-0.165,0.065
3438,-0.150,0.065
3439,-0.170,0.055
3440,-0.180,0.030
3441,-0.210,0.045
3442,-0.210,0.065
3443,-0.190,0.070
3444,-0.170,0.085
3445,-0.175,0.050
3446,-0.195,0.050
3447,-0.205,0.050
3448,-0.215,0.065
3449,-0.195,0.080
3450,-0.195,0.070
3451,-0.215,0.045
3452,-0.220,0.040
3453,-0.215,0.055
3454,-0.200,0.055
3455,-0.200,0.075
3456,-0.195,0.070
3457,-0.210,0.045
3458,-0.230,0.030
3459,-0.240,0.035
3460,-0.220,0.035
3461,-0.200,0.055
3462,-0.195,0.060
3463,-0.200,0.030
3464,-0.210,0.030
3465,-0.230,0.040
3466,-0.225,0.030
3467,-0.230,0.065
3468,-0.220,0.055
3469,-0.220,0.050
3470,-0.225,0.040
3471,-0.245,0.030
3472,-0.255,0.055
3473,-0.230,0.050
3474,-0.230,0.075
3475,-0.240,0.040
3476,-0.255,0.030
3477,-0.250,0.020
3478,-0.250,0.025
3479,-0.225,0.045
3480,-0.230,0.065
3481,-0.225,0.045
3482,-0.240,0.035
3483,-0.260,0.050
3484,-0.255,0.050
3485,-0.250,0.065
3486,-0.230,0.060
3487,-0.240,0.045
3488,-0.255,0.030
3489,-0.265,0.040
3490,-0.265,0.050
3491,-0.260,0.055
3492,-0.245,0.060
3493,-0.250,0.055
3494,-0.260,0.035
3495,-0.275,0.045
3496,-0.260,0.040
3497,-0.250,0.055
3498,-0.245,0.050
3499,-0.255,0.055
3500,-0.260,0.030
3501,-0.280,0.035
3502,-0.270,0.040
3503,-0.230,0.075
3504,-0.235,0.080
3505,-0.240,0.055
3506,-0.260,0.030
3507,-0.265,0.045
3508,-0.260,0.040
3509,-0.270,0.065
3510,-0.250,0.060
3511,-0.250,0.065
3512,-0.260,0.035
3513,-0.270,0.035
3514,-0.270,0.055
3515,-0.255,0.070
3516,-0.245,0.065
3517,-0.235,0.050
3518,-0.250,0.040
3519,-0.265,0.040
3520,-0.260,0.060
3521,-0.255,0.075
3522,-0.250,0.070
3523,-0.270,0.055
3524,-0.285,0.045
3525,-0.275,0.030
3526,-0.260,0.045
3527,-0.245,0.055
3528,-0.230,0.055
3529,-0.240,0.055
3530,-0.250,0.035
3531,-0.270,0.040
3532,-0.260,0.060
3533,-0.245,0.070
3534,-0.245,0.060
3535,-0.235,0.040
3536,-0.240,0.020
3537,-0.255,0.040
3538,-0.255,0.060
3539,-0.245,0.060
3540,-0.225,0.060
3541,-0.235,0.055
3542,-0.255,0.025
3543,-0.260,0.035
3544,-0.255,0.040
3545,-0.240,0.065
3546,-0.235,0.060
3547,-0.245,0.050
3548,-0.255,0.035
3549,-0.250,0.040
3550,-0.245,0.055
3551,-0.230,0.055
3552,-0.220,0.060
3553,-0.230,0.060
3554,-0.255,0.035
3555,-0.255,0.035
3556,-0.245,0.045
3557,-0.230,0.070
3558,-0.225,0.070
3559,-0.225,0.065
3560,-0.255,0.055
3561,-0.250,0.035
3562,-0.250,0.055
3563,-0.230,0.085
3564,-0.230,0.080
3565,-0.225,0.050
3566,-0.225,0.040
3567,-0.240,0.035
3568,-0.250,0.060
3569,-0.240,0.065
3570,-0.215,0.075
3571,-0.215,0.065
3572,-0.235,0.045
3573,-0.235,0.050
3574,-0.235,0.060
3575,-0.230,0.085
3576,-0.210,0.065
3577,-0.215,0.055
3578,-0.230,0.035
3579,-0.230,0.045
3580,-0.235,0.055
3581,-0.215,0.065
3582,-0.210,0.065
3583,-0.225,0.055
3584,-0.230,0.050
3585,-0.235,0.050
3586,-0.225,0.050
3587,-0.205,0.055
3588,-0.185,0.070
3589,-0.200,0.060
3590,-0.215,0.050
3591,-0.230,0.050
3592,-0.210,0.075
3593,-0.200,0.075
3594,-0.200,0.065
3595,-0.210,0.070
3596,-0.225,0.050
3597,-0.245,0.055
3598,-0.240,0.065
3599,-0.210,0.085
3600,-0.195,0.070
3601,-0.195,0.065
3602,-0.210,0.035
3603,-0.215,0.035
3604,-0.220,0.050
3605,-0.190,0.060
3606,-0.190,0.070
3607,-0.200,0.055
3608,-0.200,0.045
3609,-0.210,0.050
3610,-0.205,0.065
3611,-0.210,0.065
3612,-0.190,0.055
3613,-0.180,0.045
3614,-0.180,0.050
3615,-0.200,0.045
3616,-0.190,0.050
3617,-0.150,0.070
3618,-0.125,0.060
3619,-0.140,0.050
3620,-0.150,0.020
3621,-0.155,0.040
3622,-0.135,0.050
3623,-0.120,0.075
3624,-0.100,0.075
3625,-0.110,0.065
3626,-0.130,0.050
3627,-0.125,0.040
3628,-0.115,0.045
3629,-0.095,0.045
3630,-0.080,0.065
3631,-0.090,0.035
3632,-0.115,0.025
3633,-0.145,0.020
3634,-0.135,0.050
3635,-0.125,0.070
3636,-0.105,0.055
3637,-0.100,0.030
3638,-0.115,0.025
3639,-0.115,0.025
3640,-0.120,0.050
3641,-0.135,0.070
3642,-0.120,0.060
3643,-0.130,0.040
3644,-0.140,0.025
3645,-0.155,0.025
3646,-0.165,0.035
3647,-0.165,0.040
3648,-0.180,0.045
3649,-0.180,0.040
3650,-0.205,0.025
3651,-0.210,0.025
3652,-0.190,0.050
3653,-0.170,0.050
3654,-0.150,0.035
3655,-0.165,0.045
3656,-0.180,0.025
3657,-0.210,0.030
3658,-0.195,0.055
3659,-0.185,0.085
3660,-0.170,0.060
3661,-0.165,0.065
3662,-0.180,0.040
3663,-0.200,0.040
3664,-0.190,0.050
3665,-0.185,0.060
3666,-0.160,0.060
3667,-0.185,0.045
3668,-0.180,0.035
3669,-0.170,0.045
3670,-0.180,0.075
3671,-0.180,0.095
3672,-0.160,0.085
3673,-0.175,0.100
3674,-0.170,0.100
3675,-0.175,0.090
3676,-0.160,0.085
3677,-0.120,0.020
3678,-0.020,-0.065
3679,0.060,-0.205
3680,0.165,-0.355
3681,0.255,-0.515
3682,0.340,-0.655
3683,0.470,-0.755
3684,0.585,-0.865
3685,0.710,-0.965
3686,0.855,-1.065
3687,1.040,-1.115
3688,1.235,-1.150
3689,1.415,-1.155
3690,1.590,-1.170
3691,1.730,-1.205
3692,1.845,-1.205
3693,1.925,-1.170
3694,2.000,-1.140
3695,2.030,-1.095
3696,2.015,-1.075
3697,1.920,-1.075
3698,1.705,-1.065
3699,1.380,-1.025
3700,1.055,-0.965
3701,0.805,-0.895
3702,0.665,-0.850
3703,0.565,-0.790
3704,0.505,-0.710
3705,0.450,-0.640
3706,0.440,-0.550
3707,0.420,-0.480
3708,0.390,-0.435
3709,0.340,-0.405
3710,0.275,-0.375
3711,0.220,-0.330
3712,0.190,-0.290
3713,0.180,-0.225
3714,0.165,-0.170
3715,0.140,-0.110
3716,0.085,-0.070
3717,0.030,-0.030
3718,0.000,0.015
3719,-0.030,0.060
3720,-0.055,0.105
3721,-0.100,0.140
3722,-0.140,0.170
3723,-0.165,0.220
3724,-0.215,0.255
3725,-0.220,0.295
3726,-0.250,0.315
3727,-0.275,0.310
3728,-0.310,0.305
3729,-0.335,0.330
3730,-0.360,0.335
3731,-0.345,0.365
3732,-0.330,0.380
3733,-0.345,0.380
3734,-0.365,0.380
3735,-0.385,0.380
3736,-0.405,0.420
3737,-0.380,0.415
3738,-0.370,0.435
3739,-0.375,0.410
3740,-0.410,0.425
3741,-0.420,0.430
3742,-0.430,0.450
3743,-0.415,0.480
3744,-0.405,0.490
3745,-0.410,0.485
3746,-0.415,0.470
3747,-0.425,0.475
3748,-0.425,0.500
3749,-0.425,0.535
3750,-0.425,0.545
3751,-0.445,0.535
3752,-0.450,0.525
3753,-0.475,0.545
3754,-0.450,0.570
3755,-0.440,0.590
3756,-0.445,0.600
3757,-0.465,0.605
3758,-0.465,0.610
3759,-0.480,0.620
3760,-0.480,0.680
3761,-0.475,0.695
3762,-0.465,0.705
3763,-0.495,0.705
3764,-0.505,0.710
3765,-0.525,0.715
3766,-0.520,0.750
3767,-0.520,0.785
3768,-0.500,0.790
3769,-0.525,0.790
3770,-0.555,0.785
3771,-0.565,0.805
3772,-0.565,0.835
3773,-0.570,0.850
3774,-0.560,0.845
3775,-0.570,0.835
3776,-0.585,0.855
3777,-0.600,0.850
3778,-0.610,0.875
3779,-0.620,0.890
3780,-0.610,0.890
3781,-0.635,0.865
3782,-0.645,0.855
3783,-0.645,0.860
3784,-0.650,0.875
3785,-0.660,0.880
3786,-0.650,0.890
3787,-0.665,0.865
3788,-0.705,0.830
3789,-0.675,0.815
3790,-0.670,0.815
3791,-0.650,0.810
3792,-0.625,0.775
3793,-0.620,0.740
3794,-0.635,0.705
3795,-0.630,0.685
3796,-0.600,0.670
3797,-0.570,0.650
3798,-0.545,0.610
3799,-0.525,0.585
3800,-0.515,0.535
3801,-0.500,0.505
3802,-0.470,0.475
3803,-0.420,0.470
3804,-0.385,0.435
3805,-0.355,0.385
3806,-0.360,0.365
3807,-0.335,0.340
3808,-0.315,0.350
3809,-0.275,0.325
3810,-0.250,0.320
3811,-0.230,0.295
3812,-0.225,0.240
3813,-0.215,0.220
3814,-0.205,0.210
3815,-0.170,0.230
3816,-0.150,0.200
3817,-0.140,0.195
3818,-0.140,0.175
3819,-0.150,0.155
3820,-0.145,0.160
3821,-0.135,0.175
3822,-0.140,0.170
3823,-0.125,0.150
3824,-0.130,0.140
3825,-0.110,0.125
3826,-0.135,0.150
3827,-0.115,0.175
3828,-0.120,0.160
3829,-0.135,0.150
3830,-0.145,0.110
3831,-0.160,0.145
3832,-0.155,0.150
3833,-0.135,0.175
3834,-0.135,0.170
3835,-0.130,0.170
3836,-0.155,0.155
3837,-0.165,0.155
3838,-0.170,0.165
3839,-0.150,0.165
3840,-0.145,0.180
3841,-0.160,0.175
3842,-0.180,0.160
3843,-0.185,0.165
3844,-0.180,0.175
3845,-0.165,0.185
3846,-0.145,0.180
3847,-0.170,0.170
3848,-0.165,0.150
3849,-0.195,0.155
3850,-0.190,0.170
3851,-0.175,0.195
3852,-0.155,0.190
3853,-0.160,0.175
3854,-0.160,0.155
3855,-0.170,0.160
3856,-0.185,0.170
3857,-0.180,0.185
3858,-0.160,0.205
3859,-0.160,0.180
3860,-0.160,0.160
3861,-0.155,0.165
3862,-0.145,0.165
3863,-0.160,0.185
3864,-0.165,0.185
3865,-0.170,0.175
3866,-0.170,0.160
3867,-0.180,0.155
3868,-0.165,0.155
3869,-0.170,0.185
3870,-0.155,0.165
3871,-0.160,0.145
3872,-0.170,0.130
3873,-0.190,0.135
3874,-0.160,0.150
3875,-0.150,0.155
3876,-0.150,0.155
3877,-0.170,0.140
3878,-0.165,0.125
3879,-0.180,0.130
3880,-0.180,0.120
3881,-0.175,0.155
3882,-0.145,0.155
3883,-0.160,0.135
3884,-0.180,0.110
3885,-0.190,0.105
3886,-0.195,0.130
3887,-0.175,0.125
3888,-0.155,0.110
3889,-0.145,0.105
3890,-0.160,0.090
3891,-0.170,0.095
3892,-0.155,0.120
3893,-0.150,0.130
3894,-0.140,0.120
3895,-0.140,0.115
3896,-0.135,0.090
3897,-0.130,0.080
3898,-0.130,0.085
3899,-0.120,0.105
3900,-0.115,0.115
3901,-0.110,0.090
3902,-0.120,0.075
3903,-0.120,0.095
3904,-0.115,0.105
3905,-0.105,0.120
3906,-0.095,0.110
3907,-0.095,0.095
3908,-0.095,0.095
3909,-0.080,0.095
3910,-0.080,0.100
3911,-0.070,0.120
3912,-0.075,0.105
3913,-0.090,0.085
3914,-0.105,0.040
3915,-0.130,0.045
3916,-0.115,0.070
3917,-0.095,0.090
3918,-0.070,0.090
3919,-0.085,0.060
3920,-0.130,0.050
3921,-0.155,0.030
3922,-0.145,0.045
3923,-0.130,0.060
3924,-0.115,0.060
3925,-0.120,0.040
3926,-0.145,0.020
3927,-0.190,0.025
3928,-0.210,0.030
3929,-0.205,0.035
3930,-0.180,0.040
3931,-0.165,0.020
3932,-0.190,0.005
3933,-0.200,0.025
3934,-0.190,0.035
3935,-0.180,0.060
3936,-0.180,0.050
3937,-0.185,0.035
3938,-0.225,0.025
3939,-0.220,0.030
3940,-0.220,0.040
3941,-0.210,0.050
3942,-0.200,0.045
3943,-0.200,0.035
3944,-0.190,0.005
3945,-0.200,0.020
3946,-0.195,0.030
3947,-0.205,0.045
3948,-0.190,0.035
3949,-0.180,0.030
3950,-0.200,0.035
3951,-0.195,0.050
3952,-0.195,0.095
3953,-0.185,0.135
3954,-0.165,0.135
3955,-0.180,0.125
3956,-0.185,0.065
3957,-0.165,0.010
3958,-0.050,-0.055
3959,0.085,-0.135
3960,0.210,-0.235
3961,0.300,-0.360
3962,0.375,-0.485
3963,0.455,-0.605
3964,0.565,-0.705
3965,0.680,-0.805
3966,0.845,-0.935
3967,1.020,-1.015
3968,1.210,-1.080
3969,1.420,-1.100
3970,1.615,-1.125
3971,1.780,-1.130
3972,1.880,-1.150
3973,1.870,-1.170
3974,1.760,-1.185
3975,1.565,-1.190
3976,1.280,-1.175
3977,0.970,-1.140
3978,0.695,-1.100
3979,0.495,-1.060
3980,0.385,-1.005
3981,0.305,-0.930
3982,0.275,-0.840
3983,0.275,-0.715
3984,0.315,-0.600
3985,0.295,-0.520
3986,0.250,-0.475
3987,0.205,-0.415
3988,0.170,-0.345
3989,0.130,-0.270
3990,0.120,-0.225
3991,0.075,-0.190
3992,0.020,-0.155
3993,-0.010,-0.110
3994,-0.040,-0.060
3995,-0.050,-0.015
3996,-0.070,0.020
3997,-0.110,0.045
3998,-0.155,0.060
3999,-0.200,0.090
4000,-0.210,0.150
4001,-0.235,0.190
4002,-0.255,0.220
4003,-0.285,0.240
4004,-0.330,0.235
4005,-0.365,0.270
4006,-0.365,0.275
4007,-0.375,0.300
4008,-0.360,0.300
4009,-0.370,0.295
4010,-0.390,0.315
4011,-0.405,0.330
4012,-0.415,0.345
4013,-0.410,0.380
4014,-0.375,0.375
4015,-0.395,0.365
4016,-0.430,0.370
4017,-0.440,0.365
4018,-0.435,0.380
4019,-0.425,0.400
4020,-0.410,0.425
4021,-0.420,0.415
4022,-0.430,0.415
4023,-0.450,0.410
4024,-0.450,0.435
4025,-0.430,0.475
4026,-0.420,0.475
4027,-0.420,0.470
4028,-0.440,0.485
4029,-0.455,0.515
4030,-0.475,0.535
4031,-0.455,0.550
4032,-0.455,0.540
4033,-0.460,0.545
4034,-0.475,0.545
4035,-0.495,0.550
4036,-0.485,0.595
4037,-0.485,0.615
4038,-0.485,0.640
4039,-0.495,0.650
4040,-0.520,0.645
4041,-0.515,0.670
4042,-0.525,0.720
4043,-0.530,0.735
4044,-0.535,0.755
4045,-0.545,0.755
4046,-0.565,0.770
4047,-0.575,0.790
4048,-0.580,0.810
4049,-0.580,0.820
4050,-0.575,0.815
4051,-0.590,0.805
4052,-0.610,0.810
4053,-0.640,0.825
4054,-0.630,0.840
4055,-0.610,0.880
4056,-0.615,0.855
4057,-0.620,0.850
4058,-0.640,0.820
4059,-0.670,0.820
4060,-0.660,0.815
4061,-0.640,0.835
4062,-0.615,0.825
4063,-0.630,0.795
4064,-0.630,0.765
4065,-0.650,0.745
4066,-0.635,0.730
4067,-0.625,0.705
4068,-0.600,0.675
4069,-0.585,0.640
4070,-0.580,0.620
4071,-0.565,0.590
4072,-0.545,0.570
4073,-0.535,0.545
4074,-0.510,0.500
4075,-0.500,0.435
4076,-0.490,0.395
4077,-0.475,0.360
4078,-0.425,0.315
4079,-0.400,0.320
4080,-0.345,0.300
4081,-0.320,0.265
4082,-0.310,0.210
4083,-0.315,0.190
4084,-0.300,0.175
4085,-0.280,0.170
4086,-0.270,0.155
4087,-0.255,0.135
4088,-0.255,0.105
4089,-0.250,0.085
4090,-0.230,0.090
4091,-0.225,0.095
4092,-0.210,0.095
4093,-0.215,0.085
4094,-0.235,0.065
4095,-0.260,0.060
4096,-0.240,0.060
4097,-0.210,0.080
4098,-0.205,0.065
4099,-0.200,0.040
4100,-0.225,0.010
4101,-0.240,0.030
4102,-0.220,0.045
4103,-0.210,0.065
4104,-0.195,0.070
4105,-0.210,0.055
4106,-0.220,0.030
4107,-0.240,0.035
4108,-0.250,0.055
4109,-0.225,0.065
4110,-0.225,0.065
4111,-0.225,0.050
4112,-0.245,0.035
4113,-0.255,0.035
4114,-0.250,0.045
4115,-0.225,0.075
4116,-0.210,0.075
4117,-0.210,0.065
4118,-0.240,0.050
4119,-0.260,0.070
4120,-0.255,0.065
4121,-0.230,0.070
4122,-0.190,0.060
4123,-0.200,0.050
4124,-0.225,0.040
4125,-0.235,0.040
4126,-0.245,0.060
4127,-0.215,0.075
4128,-0.210,0.070
4129,-0.200,0.045
4130,-0.210,0.025
4131,-0.225,0.040
4132,-0.230,0.045
4133,-0.215,0.055
4134,-0.205,0.050
4135,-0.210,0.035
4136,-0.220,0.030
4137,-0.245,0.020
4138,-0.240,0.040
4139,-0.235,0.055
4140,-0.210,0.055
4141,-0.205,0.035
4142,-0.210,0.025
4143,-0.215,0.015
4144,-0.230,0.030
4145,-0.225,0.030
4146,-0.215,0.020
4147,-0.200,0.010
4148,-0.205,0.000
4149,-0.225,-0.005
4150,-0.225,0.020
4151,-0.215,0.035
4152,-0.215,0.025
4153,-0.205,0.010
4154,-0.210,0.000
4155,-0.210,0.015
4156,-0.200,0.025
4157,-0.210,0.025
4158,-0.200,0.015
4159,-0.195,0.010
4160,-0.190,-0.020
4161,-0.170,-0.010
4162,-0.160,0.010
4163,-0.145,0.035
4164,-0.145,0.025
4165,-0.130,0.010
4166,-0.155,-0.015
4167,-0.155,0.000
4168,-0.140,0.020
4169,-0.130,0.035
4170,-0.120,0.030
4171,-0.130,0.015
4172,-0.145,-0.010
4173,-0.135,0.005
4174,-0.135,-0.005
4175,-0.100,-0.010
4176,-0.095,-0.020
4177,-0.115,-0.030
4178,-0.120,-0.025
4179,-0.135,-0.020
4180,-0.125,-0.005
4181,-0.115,0.000
4182,-0.105,-0.010
4183,-0.130,-0.030
4184,-0.150,-0.045
4185,-0.175,-0.050
4186,-0.185,-0.030
4187,-0.175,-0.020
4188,-0.160,-0.015
4189,-0.180,-0.025
4190,-0.205,-0.055
4191,-0.220,-0.050
4192,-0.220,-0.070
4193,-0.215,-0.055
4194,-0.200,-0.050
4195,-0.195,-0.050
4196,-0.205,-0.055
4197,-0.215,-0.060
4198,-0.220,-0.060
4199,-0.220,-0.025
4200,-0.205,-0.035
4201,-0.210,-0.040
4202,-0.205,-0.055
4203,-0.220,-0.035
4204,-0.225,-0.040
4205,-0.225,-0.035
4206,-0.210,-0.040
4207,-0.210,-0.040
4208,-0.225,-0.065
4209,-0.235,-0.070
4210,-0.215,-0.025
4211,-0.205,0.000
4212,-0.190,0.020
4213,-0.190,0.035
4214,-0.205,0.030
4215,-0.190,0.035
4216,-0.175,-0.010
4217,-0.085,-0.065
4218,0.040,-0.150
4219,0.150,-0.280
4220,0.255,-0.390
4221,0.345,-0.485
4222,0.430,-0.580
4223,0.530,-0.715
4224,0.645,-0.840
4225,0.760,-0.960
4226,0.940,-1.065
4227,1.145,-1.105
4228,1.375,-1.135
4229,1.620,-1.140
4230,1.840,-1.180
4231,1.950,-1.195
4232,1.970,-1.215
4233,1.925,-1.215
4234,1.780,-1.215
4235,1.530,-1.195
4236,1.175,-1.175
4237,0.810,-1.135
4238,0.515,-1.115
4239,0.345,-1.075
4240,0.260,-1.010
4241,0.240,-0.945
4242,0.245,-0.860
4243,0.250,-0.765
4244,0.245,-0.670
4245,0.205,-0.595
4246,0.195,-0.520
4247,0.170,-0.440
4248,0.135,-0.400
4249,0.085,-0.350
4250,0.045,-0.315
4251,0.015,-0.250
4252,-0.015,-0.185
4253,-0.020,-0.130
4254,-0.055,-0.095
4255,-0.105,-0.065
4256,-0.155,-0.040
4257,-0.200,0.005
4258,-0.230,0.060
4259,-0.230,0.110
4260,-0.245,0.145
4261,-0.275,0.165
4262,-0.325,0.175
4263,-0.360,0.180
4264,-0.375,0.220
4265,-0.380,0.235
4266,-0.380,0.245
4267,-0.385,0.245
4268,-0.400,0.240
4269,-0.425,0.270
4270,-0.430,0.280
4271,-0.425,0.305
4272,-0.405,0.305
4273,-0.410,0.305
4274,-0.435,0.295
4275,-0.455,0.305
4276,-0.465,0.325
4277,-0.450,0.345
4278,-0.445,0.365
4279,-0.455,0.360
4280,-0.460,0.355
4281,-0.455,0.380
4282,-0.455,0.390
4283,-0.460,0.405
4284,-0.450,0.435
4285,-0.470,0.440
4286,-0.480,0.445
4287,-0.480,0.460
4288,-0.480,0.470
4289,-0.480,0.505
4290,-0.460,0.515
4291,-0.490,0.510
4292,-0.510,0.515
4293,-0.525,0.530
4294,-0.520,0.555
4295,-0.510,0.605
4296,-0.495,0.610
4297,-0.515,0.635
4298,-0.530,0.620
4299,-0.560,0.635
4300,-0.545,0.680
4301,-0.545,0.700
4302,-0.540,0.730
4303,-0.560,0.730
4304,-0.600,0.740
4305,-0.625,0.740
4306,-0.610,0.755
4307,-0.605,0.775
4308,-0.610,0.785
4309,-0.620,0.790
4310,-0.625,0.775
4311,-0.650,0.780
4312,-0.655,0.800
4313,-0.660,0.825
4314,-0.650,0.810
4315,-0.655,0.790
4316,-0.675,0.765
4317,-0.695,0.755
4318,-0.690,0.755
4319,-0.685,0.760
4320,-0.660,0.735
4321,-0.660,0.710
4322,-0.645,0.665
4323,-0.655,0.655
4324,-0.640,0.630
4325,-0.635,0.630
4326,-0.600,0.595
4327,-0.595,0.555
4328,-0.595,0.510
4329,-0.580,0.480
4330,-0.555,0.460
4331,-0.525,0.450
4332,-0.495,0.390
4333,-0.465,0.355
4334,-0.470,0.305
4335,-0.440,0.280
4336,-0.400,0.260
4337,-0.360,0.250
4338,-0.330,0.200
4339,-0.335,0.180
4340,-0.305,0.120
4341,-0.305,0.100
4342,-0.280,0.115
4343,-0.245,0.120
4344,-0.215,0.110
4345,-0.230,0.095
4346,-0.235,0.070
4347,-0.250,0.045
4348,-0.250,0.045
4349,-0.225,0.055
4350,-0.195,0.040
4351,-0.190,0.045
4352,-0.215,0.010
4353,-0.235,0.010
4354,-0.230,0.020
4355,-0.210,0.020
4356,-0.200,0.020
4357,-0.195,0.005
4358,-0.210,-0.005
4359,-0.235,-0.015
4360,-0.230,0.005
4361,-0.215,0.015
4362,-0.195,0.015
4363,-0.200,0.010
4364,-0.205,0.005
4365,-0.220,0.000
4366,-0.220,0.010
4367,-0.220,0.025
4368,-0.230,0.025
4369,-0.225,0.025
4370,-0.225,-0.010
4371,-0.235,0.005
4372,-0.240,0.015
4373,-0.240,0.030
4374,-0.235,0.035
4375,-0.235,0.020
4376,-0.230,0.010
4377,-0.235,0.020
4378,-0.255,0.065
4379,-0.230,0.055
4380,-0.230,0.065
4381,-0.215,0.035
4382,-0.235,0.025
4383,-0.235,0.010
4384,-0.230,0.020
4385,-0.220,0.040
4386,-0.210,0.045
4387,-0.240,0.035
4388,-0.250,0.005
4389,-0.260,0.005
4390,-0.250,0.015
4391,-0.220,0.050
4392,-0.205,0.045
4393,-0.215,0.050
4394,-0.240,0.035
4395,-0.250,0.005
4396,-0.235,0.025
4397,-0.210,0.040
4398,-0.200,0.035
4399,-0.215,0.020
4400,-0.220,0.005
4401,-0.255,0.015
4402,-0.250,0.030
4403,-0.235,0.040
4404,-0.225,0.035
4405,-0.215,0.030
4406,-0.235,0.000
4407,-0.250,0.005
4408,-0.240,0.030
4409,-0.245,0.030
4410,-0.210,0.040
4411,-0.220,0.025
4412,-0.230,0.000
4413,-0.235,-0.005
4414,-0.250,0.005
4415,-0.240,0.025
4416,-0.225,0.010
4417,-0.215,-0.005
4418,-0.225,-0.010
4419,-0.240,-0.015
4420,-0.230,-0.015
4421,-0.205,0.005
4422,-0.190,0.000
4423,-0.175,-0.005
4424,-0.180,-0.025
4425,-0.170,-0.010
4426,-0.155,0.005
4427,-0.140,0.015
4428,-0.135,0.015
4429,-0.130,-0.010
4430,-0.150,-0.025
4431,-0.155,-0.020
4432,-0.145,-0.005
4433,-0.135,0.005
4434,-0.110,0.010
4435,-0.125,0.000
4436,-0.135,-0.020
4437,-0.165,-0.020
4438,-0.145,-0.035
4439,-0.130,-0.015
4440,-0.125,-0.015
4441,-0.140,-0.025
4442,-0.150,-0.045
4443,-0.175,-0.030
4444,-0.180,0.000
4445,-0.175,-0.005
4446,-0.160,-0.005
4447,-0.175,-0.025
4448,-0.190,-0.040
4449,-0.220,-0.040
4450,-0.245,-0.030
4451,-0.225,-0.010
4452,-0.210,-0.010
4453,-0.210,-0.020
4454,-0.230,-0.060
4455,-0.260,-0.055
4456,-0.260,-0.040
4457,-0.235,-0.020
4458,-0.215,-0.025
4459,-0.210,-0.015
4460,-0.240,-0.050
4461,-0.270,-0.045
4462,-0.275,-0.030
4463,-0.245,-0.015
4464,-0.230,-0.015
4465,-0.230,-0.035
4466,-0.235,-0.035
4467,-0.255,-0.040
4468,-0.250,-0.025
4469,-0.235,-0.025
4470,-0.215,-0.035
4471,-0.245,-0.035
4472,-0.240,-0.045
4473,-0.225,-0.030
4474,-0.220,0.000
4475,-0.210,0.035
4476,-0.215,0.050
4477,-0.225,0.045
4478,-0.235,-0.005
4479,-0.190,-0.085
4480,-0.080,-0.180
4481,0.040,-0.300
4482,0.170,-0.450
4483,0.270,-0.630
4484,0.350,-0.770
4485,0.440,-0.875
4486,0.545,-0.955
4487,0.655,-1.040
4488,0.790,-1.125
4489,0.935,-1.220
4490,1.145,-1.290
4491,1.350,-1.295
4492,1.585,-1.270
4493,1.790,-1.230
4494,1.930,-1.185
4495,1.960,-1.155
4496,1.900,-1.165
4497,1.730,-1.155
4498,1.465,-1.105
4499,1.125,-1.030
4500,0.840,-0.970
4501,0.630,-0.940
4502,0.485,-0.910
4503,0.405,-0.865
4504,0.375,-0.775
4505,0.370,-0.670
4506,0.360,-0.560
4507,0.315,-0.500
4508,0.275,-0.455
4509,0.225,-0.405
4510,0.180,-0.345
4511,0.145,-0.285
4512,0.095,-0.225
4513,0.060,-0.175
4514,0.015,-0.140
4515,-0.030,-0.095
4516,-0.095,-0.025
4517,-0.120,0.015
4518,-0.150,0.055
4519,-0.200,0.085
4520,-0.250,0.105
4521,-0.305,0.145
4522,-0.310,0.190
4523,-0.315,0.230
4524,-0.325,0.255
4525,-0.355,0.245
4526,-0.390,0.245
4527,-0.455,0.275
4528,-0.435,0.285
4529,-0.420,0.315
4530,-0.425,0.320
4531,-0.440,0.325
4532,-0.460,0.320
4533,-0.470,0.320
4534,-0.485,0.340
4535,-0.465,0.360
4536,-0.450,0.365
4537,-0.465,0.380
4538,-0.490,0.380
4539,-0.505,0.395
4540,-0.505,0.400
4541,-0.495,0.425
4542,-0.485,0.430
4543,-0.480,0.430
4544,-0.500,0.440
4545,-0.515,0.450
4546,-0.505,0.480
4547,-0.515,0.490
4548,-0.510,0.520
4549,-0.510,0.515
4550,-0.525,0.510
4551,-0.545,0.515
4552,-0.545,0.545
4553,-0.545,0.570
4554,-0.535,0.585
4555,-0.550,0.620
4556,-0.565,0.615
4557,-0.585,0.645
4558,-0.610,0.665
4559,-0.590,0.705
4560,-0.580,0.720
4561,-0.575,0.715
4562,-0.605,0.715
4563,-0.635,0.730
4564,-0.635,0.765
4565,-0.620,0.800
4566,-0.620,0.810
4567,-0.630,0.825
4568,-0.660,0.810
4569,-0.680,0.810
4570,-0.705,0.835
4571,-0.705,0.860
4572,-0.690,0.875
4573,-0.700,0.870
4574,-0.725,0.860
4575,-0.750,0.860
4576,-0.755,0.860
4577,-0.760,0.875
4578,-0.740,0.865
4579,-0.740,0.855
4580,-0.740,0.830
4581,-0.760,0.810
4582,-0.765,0.800
4583,-0.745,0.810
4584,-0.745,0.775
4585,-0.745,0.750
4586,-0.755,0.725
4587,-0.745,0.685
4588,-0.720,0.695
4589,-0.705,0.665
4590,-0.690,0.640
4591,-0.670,0.610
4592,-0.665,0.570
4593,-0.640,0.545
4594,-0.615,0.525
4595,-0.585,0.505
4596,-0.570,0.485
4597,-0.555,0.435
4598,-0.555,0.395
4599,-0.545,0.365
4600,-0.515,0.350
4601,-0.485,0.330
4602,-0.445,0.305
4603,-0.415,0.270
4604,-0.420,0.230
4605,-0.400,0.205
4606,-0.375,0.200
4607,-0.345,0.195
4608,-0.320,0.165
4609,-0.315,0.150
4610,-0.310,0.105
4611,-0.310,0.110
4612,-0.290,0.105
4613,-0.280,0.110
4614,-0.270,0.105
4615,-0.270,0.100
4616,-0.285,0.075
4617,-0.310,0.070
4618,-0.300,0.065
4619,-0.275,0.065
4620,-0.240,0.070
4621,-0.245,0.060
4622,-0.260,0.050
4623,-0.275,0.030
4624,-0.270,0.050
4625,-0.260,0.050
4626,-0.245,0.065
4627,-0.245,0.040
4628,-0.250,0.035
4629,-0.260,0.030
4630,-0.285,0.040
4631,-0.260,0.055
4632,-0.260,0.055
4633,-0.260,0.040
4634,-0.265,0.030
4635,-0.280,0.035
4636,-0.280,0.060
4637,-0.280,0.070
4638,-0.250,0.070
4639,-0.255,0.045
4640,-0.280,0.035
4641,-0.280,0.040
4642,-0.270,0.055
4643,-0.270,0.070
4644,-0.265,0.070
4645,-0.270,0.065
4646,-0.295,0.055
4647,-0.300,0.045
4648,-0.290,0.050
4649,-0.260,0.065
4650,-0.255,0.065
4651,-0.270,0.050
4652,-0.280,0.035
4653,-0.315,0.050
4654,-0.310,0.075
4655,-0.285,0.085
4656,-0.260,0.095
4657,-0.275,0.075
4658,-0.295,0.055
4659,-0.305,0.050
4660,-0.320,0.055
4661,-0.300,0.090
4662,-0.280,0.095
4663,-0.275,0.075
4664,-0.285,0.075
4665,-0.285,0.055
4666,-0.290,0.055
4667,-0.295,0.075
4668,-0.290,0.085
4669,-0.285,0.065
4670,-0.290,0.065
4671,-0.285,0.070
4672,-0.285,0.075
4673,-0.295,0.080
4674,-0.275,0.075
4675,-0.290,0.040
4676,-0.290,0.035
4677,-0.295,0.050
4678,-0.290,0.060
4679,-0.270,0.065
4680,-0.275,0.065
4681,-0.275,0.045
4682,-0.275,0.050
4683,-0.300,0.040
4684,-0.285,0.035
4685,-0.270,0.060
4686,-0.265,0.065
4687,-0.265,0.060
4688,-0.270,0.040
4689,-0.290,0.035
4690,-0.280,0.050
4691,-0.280,0.055
4692,-0.245,0.045
4693,-0.240,0.035
4694,-0.225,0.025
4695,-0.240,0.025
4696,-0.240,0.030
4697,-0.225,0.050
4698,-0.220,0.055
4699,-0.220,0.025
4700,-0.235,0.015
4701,-0.215,0.010
4702,-0.215,0.030
4703,-0.200,0.045
4704,-0.195,0.060
4705,-0.185,0.045
4706,-0.185,0.035
4707,-0.185,0.020
4708,-0.175,0.015
4709,-0.165,0.030
4710,-0.165,0.025
4711,-0.170,0.000
4712,-0.185,0.000
4713,-0.185,-0.020
4714,-0.180,0.015
4715,-0.165,0.030
4716,-0.160,0.020
4717,-0.175,0.020
4718,-0.200,-0.015
4719,-0.220,-0.005
4720,-0.215,0.000
4721,-0.190,0.015
4722,-0.190,0.015
4723,-0.215,0.010
4724,-0.250,-0.010
4725,-0.265,-0.025
4726,-0.285,-0.020
4727,-0.270,0.000
4728,-0.255,-0.015
4729,-0.250,-0.010
4730,-0.245,-0.025
4731,-0.250,-0.030
4732,-0.235,0.000
4733,-0.240,0.005
4734,-0.240,0.015
4735,-0.255,0.000
4736,-0.270,-0.015
4737,-0.280,-0.010
4738,-0.270,0.000
4739,-0.250,0.005
4740,-0.240,0.005
4741,-0.250,-0.005
4742,-0.250,-0.005
4743,-0.265,-0.010
4744,-0.265,0.000
4745,-0.265,0.020
4746,-0.245,0.015
4747,-0.235,0.005
4748,-0.250,0.015
4749,-0.245,0.060
4750,-0.235,0.090
4751,-0.235,0.090
4752,-0.215,0.055
4753,-0.160,-0.025
4754,-0.065,-0.145
4755,0.060,-0.280
4756,0.210,-0.425
4757,0.315,-0.565
4758,0.445,-0.715
4759,0.560,-0.840
4760,0.695,-0.965
4761,0.890,-1.035
4762,1.100,-1.095
4763,1.280,-1.125
4764,1.440,-1.175
4765,1.560,-1.220
4766,1.690,-1.255
4767,1.825,-1.270
4768,1.925,-1.235
4769,1.950,-1.185
4770,1.875,-1.175
4771,1.665,-1.185
4772,1.335,-1.165
4773,0.940,-1.115
4774,0.590,-1.030
4775,0.375,-0.950
4776,0.315,-0.860
4777,0.290,-0.750
4778,0.270,-0.665
4779,0.230,-0.575
4780,0.185,-0.500
4781,0.150,-0.415
4782,0.125,-0.375
4783,0.095,-0.330
4784,0.060,-0.300
4785,0.015,-0.245
4786,-0.020,-0.180
4787,-0.040,-0.120
4788,-0.045,-0.060
4789,-0.090,-0.040
4790,-0.145,0.000
4791,-0.185,0.025
4792,-0.255,0.090
4793,-0.270,0.155
4794,-0.290,0.190
4795,-0.335,0.215
4796,-0.360,0.225
4797,-0.400,0.220
4798,-0.425,0.255
4799,-0.430,0.270
4800,-0.430,0.280
4801,-0.445,0.295
4802,-0.465,0.285
4803,-0.455,0.290
4804,-0.470,0.320
4805,-0.440,0.350
4806,-0.425,0.340
4807,-0.445,0.335
4808,-0.460,0.335
4809,-0.485,0.345
4810,-0.485,0.370
4811,-0.475,0.385
4812,-0.455,0.395
4813,-0.455,0.395
4814,-0.480,0.385
4815,-0.505,0.395
4816,-0.510,0.415
4817,-0.510,0.435
4818,-0.480,0.450
4819,-0.485,0.440
4820,-0.500,0.445
4821,-0.510,0.460
4822,-0.510,0.500
4823,-0.500,0.520
4824,-0.505,0.535
4825,-0.520,0.535
4826,-0.535,0.550
4827,-0.550,0.580
4828,-0.535,0.615
4829,-0.550,0.640
4830,-0.545,0.655
4831,-0.555,0.655
4832,-0.585,0.670
4833,-0.610,0.685
4834,-0.590,0.715
4835,-0.585,0.750
4836,-0.595,0.770
4837,-0.600,0.760
4838,-0.630,0.745
4839,-0.660,0.765
4840,-0.655,0.785
4841,-0.635,0.820
4842,-0.625,0.830
4843,-0.630,0.825
4844,-0.665,0.820
4845,-0.690,0.835
4846,-0.685,0.860
4847,-0.690,0.880
4848,-0.685,0.855
4849,-0.675,0.855
4850,-0.695,0.830
4851,-0.720,0.825
4852,-0.730,0.835
4853,-0.715,0.820
4854,-0.695,0.820
4855,-0.705,0.810
4856,-0.710,0.785
4857,-0.720,0.765
4858,-0.715,0.765
4859,-0.705,0.745
4860,-0.670,0.710
4861,-0.660,0.670
4862,-0.660,0.630
4863,-0.655,0.600
4864,-0.625,0.575
4865,-0.605,0.550
4866,-0.575,0.515
4867,-0.555,0.455
4868,-0.550,0.410
4869,-0.520,0.375
4870,-0.480,0.360
4871,-0.440,0.335
4872,-0.410,0.295
4873,-0.400,0.260
4874,-0.405,0.210
4875,-0.380,0.195
4876,-0.365,0.195
4877,-0.315,0.185
4878,-0.295,0.175
4879,-0.290,0.140
4880,-0.295,0.115
4881,-0.300,0.090
4882,-0.295,0.090
4883,-0.275,0.090
4884,-0.245,0.065
4885,-0.245,0.060
4886,-0.255,0.035
4887,-0.270,0.035
4888,-0.270,0.045
4889,-0.250,0.060
4890,-0.235,0.055
4891,-0.235,0.035
4892,-0.250,0.010
4893,-0.255,0.010
4894,-0.255,0.020
4895,-0.270,0.030
4896,-0.245,0.025
4897,-0.240,0.030
4898,-0.250,0.010
4899,-0.260,0.010
4900,-0.245,0.015
4901,-0.245,0.040
4902,-0.225,0.020
4903,-0.240,0.010
4904,-0.260,0.005
4905,-0.270,0.005
4906,-0.280,0.025
4907,-0.240,0.030
4908,-0.235,0.025
4909,-0.245,0.030
4910,-0.270,0.010
4911,-0.280,0.010
4912,-0.265,0.015
4913,-0.265,0.030
4914,-0.245,0.040
4915,-0.245,0.020
4916,-0.260,0.040
4917,-0.270,0.030
4918,-0.275,0.040
4919,-0.270,0.055
4920,-0.255,0.050
4921,-0.260,0.030
4922,-0.270,0.025
4923,-0.280,0.030
4924,-0.285,0.035
4925,-0.270,0.065
4926,-0.265,0.070
4927,-0.280,0.045
4928,-0.290,0.025
4929,-0.280,0.030
4930,-0.265,0.045
4931,-0.275,0.050
4932,-0.270,0.045
4933,-0.275,0.065
4934,-0.280,0.035
4935,-0.275,0.035
4936,-0.265,0.045
4937,-0.255,0.055
4938,-0.245,0.070
4939,-0.245,0.035
4940,-0.270,0.030
4941,-0.275,0.030
4942,-0.275,0.045
4943,-0.265,0.075
4944,-0.245,0.050
4945,-0.235,0.035
4946,-0.240,0.015
4947,-0.265,0.015
4948,-0.260,0.030
4949,-0.250,0.045
4950,-0.230,0.040
4951,-0.230,0.030
4952,-0.230,0.030
4953,-0.250,0.025
4954,-0.240,0.050
4955,-0.230,0.050
4956,-0.230,0.050
4957,-0.235,0.040
4958,-0.255,0.015
4959,-0.255,0.020
4960,-0.245,0.050
4961,-0.230,0.065
4962,-0.225,0.055
4963,-0.225,0.030
4964,-0.245,0.020
4965,-0.240,0.005
4966,-0.225,0.025
4967,-0.190,0.040
4968,-0.175,0.040
4969,-0.185,0.045
4970,-0.190,0.020
4971,-0.205,0.015
4972,-0.200,0.030
4973,-0.190,0.030
4974,-0.175,0.040
4975,-0.165,0.040
4976,-0.190,0.020
4977,-0.195,0.035
4978,-0.200,0.035
4979,-0.180,0.050
4980,-0.170,0.035
4981,-0.170,0.020
4982,-0.170,0.000
4983,-0.185,-0.010
4984,-0.185,-0.010
4985,-0.175,0.020
4986,-0.175,0.010
4987,-0.190,0.005
4988,-0.185,0.005
4989,-0.200,0.015
4990,-0.200,0.015
4991,-0.195,0.025
4992,-0.190,0.015
4993,-0.190,0.015
4994,-0.210,-0.005
4995,-0.245,0.000
4996,-0.250,0.025
4997,-0.240,0.020
4998,-0.240,0.015
4999,-0.245,0.005
5000,-0.265,-0.025
5001,-0.295,-0.030
5002,-0.290,-0.015
5003,-0.270,0.000
5004,-0.250,0.005
5005,-0.240,-0.010
5006,-0.265,-0.015
5007,-0.290,-0.015
5008,-0.295,-0.005
5009,-0.285,0.010
5010,-0.275,0.005
5011,-0.275,0.000
5012,-0.270,-0.010
5013,-0.270,-0.010
5014,-0.285,0.015
5015,-0.270,0.015
5016,-0.255,0.015
5017,-0.265,0.000
5018,-0.275,-0.005
5019,-0.275,0.010
5020,-0.275,0.025
5021,-0.250,0.070
5022,-0.245,0.095
5023,-0.240,0.095
5024,-0.265,0.075
5025,-0.265,0.075
5026,-0.230,0.050
5027,-0.145,0.040
5028,-0.035,-0.025
5029,0.045,-0.125
5030,0.120,-0.255
5031,0.170,-0.395
5032,0.235,-0.545
5033,0.335,-0.690
5034,0.475,-0.790
5035,0.620,-0.905
5036,0.775,-1.000
5037,0.940,-1.060
5038,1.170,-1.100
5039,1.410,-1.115
5040,1.645,-1.125
5041,1.835,-1.125
5042,1.930,-1.115
5043,1.945,-1.105
5044,1.880,-1.100
5045,1.705,-1.100
5046,1.395,-1.100
5047,1.045,-1.085
5048,0.725,-1.060
5049,0.525,-1.000
5050,0.415,-0.935
5051,0.335,-0.850
5052,0.295,-0.780
5053,0.240,-0.690
5054,0.205,-0.610
5055,0.195,-0.515
5056,0.165,-0.435
5057,0.150,-0.375
5058,0.105,-0.320
5059,0.060,-0.275
5060,0.005,-0.230
5061,-0.040,-0.175
5062,-0.075,-0.090
5063,-0.090,-0.030
5064,-0.120,0.005
5065,-0.160,0.030
5066,-0.215,0.025
5067,-0.265,0.060
5068,-0.290,0.135
5069,-0.305,0.180
5070,-0.300,0.225
5071,-0.335,0.240
5072,-0.375,0.245
5073,-0.405,0.250
5074,-0.440,0.280
5075,-0.430,0.310
5076,-0.430,0.330
5077,-0.450,0.305
5078,-0.465,0.320
5079,-0.485,0.320
5080,-0.485,0.330
5081,-0.480,0.365
5082,-0.455,0.370
5083,-0.460,0.375
5084,-0.490,0.355
5085,-0.510,0.360
5086,-0.500,0.380
5087,-0.490,0.405
5088,-0.490,0.400
5089,-0.485,0.415
5090,-0.500,0.405
5091,-0.515,0.425
5092,-0.515,0.440
5093,-0.515,0.465
5094,-0.510,0.490
5095,-0.535,0.490
5096,-0.540,0.485
5097,-0.565,0.495
5098,-0.545,0.530
5099,-0.545,0.545
5100,-0.535,0.580
5101,-0.550,0.565
5102,-0.560,0.545
5103,-0.590,0.560
5104,-0.580,0.605
5105,-0.560,0.635
5106,-0.555,0.670
5107,-0.565,0.665
5108,-0.590,0.680
5109,-0.615,0.680
5110,-0.620,0.730
5111,-0.625,0.765
5112,-0.615,0.775
5113,-0.625,0.785
5114,-0.635,0.790
5115,-0.655,0.795
5116,-0.670,0.810
5117,-0.660,0.840
5118,-0.640,0.855
5119,-0.665,0.860
5120,-0.680,0.845
5121,-0.700,0.860
5122,-0.710,0.870
5123,-0.700,0.885
5124,-0.685,0.875
5125,-0.700,0.850
5126,-0.705,0.840
5127,-0.710,0.825
5128,-0.705,0.840
5129,-0.710,0.835
5130,-0.680,0.815
5131,-0.705,0.785
5132,-0.710,0.750
5133,-0.715,0.715
5134,-0.690,0.710
5135,-0.660,0.690
5136,-0.635,0.650
5137,-0.625,0.625
5138,-0.630,0.590
5139,-0.625,0.565
5140,-0.605,0.540
5141,-0.565,0.540
5142,-0.535,0.505
5143,-0.520,0.445
5144,-0.515,0.395
5145,-0.500,0.360
5146,-0.460,0.340
5147,-0.425,0.320
5148,-0.385,0.290
5149,-0.375,0.240
5150,-0.360,0.205
5151,-0.365,0.175
5152,-0.355,0.180
5153,-0.320,0.175
5154,-0.285,0.155
5155,-0.285,0.140
5156,-0.290,0.135
5157,-0.300,0.130
5158,-0.290,0.115
5159,-0.285,0.120
5160,-0.270,0.095
5161,-0.280,0.065
5162,-0.280,0.045
5163,-0.280,0.055
5164,-0.285,0.070
5165,-0.270,0.080
5166,-0.260,0.065
5167,-0.265,0.070
5168,-0.265,0.035
5169,-0.280,0.035
5170,-0.275,0.045
5171,-0.270,0.070
5172,-0.265,0.075
5173,-0.275,0.045
5174,-0.280,0.035
5175,-0.285,0.030
5176,-0.275,0.040
5177,-0.265,0.050
5178,-0.255,0.055
5179,-0.280,0.055
5180,-0.300,0.045
5181,-0.305,0.035
5182,-0.310,0.040
5183,-0.295,0.075
5184,-0.275,0.080
5185,-0.270,0.055
5186,-0.295,0.045
5187,-0.310,0.055
5188,-0.325,0.070
5189,-0.305,0.090
5190,-0.290,0.095
5191,-0.295,0.085
5192,-0.315,0.055
5193,-0.325,0.060
5194,-0.325,0.075
5195,-0.310,0.085
5196,-0.305,0.105
5197,-0.300,0.085
5198,-0.305,0.075
5199,-0.315,0.090
5200,-0.300,0.090
5201,-0.295,0.095
5202,-0.290,0.090
5203,-0.305,0.095
5204,-0.335,0.075
5205,-0.325,0.070
5206,-0.315,0.090
5207,-0.305,0.115
5208,-0.290,0.110
5209,-0.295,0.085
5210,-0.310,0.075
5211,-0.315,0.060
5212,-0.310,0.060
5213,-0.295,0.085
5214,-0.265,0.115
5215,-0.265,0.095
5216,-0.275,0.075
5217,-0.305,0.065
5218,-0.315,0.075
5219,-0.310,0.085
5220,-0.285,0.080
5221,-0.280,0.075
5222,-0.280,0.065
5223,-0.300,0.060
5224,-0.300,0.065
5225,-0.285,0.070
5226,-0.275,0.085
5227,-0.275,0.070
5228,-0.285,0.070
5229,-0.310,0.060
5230,-0.300,0.060
5231,-0.295,0.085
5232,-0.280,0.075
5233,-0.275,0.075
5234,-0.280,0.060
5235,-0.290,0.055
5236,-0.280,0.060
5237,-0.265,0.060
5238,-0.250,0.060
5239,-0.260,0.045
5240,-0.280,0.035
5241,-0.265,0.040
5242,-0.255,0.050
5243,-0.235,0.040
5244,-0.220,0.045
5245,-0.200,0.045
5246,-0.210,0.030
5247,-0.220,0.040
5248,-0.215,0.045
5249,-0.210,0.070
5250,-0.205,0.080
5251,-0.215,0.070
5252,-0.215,0.055
5253,-0.220,0.040
5254,-0.215,0.045
5255,-0.200,0.055
5256,-0.195,0.050
5257,-0.195,0.045
5258,-0.205,0.035
5259,-0.225,0.025
5260,-0.230,0.050
5261,-0.215,0.045
5262,-0.210,0.050
5263,-0.210,0.050
5264,-0.220,0.035
5265,-0.235,0.040
5266,-0.240,0.055
5267,-0.235,0.065
5268,-0.240,0.055
5269,-0.255,0.045
5270,-0.270,0.030
5271,-0.305,0.010
5272,-0.295,0.040
5273,-0.280,0.030
5274,-0.265,0.045
5275,-0.265,0.025
5276,-0.295,0.010
5277,-0.325,0.015
5278,-0.325,0.040
5279,-0.320,0.050
5280,-0.295,0.050
5281,-0.290,0.035
5282,-0.285,0.020
5283,-0.300,0.030
5284,-0.310,0.045
5285,-0.320,0.065
5286,-0.310,0.070
5287,-0.305,0.055
5288,-0.320,0.035
5289,-0.330,0.030
5290,-0.320,0.060
5291,-0.310,0.050
5292,-0.300,0.045
5293,-0.310,0.020
5294,-0.315,0.020
5295,-0.325,0.015
5296,-0.300,0.045
5297,-0.295,0.065
5298,-0.275,0.075
5299,-0.270,0.070
5300,-0.280,0.080
5301,-0.300,0.085
5302,-0.295,0.115
5303,-0.270,0.075
5304,-0.225,0.015
5305,-0.150,-0.105
5306,-0.050,-0.275
5307,0.050,-0.435
5308,0.160,-0.570
5309,0.270,-0.695
5310,0.370,-0.780
5311,0.485,-0.860
5312,0.555,-0.925
5313,0.635,-0.995
5314,0.730,-1.070
5315,0.860,-1.125
5316,0.985,-1.200
5317,1.130,-1.230
5318,1.340,-1.260
5319,1.530,-1.225
5320,1.705,-1.160
5321,1.840,-1.105
5322,1.885,-1.080
5323,1.850,-1.080
5324,1.735,-1.080
5325,1.525,-1.040
5326,1.220,-0.980
5327,0.945,-0.915
5328,0.700,-0.865
5329,0.525,-0.815
5330,0.400,-0.775
5331,0.315,-0.720
5332,0.280,-0.610
5333,0.250,-0.545
5334,0.255,-0.480
5335,0.225,-0.435
5336,0.185,-0.405
5337,0.155,-0.350
5338,0.125,-0.295
5339,0.085,-0.215
5340,0.050,-0.165
5341,0.005,-0.125
5342,-0.045,-0.095
5343,-0.085,-0.055
5344,-0.100,0.010
5345,-0.120,0.065
5346,-0.135,0.080
5347,-0.195,0.120
5348,-0.255,0.155
5349,-0.310,0.205
5350,-0.335,0.275
5351,-0.350,0.290
5352,-0.360,0.320
5353,-0.385,0.315
5354,-0.420,0.330
5355,-0.465,0.330
5356,-0.465,0.355
5357,-0.465,0.375
5358,-0.460,0.410
5359,-0.470,0.400
5360,-0.505,0.415
5361,-0.525,0.400
5362,-0.525,0.435
5363,-0.510,0.445
5364,-0.495,0.455
5365,-0.505,0.460
5366,-0.520,0.460
5367,-0.520,0.470
5368,-0.540,0.495
5369,-0.520,0.525
5370,-0.515,0.520
5371,-0.525,0.525
5372,-0.560,0.495
5373,-0.550,0.500
5374,-0.550,0.525
5375,-0.550,0.560
5376,-0.530,0.575
5377,-0.540,0.575
5378,-0.565,0.565
5379,-0.570,0.580
5380,-0.595,0.610
5381,-0.575,0.620
5382,-0.555,0.645
5383,-0.555,0.650
5384,-0.570,0.650
5385,-0.610,0.670
5386,-0.615,0.700
5387,-0.615,0.725
5388,-0.615,0.740
5389,-0.605,0.750
5390,-0.615,0.760
5391,-0.620,0.760
5392,-0.630,0.770
5393,-0.645,0.785
5394,-0.650,0.800
5395,-0.665,0.810
5396,-0.685,0.810
5397,-0.710,0.840
5398,-0.690,0.885
5399,-0.685,0.905
5400,-0.680,0.905
5401,-0.695,0.900
5402,-0.715,0.900
5403,-0.730,0.910
5404,-0.750,0.940
5405,-0.740,0.970
5406,-0.720,0.980
5407,-0.730,0.980
5408,-0.760,0.965
5409,-0.770,0.960
5410,-0.785,0.955
5411,-0.800,0.985
5412,-0.795,0.985
5413,-0.790,0.975
5414,-0.780,0.940
5415,-0.785,0.945
5416,-0.780,0.945
5417,-0.790,0.945
5418,-0.790,0.940
5419,-0.790,0.915
5420,-0.795,0.880
5421,-0.780,0.865
5422,-0.785,0.840
5423,-0.760,0.835
5424,-0.735,0.820
5425,-0.720,0.780
5426,-0.710,0.735
5427,-0.715,0.700
5428,-0.695,0.680
5429,-0.675,0.660
5430,-0.635,0.615
5431,-0.615,0.570
5432,-0.585,0.515
5433,-0.565,0.500
5434,-0.545,0.480
5435,-0.545,0.480
5436,-0.490,0.460
5437,-0.470,0.420
5438,-0.475,0.385
5439,-0.465,0.355
5440,-0.435,0.340
5441,-0.410,0.335
5442,-0.380,0.310
5443,-0.390,0.285
5444,-0.390,0.250
5445,-0.395,0.245
5446,-0.370,0.240
5447,-0.345,0.250
5448,-0.320,0.245
5449,-0.310,0.215
5450,-0.305,0.195
5451,-0.335,0.190
5452,-0.340,0.190
5453,-0.315,0.175
5454,-0.295,0.180
5455,-0.290,0.165
5456,-0.285,0.145
5457,-0.305,0.150
5458,-0.315,0.165
5459,-0.295,0.180
5460,-0.285,0.160
5461,-0.275,0.155
5462,-0.300,0.140
5463,-0.295,0.140
5464,-0.300,0.160
5465,-0.290,0.175
5466,-0.280,0.170
5467,-0.275,0.160
5468,-0.300,0.130
5469,-0.325,0.130
5470,-0.320,0.140
5471,-0.305,0.160
5472,-0.290,0.170
5473,-0.285,0.150
5474,-0.290,0.140
5475,-0.310,0.140
5476,-0.320,0.160
5477,-0.300,0.170
5478,-0.300,0.165
5479,-0.305,0.175
5480,-0.305,0.150
5481,-0.315,0.145
5482,-0.315,0.170
5483,-0.285,0.195
5484,-0.275,0.190
5485,-0.300,0.175
5486,-0.325,0.155
5487,-0.325,0.165
5488,-0.325,0.170
5489,-0.305,0.185
5490,-0.300,0.190
5491,-0.300,0.180
5492,-0.310,0.170
5493,-0.320,0.175
5494,-0.350,0.175
5495,-0.335,0.180
5496,-0.320,0.175
5497,-0.315,0.170
5498,-0.320,0.155
5499,-0.345,0.145
5500,-0.340,0.170
5501,-0.340,0.170
5502,-0.330,0.190
5503,-0.330,0.185
5504,-0.345,0.160
5505,-0.350,0.170
5506,-0.325,0.175
5507,-0.310,0.190
5508,-0.305,0.190
5509,-0.320,0.180
5510,-0.330,0.170
5511,-0.345,0.155
5512,-0.335,0.175
5513,-0.320,0.200
5514,-0.290,0.190
5515,-0.290,0.190
5516,-0.305,0.155
5517,-0.330,0.155
5518,-0.360,0.155
5519,-0.330,0.180
5520,-0.315,0.205
5521,-0.300,0.185
5522,-0.305,0.190
5523,-0.310,0.180
5524,-0.310,0.185
5525,-0.295,0.185
5526,-0.275,0.185
5527,-0.280,0.165
5528,-0.310,0.145
5529,-0.330,0.145
5530,-0.325,0.155
5531,-0.305,0.185
5532,-0.280,0.175
5533,-0.280,0.180
5534,-0.290,0.155
5535,-0.315,0.135
5536,-0.310,0.145
5537,-0.305,0.165
5538,-0.295,0.175
5539,-0.285,0.155
5540,-0.300,0.145
5541,-0.295,0.130
5542,-0.285,0.150
5543,-0.255,0.170
5544,-0.235,0.145
5545,-0.225,0.135
5546,-0.225,0.115
5547,-0.240,0.110
5548,-0.230,0.130
5549,-0.210,0.150
5550,-0.215,0.165
5551,-0.220,0.155
5552,-0.255,0.135
5553,-0.255,0.140
5554,-0.250,0.160
5555,-0.235,0.150
5556,-0.220,0.160
5557,-0.215,0.140
5558,-0.205,0.130
5559,-0.205,0.125
5560,-0.220,0.140
5561,-0.215,0.155
5562,-0.200,0.135
5563,-0.210,0.120
5564,-0.215,0.095
5565,-0.235,0.100
5566,-0.220,0.115
5567,-0.210,0.140
5568,-0.195,0.130
5569,-0.200,0.115
5570,-0.210,0.095
5571,-0.215,0.115
5572,-0.245,0.125
5573,-0.220,0.125
5574,-0.225,0.145
5575,-0.230,0.130
5576,-0.250,0.105
5577,-0.275,0.110
5578,-0.260,0.110
5579,-0.275,0.135
5580,-0.270,0.125
5581,-0.270,0.120
5582,-0.275,0.105
5583,-0.290,0.090
5584,-0.320,0.095
5585,-0.305,0.100
5586,-0.290,0.100
5587,-0.290,0.090
5588,-0.275,0.080
5589,-0.285,0.080
5590,-0.275,0.100
5591,-0.265,0.120
5592,-0.270,0.135
5593,-0.280,0.125
5594,-0.290,0.115
5595,-0.305,0.115
5596,-0.300,0.125
5597,-0.280,0.130
5598,-0.270,0.135
5599,-0.275,0.135
5600,-0.275,0.120
5601,-0.290,0.110
5602,-0.285,0.130
5603,-0.280,0.145
5604,-0.275,0.135
5605,-0.265,0.120
5606,-0.265,0.125
5607,-0.285,0.115
5608,-0.270,0.135
5609,-0.245,0.160
5610,-0.245,0.155
5611,-0.245,0.185
5612,-0.260,0.195
5613,-0.285,0.195
5614,-0.295,0.215
5615,-0.295,0.205
5616,-0.280,0.185
5617,-0.260,0.145
5618,-0.215,0.065
5619,-0.150,-0.015
5620,-0.035,-0.090
5621,0.065,-0.165
5622,0.165,-0.285
5623,0.250,-0.385
5624,0.320,-0.505
5625,0.400,-0.600
5626,0.495,-0.670
5627,0.625,-0.735
5628,0.765,-0.815
5629,0.900,-0.895
5630,1.055,-0.960
5631,1.210,-1.025
5632,1.375,-1.040
5633,1.550,-1.035
5634,1.720,-1.055
5635,1.845,-1.085
5636,1.925,-1.095
5637,1.980,-1.080
5638,1.990,-1.065
5639,2.005,-1.025
5640,1.990,-1.010
5641,1.935,-1.015
5642,1.835,-1.015
5643,1.640,-1.015
5644,1.370,-0.975
5645,1.055,-0.925
5646,0.750,-0.875
5647,0.545,-0.820
5648,0.395,-0.790
5649,0.290,-0.730
5650,0.230,-0.640
5651,0.210,-0.545
5652,0.195,-0.465
5653,0.155,-0.405
5654,0.135,-0.360
5655,0.095,-0.325
5656,0.070,-0.260
5657,0.055,-0.210
5658,0.040,-0.165
5659,0.000,-0.150
5660,-0.040,-0.130
5661,-0.080,-0.090
5662,-0.110,-0.055
5663,-0.100,-0.010
5664,-0.100,0.015
5665,-0.105,0.050
5666,-0.125,0.055
5667,-0.145,0.095
5668,-0.180,0.135
5669,-0.185,0.195
5670,-0.205,0.225
5671,-0.240,0.245
5672,-0.290,0.270
5673,-0.330,0.305
5674,-0.355,0.330
5675,-0.350,0.360
5676,-0.370,0.380
5677,-0.390,0.390
5678,-0.415,0.380
5679,-0.455,0.400
5680,-0.475,0.420
5681,-0.480,0.445
5682,-0.455,0.445
5683,-0.460,0.470
5684,-0.475,0.460
5685,-0.475,0.465
5686,-0.480,0.480
5687,-0.460,0.495
5688,-0.440,0.505
5689,-0.450,0.490
5690,-0.480,0.475
5691,-0.495,0.480
5692,-0.500,0.515
5693,-0.495,0.530
5694,-0.495,0.545
5695,-0.495,0.535
5696,-0.510,0.525
5697,-0.530,0.540
5698,-0.510,0.560
5699,-0.505,0.565
5700,-0.485,0.580
5701,-0.495,0.585
5702,-0.515,0.575
5703,-0.540,0.580
5704,-0.535,0.595
5705,-0.520,0.630
5706,-0.505,0.655
5707,-0.505,0.635
5708,-0.530,0.615
5709,-0.545,0.630
5710,-0.545,0.650
5711,-0.535,0.665
5712,-0.525,0.675
5713,-0.535,0.670
5714,-0.545,0.670
5715,-0.560,0.680
5716,-0.570,0.705
5717,-0.555,0.725
5718,-0.535,0.755
5719,-0.540,0.750
5720,-0.555,0.745
5721,-0.575,0.750
5722,-0.590,0.775
5723,-0.580,0.795
5724,-0.570,0.815
5725,-0.570,0.815
5726,-0.575,0.810
5727,-0.605,0.840
5728,-0.605,0.870
5729,-0.615,0.900
5730,-0.600,0.910
5731,-0.620,0.915
5732,-0.630,0.905
5733,-0.645,0.915
5734,-0.660,0.940
5735,-0.635,0.960
5736,-0.635,0.955
5737,-0.645,0.950
5738,-0.645,0.955
5739,-0.655,0.965
5740,-0.660,0.975
5741,-0.655,1.010
5742,-0.655,1.010
5743,-0.675,1.020
5744,-0.710,0.995
5745,-0.715,1.005
5746,-0.700,1.025
5747,-0.700,1.050
5748,-0.695,1.035
5749,-0.700,1.035
5750,-0.715,1.030
5751,-0.725,1.005
5752,-0.730,1.020
5753,-0.725,1.030
5754,-0.705,1.020
5755,-0.710,0.995
5756,-0.715,0.975
5757,-0.730,0.965
5758,-0.730,0.965
5759,-0.710,0.960
5760,-0.700,0.950
5761,-0.695,0.915
5762,-0.705,0.885
5763,-0.710,0.855
5764,-0.690,0.845
5765,-0.685,0.845
5766,-0.645,0.810
5767,-0.645,0.785
5768,-0.645,0.730
5769,-0.635,0.685
5770,-0.610,0.685
5771,-0.585,0.685
5772,-0.555,0.655
5773,-0.550,0.610
5774,-0.530,0.570
5775,-0.525,0.535
5776,-0.515,0.515
5777,-0.480,0.510
5778,-0.460,0.485
5779,-0.455,0.440
5780,-0.430,0.410
5781,-0.425,0.395
5782,-0.390,0.380
5783,-0.355,0.380
5784,-0.335,0.365
5785,-0.330,0.345
5786,-0.335,0.330
5787,-0.330,0.305
5788,-0.340,0.300
5789,-0.325,0.305
5790,-0.305,0.300
5791,-0.315,0.265
5792,-0.295,0.245
5793,-0.305,0.240
5794,-0.295,0.240
5795,-0.285,0.250
5796,-0.255,0.255
5797,-0.265,0.220
5798,-0.280,0.210
5799,-0.280,0.210
5800,-0.285,0.210
5801,-0.260,0.210
5802,-0.255,0.210
5803,-0.255,0.210
5804,-0.285,0.190
5805,-0.295,0.180
5806,-0.285,0.195
5807,-0.285,0.200
5808,-0.260,0.195
5809,-0.255,0.195
5810,-0.270,0.170
5811,-0.285,0.180
5812,-0.300,0.190
5813,-0.285,0.195
5814,-0.270,0.205
5815,-0.265,0.190
5816,-0.285,0.195
5817,-0.290,0.170
5818,-0.295,0.200
5819,-0.285,0.200
5820,-0.285,0.215
5821,-0.290,0.205
5822,-0.295,0.195
5823,-0.290,0.190
5824,-0.280,0.205
5825,-0.275,0.235
5826,-0.270,0.245
5827,-0.250,0.215
5828,-0.285,0.210
5829,-0.300,0.200
5830,-0.320,0.205
5831,-0.305,0.235
5832,-0.270,0.250
5833,-0.280,0.230
5834,-0.280,0.215
5835,-0.310,0.215
5836,-0.320,0.235
5837,-0.280,0.255
5838,-0.265,0.235
5839,-0.265,0.240
5840,-0.280,0.215
5841,-0.305,0.220
5842,-0.305,0.235
5843,-0.290,0.255
5844,-0.270,0.240
5845,-0.275,0.220
5846,-0.280,0.220
5847,-0.295,0.210
5848,-0.290,0.235
5849,-0.275,0.240
5850,-0.265,0.250
5851,-0.275,0.245
5852,-0.295,0.215
5853,-0.300,0.215
5854,-0.285,0.220
5855,-0.285,0.235
5856,-0.260,0.250
5857,-0.265,0.235
5858,-0.290,0.220
5859,-0.305,0.225
5860,-0.315,0.230
5861,-0.275,0.245
5862,-0.245,0.245
5863,-0.255,0.220
5864,-0.260,0.210
5865,-0.285,0.220
5866,-0.285,0.220
5867,-0.285,0.235
5868,-0.270,0.235
5869,-0.285,0.225
5870,-0.290,0.205
5871,-0.310,0.205
5872,-0.285,0.205
5873,-0.290,0.230
5874,-0.275,0.225
5875,-0.270,0.215
5876,-0.275,0.200
5877,-0.285,0.205
5878,-0.275,0.195
5879,-0.240,0.205
5880,-0.235,0.205
5881,-0.235,0.200
5882,-0.225,0.185
5883,-0.235,0.205
5884,-0.235,0.210
5885,-0.200,0.230
5886,-0.210,0.220
5887,-0.200,0.210
5888,-0.205,0.205
5889,-0.220,0.175
5890,-0.230,0.205
5891,-0.210,0.205
5892,-0.190,0.215
5893,-0.165,0.190
5894,-0.185,0.170
5895,-0.195,0.170
5896,-0.215,0.175
5897,-0.215,0.195
5898,-0.195,0.190
5899,-0.190,0.175
5900,-0.205,0.190
5901,-0.210,0.190
5902,-0.210,0.195
5903,-0.220,0.230
5904,-0.210,0.230
5905,-0.230,0.205
5906,-0.245,0.185
5907,-0.245,0.165
5908,-0.245,0.195
5909,-0.235,0.205
5910,-0.225,0.210
5911,-0.260,0.200
5912,-0.285,0.155
5913,-0.310,0.165
5914,-0.325,0.175
5915,-0.305,0.185
5916,-0.270,0.175
5917,-0.275,0.175
5918,-0.285,0.145
5919,-0.315,0.155
5920,-0.315,0.170
5921,-0.285,0.190
5922,-0.285,0.200
5923,-0.295,0.190
5924,-0.300,0.190
5925,-0.310,0.165
5926,-0.310,0.175
5927,-0.300,0.185
5928,-0.295,0.205
5929,-0.295,0.185
5930,-0.305,0.165
5931,-0.305,0.175
5932,-0.310,0.185
5933,-0.280,0.190
5934,-0.280,0.205
5935,-0.285,0.190
5936,-0.290,0.185
5937,-0.300,0.215
5938,-0.300,0.235
5939,-0.290,0.290
5940,-0.275,0.310
5941,-0.290,0.300
5942,-0.305,0.275
5943,-0.315,0.250
5944,-0.270,0.210
5945,-0.195,0.140
5946,-0.070,0.025
5947,0.045,-0.130
5948,0.125,-0.290
5949,0.200,-0.450
5950,0.300,-0.575
5951,0.415,-0.655
5952,0.560,-0.740
5953,0.735,-0.825
5954,0.910,-0.885
5955,1.100,-0.905
5956,1.300,-0.920
5957,1.545,-0.920
5958,1.755,-0.905
5959,1.910,-0.910
5960,1.970,-0.910
5961,2.000,-0.895
5962,1.970,-0.890
5963,1.890,-0.870
5964,1.745,-0.845
5965,1.435,-0.840
5966,1.030,-0.805
5967,0.655,-0.750
5968,0.425,-0.695
5969,0.325,-0.625
5970,0.265,-0.535
5971,0.240,-0.455
5972,0.190,-0.395
5973,0.150,-0.315
5974,0.120,-0.260
5975,0.095,-0.200
5976,0.080,-0.160
5977,0.035,-0.115
5978,-0.015,-0.090
5979,-0.065,-0.060
5980,-0.085,-0.015
5981,-0.110,0.025
5982,-0.110,0.100
5983,-0.140,0.135
5984,-0.180,0.165
5985,-0.220,0.210
5986,-0.245,0.250
5987,-0.265,0.300
5988,-0.290,0.335
5989,-0.325,0.340
5990,-0.365,0.365
5991,-0.400,0.380
5992,-0.415,0.440
5993,-0.415,0.460
5994,-0.420,0.475
5995,-0.435,0.460
5996,-0.455,0.465
5997,-0.495,0.470
5998,-0.495,0.465
5999,-0.480,0.480
6000,-0.460,0.515
6001,-0.465,0.505
6002,-0.475,0.510
6003,-0.480,0.505
6004,-0.490,0.540
6005,-0.485,0.560
6006,-0.485,0.575
6007,-0.480,0.575
6008,-0.485,0.555
6009,-0.505,0.575
6010,-0.510,0.595
6011,-0.500,0.635
6012,-0.495,0.635
6013,-0.515,0.630
6014,-0.515,0.630
6015,-0.530,0.635
6016,-0.530,0.660
6017,-0.515,0.685
6018,-0.520,0.685
6019,-0.550,0.690
6020,-0.585,0.690
6021,-0.590,0.715
6022,-0.585,0.720
6023,-0.570,0.760
6024,-0.545,0.770
6025,-0.545,0.770
6026,-0.575,0.795
6027,-0.605,0.795
6028,-0.590,0.825
6029,-0.595,0.880
6030,-0.585,0.890
6031,-0.585,0.885
6032,-0.605,0.890
6033,-0.605,0.890
6034,-0.625,0.915
6035,-0.635,0.950
6036,-0.635,0.965
6037,-0.660,0.975
6038,-0.670,0.970
6039,-0.665,0.975
6040,-0.645,0.990
6041,-0.635,1.025
6042,-0.640,1.035
6043,-0.675,1.040
6044,-0.720,1.035
6045,-0.715,1.050
6046,-0.720,1.045
6047,-0.725,1.065
6048,-0.715,1.065
6049,-0.725,1.020
6050,-0.740,1.005
6051,-0.740,1.000
6052,-0.745,0.995
6053,-0.745,1.000
6054,-0.730,0.980
6055,-0.710,0.960
6056,-0.720,0.935
6057,-0.730,0.900
6058,-0.725,0.890
6059,-0.705,0.880
6060,-0.650,0.850
6061,-0.630,0.810
6062,-0.640,0.765
6063,-0.625,0.735
6064,-0.620,0.705
6065,-0.595,0.695
6066,-0.550,0.640
6067,-0.530,0.600
6068,-0.520,0.555
6069,-0.500,0.525
6070,-0.495,0.495
6071,-0.455,0.490
6072,-0.405,0.460
6073,-0.390,0.435
6074,-0.380,0.385
6075,-0.385,0.365
6076,-0.365,0.370
6077,-0.355,0.355
6078,-0.335,0.355
6079,-0.325,0.325
6080,-0.335,0.305
6081,-0.335,0.285
6082,-0.325,0.295
6083,-0.310,0.305
6084,-0.295,0.280
6085,-0.315,0.265
6086,-0.325,0.245
6087,-0.345,0.230
6088,-0.330,0.255
6089,-0.300,0.270
6090,-0.290,0.245
6091,-0.295,0.255
6092,-0.330,0.230
6093,-0.325,0.215
6094,-0.330,0.215
6095,-0.320,0.245
6096,-0.295,0.250
6097,-0.305,0.240
6098,-0.320,0.215
6099,-0.335,0.220
6100,-0.340,0.225
6101,-0.315,0.235
6102,-0.305,0.240
6103,-0.315,0.230
6104,-0.335,0.225
6105,-0.345,0.230
6106,-0.365,0.235
6107,-0.345,0.250
6108,-0.330,0.230
6109,-0.320,0.250
6110,-0.335,0.250
6111,-0.345,0.225
6112,-0.355,0.250
6113,-0.350,0.265
6114,-0.335,0.255
6115,-0.350,0.250
6116,-0.360,0.230
6117,-0.370,0.235
6118,-0.385,0.230
6119,-0.370,0.275
6120,-0.350,0.260
6121,-0.330,0.260
6122,-0.350,0.255
6123,-0.350,0.240
6124,-0.355,0.250
6125,-0.350,0.255
6126,-0.335,0.260
6127,-0.350,0.260
6128,-0.350,0.250
6129,-0.340,0.245
6130,-0.360,0.250
6131,-0.345,0.275
6132,-0.340,0.280
6133,-0.345,0.270
6134,-0.335,0.245
6135,-0.345,0.240
6136,-0.330,0.255
6137,-0.330,0.260
6138,-0.315,0.260
6139,-0.325,0.245
6140,-0.340,0.230
6141,-0.345,0.210
6142,-0.350,0.220
6143,-0.330,0.235
6144,-0.310,0.240
6145,-0.320,0.235
6146,-0.335,0.215
6147,-0.345,0.205
6148,-0.335,0.210
6149,-0.315,0.230
6150,-0.305,0.220
6151,-0.300,0.210
6152,-0.315,0.200
6153,-0.335,0.190
6154,-0.335,0.225
6155,-0.335,0.225
6156,-0.310,0.235
6157,-0.305,0.195
6158,-0.315,0.195
6159,-0.320,0.185
6160,-0.320,0.185
6161,-0.295,0.210
6162,-0.270,0.195
6163,-0.250,0.190
6164,-0.260,0.160
6165,-0.275,0.170
6166,-0.285,0.170
6167,-0.275,0.195
6168,-0.250,0.200
6169,-0.250,0.190
6170,-0.245,0.175
6171,-0.265,0.160
6172,-0.265,0.165
6173,-0.250,0.180
6174,-0.255,0.175
6175,-0.230,0.165
6176,-0.255,0.140
6177,-0.270,0.140
6178,-0.265,0.165
6179,-0.250,0.170
6180,-0.235,0.170
6181,-0.240,0.170
6182,-0.255,0.155
6183,-0.270,0.135
6184,-0.280,0.135
6185,-0.285,0.155
6186,-0.265,0.155
6187,-0.285,0.150
6188,-0.325,0.135
6189,-0.340,0.130
6190,-0.355,0.140
6191,-0.345,0.140
6192,-0.335,0.150
6193,-0.325,0.140
6194,-0.335,0.125
6195,-0.325,0.135
6196,-0.340,0.145
6197,-0.345,0.160
6198,-0.345,0.165
6199,-0.345,0.165
6200,-0.340,0.145
6201,-0.340,0.150
6202,-0.325,0.155
6203,-0.320,0.175
6204,-0.315,0.160
6205,-0.325,0.165
6206,-0.340,0.140
6207,-0.340,0.135
6208,-0.340,0.145
6209,-0.315,0.165
6210,-0.300,0.200
6211,-0.305,0.220
6212,-0.325,0.230
6213,-0.335,0.225
6214,-0.315,0.190
6215,-0.240,0.155
6216,-0.115,0.050
6217,-0.015,-0.075
6218,0.050,-0.260
6219,0.105,-0.435
6220,0.170,-0.590
6221,0.280,-0.700
6222,0.430,-0.810
6223,0.585,-0.905
6224,0.750,-0.995
6225,0.955,-1.040
6226,1.165,-1.055
6227,1.410,-1.015
6228,1.635,-0.980
6229,1.780,-0.955
6230,1.840,-0.945
6231,1.780,-0.955
6232,1.625,-0.950
6233,1.335,-0.950
6234,0.980,-0.900
6235,0.690,-0.850
6236,0.480,-0.790
6237,0.360,-0.725
6238,0.260,-0.645
6239,0.195,-0.540
6240,0.160,-0.440
6241,0.140,-0.365
6242,0.110,-0.305
6243,0.065,-0.260
6244,0.005,-0.185
6245,-0.040,-0.105
6246,-0.065,-0.050
6247,-0.100,-0.010
6248,-0.145,0.035
6249,-0.170,0.055
6250,-0.210,0.095
6251,-0.250,0.140
6252,-0.265,0.195
6253,-0.310,0.240
6254,-0.340,0.265
6255,-0.370,0.290
6256,-0.420,0.355
6257,-0.430,0.390
6258,-0.440,0.410
6259,-0.465,0.415
6260,-0.510,0.415
6261,-0.515,0.430
6262,-0.520,0.450
6263,-0.510,0.465
6264,-0.495,0.490
6265,-0.525,0.500
6266,-0.545,0.490
6267,-0.545,0.480
6268,-0.555,0.510
6269,-0.535,0.515
6270,-0.530,0.540
6271,-0.550,0.535
6272,-0.560,0.520
6273,-0.570,0.535
6274,-0.585,0.550
6275,-0.565,0.585
6276,-0.550,0.600
6277,-0.565,0.600
6278,-0.585,0.595
6279,-0.590,0.605
6280,-0.600,0.630
6281,-0.600,0.655
6282,-0.580,0.655
6283,-0.590,0.675
6284,-0.595,0.670
6285,-0.620,0.690
6286,-0.625,0.710
6287,-0.630,0.740
6288,-0.615,0.745
6289,-0.630,0.765
6290,-0.640,0.765
6291,-0.645,0.775
6292,-0.655,0.785
6293,-0.655,0.845
6294,-0.645,0.860
6295,-0.650,0.850
6296,-0.675,0.860
6297,-0.680,0.875
6298,-0.685,0.910
6299,-0.685,0.920
6300,-0.695,0.960
6301,-0.710,0.950
6302,-0.730,0.955
6303,-0.755,0.960
6304,-0.750,0.990
6305,-0.740,0.995
6306,-0.725,1.000
6307,-0.740,1.000
6308,-0.770,0.965
6309,-0.800,0.960
6310,-0.785,0.970
6311,-0.775,0.985
6312,-0.765,0.960
6313,-0.755,0.935
6314,-0.780,0.890
6315,-0.790,0.855
6316,-0.790,0.845
6317,-0.755,0.845
6318,-0.730,0.810
6319,-0.720,0.775
6320,-0.725,0.735
6321,-0.735,0.685
6322,-0.715,0.670
6323,-0.685,0.660
6324,-0.650,0.625
6325,-0.620,0.595
6326,-0.625,0.545
6327,-0.605,0.510
6328,-0.595,0.475
6329,-0.545,0.445
6330,-0.525,0.425
6331,-0.485,0.385
6332,-0.460,0.340
6333,-0.445,0.315
6334,-0.435,0.310
6335,-0.425,0.305
6336,-0.400,0.280
6337,-0.380,0.250
6338,-0.380,0.220
6339,-0.380,0.205
6340,-0.370,0.195
6341,-0.375,0.210
6342,-0.360,0.205
6343,-0.360,0.195
6344,-0.360,0.170
6345,-0.355,0.170
6346,-0.350,0.185
6347,-0.335,0.180
6348,-0.325,0.180
6349,-0.335,0.180
6350,-0.345,0.170
6351,-0.360,0.145
6352,-0.360,0.150
6353,-0.345,0.160
6354,-0.325,0.165
6355,-0.345,0.160
6356,-0.365,0.155
6357,-0.370,0.150
6358,-0.355,0.150
6359,-0.345,0.175
6360,-0.320,0.180
6361,-0.330,0.155
6362,-0.350,0.140
6363,-0.375,0.135
6364,-0.380,0.140
6365,-0.380,0.155
6366,-0.340,0.185
6367,-0.350,0.175
6368,-0.370,0.155
6369,-0.380,0.150
6370,-0.400,0.160
6371,-0.365,0.175
6372,-0.345,0.185
6373,-0.360,0.190
6374,-0.370,0.160
6375,-0.390,0.150
6376,-0.395,0.170
6377,-0.360,0.170
6378,-0.345,0.175
6379,-0.370,0.165
6380,-0.380,0.145
6381,-0.385,0.160
6382,-0.395,0.165
6383,-0.380,0.185
6384,-0.355,0.170
6385,-0.365,0.170
6386,-0.370,0.160
6387,-0.375,0.160
6388,-0.380,0.170
6389,-0.370,0.175
6390,-0.355,0.180
6391,-0.360,0.155
6392,-0.345,0.135
6393,-0.350,0.125
6394,-0.355,0.135
6395,-0.355,0.155
6396,-0.350,0.155
6397,-0.355,0.150
6398,-0.350,0.125
6399,-0.355,0.115
6400,-0.375,0.130
6401,-0.385,0.125
6402,-0.360,0.125
6403,-0.345,0.115
6404,-0.355,0.110
6405,-0.355,0.110
6406,-0.360,0.120
6407,-0.355,0.130
6408,-0.345,0.120
6409,-0.355,0.110
6410,-0.370,0.090
6411,-0.365,0.095
6412,-0.375,0.100
6413,-0.355,0.110
6414,-0.325,0.100
6415,-0.325,0.080
6416,-0.335,0.065
6417,-0.330,0.070
6418,-0.315,0.075
6419,-0.295,0.095
6420,-0.280,0.105
6421,-0.275,0.085
6422,-0.290,0.075
6423,-0.290,0.065
6424,-0.285,0.075
6425,-0.270,0.090
6426,-0.245,0.100
6427,-0.260,0.090
6428,-0.265,0.065
6429,-0.270,0.045
6430,-0.255,0.065
6431,-0.240,0.075
6432,-0.230,0.065
6433,-0.245,0.055
6434,-0.265,0.055
6435,-0.280,0.035
6436,-0.280,0.060
6437,-0.265,0.070
6438,-0.255,0.070
6439,-0.255,0.060
6440,-0.275,0.035
6441,-0.305,0.040
6442,-0.310,0.050
6443,-0.305,0.055
6444,-0.305,0.050
6445,-0.290,0.050
6446,-0.300,0.015
6447,-0.320,0.010
6448,-0.350,0.005
6449,-0.350,0.020
6450,-0.355,0.020
6451,-0.345,0.025
6452,-0.320,0.015
6453,-0.335,0.015
6454,-0.350,0.030
6455,-0.350,0.030
6456,-0.360,0.035
6457,-0.350,0.045
6458,-0.350,0.045
6459,-0.350,0.035
6460,-0.355,0.040
6461,-0.350,0.065
6462,-0.335,0.065
6463,-0.350,0.050
6464,-0.360,0.010
6465,-0.365,0.020
6466,-0.365,0.030
6467,-0.350,0.045
6468,-0.320,0.075
6469,-0.325,0.080
6470,-0.340,0.080
6471,-0.345,0.080
6472,-0.340,0.075
6473,-0.310,0.040
6474,-0.240,-0.020
6475,-0.135,-0.145
6476,-0.030,-0.295
6477,0.070,-0.400
6478,0.160,-0.475
6479,0.270,-0.590
6480,0.350,-0.730
6481,0.460,-0.880
6482,0.550,-1.025
6483,0.695,-1.125
6484,0.875,-1.170
6485,1.115,-1.185
6486,1.365,-1.210
6487,1.580,-1.240
6488,1.725,-1.235
6489,1.810,-1.210
6490,1.810,-1.185
6491,1.740,-1.165
6492,1.555,-1.160
6493,1.235,-1.160
6494,0.840,-1.140
6495,0.525,-1.080
6496,0.340,-1.030
6497,0.245,-0.950
6498,0.180,-0.885
6499,0.150,-0.780
6500,0.140,-0.710
6501,0.110,-0.595
6502,0.125,-0.505
6503,0.095,-0.445
6504,0.090,-0.375
6505,0.025,-0.335
6506,-0.020,-0.300
6507,-0.065,-0.245
6508,-0.095,-0.190
6509,-0.095,-0.110
6510,-0.115,-0.060
6511,-0.160,-0.040
6512,-0.215,-0.035
6513,-0.260,-0.020
6514,-0.280,0.025
6515,-0.310,0.075
6516,-0.320,0.130
6517,-0.345,0.160
6518,-0.375,0.175
6519,-0.430,0.205
6520,-0.455,0.245
6521,-0.465,0.255
6522,-0.475,0.260
6523,-0.480,0.275
6524,-0.485,0.280
6525,-0.500,0.290
6526,-0.510,0.310
6527,-0.500,0.340
6528,-0.490,0.350
6529,-0.505,0.345
6530,-0.510,0.325
6531,-0.525,0.335
6532,-0.530,0.350
6533,-0.530,0.375
6534,-0.520,0.395
6535,-0.520,0.395
6536,-0.535,0.385
6537,-0.545,0.400
6538,-0.550,0.415
6539,-0.530,0.435
6540,-0.530,0.450
6541,-0.530,0.470
6542,-0.555,0.460
6543,-0.580,0.480
6544,-0.565,0.500
6545,-0.565,0.530
6546,-0.550,0.535
6547,-0.560,0.535
6548,-0.590,0.530
6549,-0.600,0.550
6550,-0.610,0.590
6551,-0.595,0.615
6552,-0.590,0.635
6553,-0.580,0.660
6554,-0.605,0.635
6555,-0.625,0.650
6556,-0.645,0.675
6557,-0.640,0.710
6558,-0.630,0.750
6559,-0.630,0.755
6560,-0.640,0.750
6561,-0.665,0.750
6562,-0.680,0.785
6563,-0.680,0.810
6564,-0.680,0.810
6565,-0.695,0.795
6566,-0.695,0.795
6567,-0.720,0.785
6568,-0.735,0.810
6569,-0.720,0.830
6570,-0.730,0.840
6571,-0.720,0.825
6572,-0.740,0.815
6573,-0.755,0.800
6574,-0.765,0.785
6575,-0.745,0.795
6576,-0.745,0.785
6577,-0.745,0.760
6578,-0.750,0.705
6579,-0.750,0.695
6580,-0.760,0.665
6581,-0.735,0.640
6582,-0.710,0.620
6583,-0.695,0.585
6584,-0.700,0.550
6585,-0.695,0.520
6586,-0.685,0.500
6587,-0.665,0.470
6588,-0.615,0.435
6589,-0.600,0.390
6590,-0.575,0.340
6591,-0.580,0.290
6592,-0.560,0.270
6593,-0.515,0.240
6594,-0.460,0.240
6595,-0.455,0.185
6596,-0.425,0.135
6597,-0.425,0.105
6598,-0.415,0.090
6599,-0.385,0.080
6600,-0.350,0.085
6601,-0.320,0.060
6602,-0.320,0.030
6603,-0.330,-0.005
6604,-0.335,0.025
6605,-0.320,0.015
6606,-0.310,0.015
6607,-0.310,-0.005
6608,-0.310,-0.030
6609,-0.320,-0.030
6610,-0.310,-0.025
6611,-0.315,-0.015
6612,-0.300,-0.015
6613,-0.295,-0.035
6614,-0.295,-0.050
6615,-0.310,-0.065
6616,-0.315,-0.050
6617,-0.310,-0.040
6618,-0.305,-0.030
6619,-0.305,-0.040
6620,-0.325,-0.055
6621,-0.335,-0.075
6622,-0.325,-0.055
6623,-0.310,-0.050
6624,-0.305,-0.045
6625,-0.315,-0.050
6626,-0.325,-0.060
6627,-0.340,-0.065
6628,-0.340,-0.050
6629,-0.335,-0.055
6630,-0.305,-0.040
6631,-0.315,-0.055
6632,-0.355,-0.055
6633,-0.350,-0.065
6634,-0.355,-0.035
6635,-0.340,-0.030
6636,-0.320,-0.030
6637,-0.315,-0.050
6638,-0.330,-0.050
6639,-0.355,-0.065
6640,-0.360,-0.050
6641,-0.350,-0.030
6642,-0.325,-0.035
6643,-0.320,-0.050
6644,-0.325,-0.045
6645,-0.345,-0.070
6646,-0.350,-0.060
6647,-0.340,-0.040
6648,-0.330,-0.050
6649,-0.315,-0.050
6650,-0.325,-0.065
6651,-0.330,-0.060
6652,-0.350,-0.050
6653,-0.340,-0.035
6654,-0.330,-0.040
6655,-0.320,-0.050
6656,-0.320,-0.065
6657,-0.315,-0.065
6658,-0.330,-0.060
6659,-0.325,-0.040
6660,-0.305,-0.045
6661,-0.310,-0.065
6662,-0.330,-0.090
6663,-0.330,-0.090
6664,-0.340,-0.095
6665,-0.325,-0.080
6666,-0.310,-0.060
6667,-0.310,-0.070
6668,-0.330,-0.100
6669,-0.325,-0.115
6670,-0.315,-0.100
6671,-0.305,-0.090
6672,-0.295,-0.080
6673,-0.310,-0.090
6674,-0.330,-0.105
6675,-0.315,-0.100
6676,-0.325,-0.110
6677,-0.295,-0.095
6678,-0.290,-0.105
6679,-0.295,-0.110
6680,-0.300,-0.120
6681,-0.295,-0.125
6682,-0.260,-0.125
6683,-0.230,-0.110
6684,-0.220,-0.115
6685,-0.230,-0.125
6686,-0.235,-0.135
6687,-0.255,-0.140
6688,-0.240,-0.130
6689,-0.240,-0.100
6690,-0.220,-0.100
6691,-0.215,-0.145
6692,-0.225,-0.140
6693,-0.235,-0.170
6694,-0.225,-0.145
6695,-0.220,-0.135
6696,-0.200,-0.115
6697,-0.230,-0.140
6698,-0.255,-0.155
6699,-0.250,-0.175
6700,-0.250,-0.160
