'sample interval','MLII','V1'
'0.00277778 sec','mV','mV'
0,-0.260,0.065
1,-0.260,0.065
2,-0.260,0.065
3,-0.260,0.065
4,-0.260,0.065
5,-0.260,0.065
6,-0.260,0.065
7,-0.260,0.065
8,-0.145,0.065
9,-0.175,0.110
10,-0.275,0.125
11,-0.380,0.125
12,-0.405,0.110
13,-0.385,0.105
14,-0.310,0.110
15,-0.240,0.090
16,-0.255,0.060
17,-0.325,0.060
18,-0.375,0.075
19,-0.345,0.110
20,-0.230,0.125
21,-0.120,0.125
22,-0.060,0.110
23,-0.120,0.115
24,-0.220,0.120
25,-0.350,0.160
26,-0.365,0.200
27,-0.335,0.205
28,-0.260,0.205
29,-0.175,0.220
30,-0.105,0.220
31,-0.140,0.230
32,-0.200,0.255
33,-0.235,0.260
34,-0.295,0.265
35,-0.395,0.255
36,-0.490,0.255
37,-0.475,0.265
38,-0.395,0.265
39,-0.315,0.245
40,-0.260,0.230
41,-0.210,0.215
42,-0.200,0.180
43,-0.160,0.170
44,-0.095,0.130
45,-0.040,0.100
46,-0.020,0.040
47,-0.035,0.015
48,-0.090,-0.005
49,-0.170,0.005
50,-0.240,0.040
51,-0.280,0.035
52,-0.300,0.045
53,-0.285,0.020
54,-0.275,0.000
55,-0.245,0.015
56,-0.185,0.040
57,-0.100,0.055
58,-0.055,0.045
59,-0.130,-0.005
60,-0.295,-0.030
61,-0.400,-0.040
62,-0.345,-0.030
63,-0.270,-0.025
64,-0.255,-0.025
65,-0.255,-0.005
66,-0.215,0.015
67,-0.175,0.025
68,-0.155,0.035
69,-0.175,-0.005
70,-0.235,-0.015
71,-0.315,-0.035
72,-0.335,-0.030
73,-0.310,0.005
74,-0.260,0.020
75,-0.260,0.030
76,-0.305,0.035
77,-0.340,0.060
78,-0.280,0.080
79,-0.205,0.140
80,-0.160,0.205
81,-0.215,0.240
82,-0.340,0.245
83,-0.340,0.220
84,-0.165,0.190
85,0.040,0.175
86,0.180,0.145
87,0.230,0.085
88,0.260,0.015
89,0.255,-0.055
90,0.275,-0.080
91,0.430,-0.090
92,0.700,-0.135
93,1.000,-0.210
94,1.285,-0.285
95,1.465,-0.355
96,1.530,-0.410
97,1.480,-0.420
98,1.385,-0.420
99,1.345,-0.415
100,1.355,-0.460
101,1.370,-0.505
102,1.325,-0.510
103,1.260,-0.485
104,1.170,-0.430
105,1.025,-0.400
106,0.830,-0.355
107,0.655,-0.305
108,0.520,-0.255
109,0.420,-0.160
110,0.360,-0.095
111,0.240,-0.060
112,0.000,-0.010
113,-0.255,0.030
114,-0.395,0.065
115,-0.400,0.100
116,-0.290,0.105
117,-0.185,0.100
118,-0.165,0.100
119,-0.285,0.090
120,-0.430,0.080
121,-0.495,0.060
122,-0.485,0.050
123,-0.415,-0.040
124,-0.365,-0.105
125,-0.340,-0.140
126,-0.370,-0.135
127,-0.470,-0.085
128,-0.535,-0.050
129,-0.565,-0.020
130,-0.535,-0.005
131,-0.500,-0.015
132,-0.440,-0.020
133,-0.410,-0.010
134,-0.410,-0.020
135,-0.505,-0.035
136,-0.655,-0.060
137,-0.770,-0.055
138,-0.775,-0.030
139,-0.620,0.005
140,-0.450,0.030
141,-0.405,0.030
142,-0.465,0.035
143,-0.535,0.050
144,-0.575,0.100
145,-0.550,0.155
146,-0.520,0.165
147,-0.510,0.105
148,-0.490,0.050
149,-0.455,-0.015
150,-0.510,-0.030
151,-0.640,-0.010
152,-0.690,0.025
153,-0.615,0.030
154,-0.495,0.025
155,-0.440,0.010
156,-0.405,0.030
157,-0.360,0.030
158,-0.340,0.060
159,-0.425,0.060
160,-0.570,0.070
161,-0.615,0.095
162,-0.525,0.125
163,-0.425,0.160
164,-0.420,0.170
165,-0.430,0.195
166,-0.400,0.175
167,-0.355,0.195
168,-0.365,0.220
169,-0.395,0.245
170,-0.400,0.280
171,-0.355,0.285
172,-0.330,0.265
173,-0.340,0.240
174,-0.330,0.250
175,-0.315,0.270
176,-0.275,0.270
177,-0.215,0.250
178,-0.135,0.205
179,-0.075,0.185
180,-0.080,0.195
181,-0.055,0.190
182,-0.030,0.200
183,-0.020,0.185
184,-0.035,0.160
185,-0.045,0.155
186,-0.050,0.190
187,-0.070,0.220
188,-0.065,0.265
189,-0.140,0.265
190,-0.210,0.245
191,-0.250,0.215
192,-0.205,0.180
193,-0.010,0.160
194,0.125,0.130
195,0.080,0.065
196,-0.050,0.005
197,-0.170,-0.060
198,-0.225,-0.105
199,-0.280,-0.130
200,-0.340,-0.105
201,-0.320,-0.105
202,-0.255,-0.120
203,-0.150,-0.105
204,-0.045,-0.065
205,-0.010,0.005
206,-0.010,0.055
207,0.035,0.050
208,0.015,0.015
209,-0.155,-0.020
210,-0.455,-0.045
211,-0.655,-0.045
212,-0.640,-0.045
213,-0.465,-0.060
214,-0.290,-0.070
215,-0.245,-0.065
216,-0.260,-0.070
217,-0.275,-0.025
218,-0.275,0.015
219,-0.280,0.025
220,-0.320,0.030
221,-0.405,0.025
222,-0.440,0.030
223,-0.380,0.020
224,-0.225,0.025
225,-0.135,0.015
226,-0.175,-0.010
227,-0.250,0.010
228,-0.320,0.030
229,-0.330,0.080
230,-0.260,0.130
231,-0.155,0.130
232,-0.120,0.095
233,-0.180,0.055
234,-0.310,0.055
235,-0.370,0.050
236,-0.330,0.075
237,-0.300,0.075
238,-0.400,0.065
239,-0.500,0.080
240,-0.540,0.080
241,-0.510,0.105
242,-0.390,0.135
243,-0.220,0.120
244,-0.125,0.105
245,-0.165,0.115
246,-0.300,0.160
247,-0.375,0.225
248,-0.370,0.245
249,-0.380,0.235
250,-0.400,0.200
251,-0.385,0.180
252,-0.340,0.150
253,-0.320,0.160
254,-0.305,0.165
255,-0.250,0.135
256,-0.175,0.100
257,-0.145,0.055
258,-0.170,0.040
259,-0.250,0.020
260,-0.320,0.005
261,-0.345,-0.020
262,-0.320,-0.055
263,-0.200,-0.080
264,-0.070,-0.070
265,-0.070,-0.040
266,-0.205,-0.020
267,-0.320,-0.020
268,-0.320,-0.025
269,-0.235,-0.035
270,-0.155,-0.035
271,-0.155,-0.005
272,-0.230,0.030
273,-0.260,0.015
274,-0.215,0.010
275,-0.170,-0.010
276,-0.130,-0.025
277,-0.100,-0.025
278,-0.110,-0.005
279,-0.170,-0.005
280,-0.230,-0.010
281,-0.270,-0.015
282,-0.265,-0.005
283,-0.230,0.005
284,-0.185,0.045
285,-0.160,0.055
286,-0.170,0.050
287,-0.190,0.045
288,-0.185,0.065
289,-0.160,0.105
290,-0.175,0.130
291,-0.215,0.100
292,-0.255,0.065
293,-0.295,0.025
294,-0.300,0.025
295,-0.215,0.025
296,-0.140,0.040
297,-0.110,0.040
298,-0.150,0.015
299,-0.210,0.015
300,-0.245,0.025
301,-0.180,0.040
302,-0.085,0.050
303,-0.045,0.045
304,-0.125,0.030
305,-0.280,0.040
306,-0.435,0.060
307,-0.475,0.095
308,-0.400,0.115
309,-0.265,0.110
310,-0.175,0.080
311,-0.180,0.050
312,-0.230,0.035
313,-0.215,0.030
314,-0.140,0.025
315,-0.110,-0.010
316,-0.165,-0.045
317,-0.245,-0.065
318,-0.290,-0.100
319,-0.290,-0.080
320,-0.280,-0.100
321,-0.275,-0.100
322,-0.225,-0.120
323,-0.200,-0.140
324,-0.210,-0.155
325,-0.265,-0.170
326,-0.280,-0.190
327,-0.235,-0.215
328,-0.195,-0.260
329,-0.185,-0.270
330,-0.200,-0.255
331,-0.185,-0.210
332,-0.125,-0.160
333,-0.050,-0.155
334,0.020,-0.150
335,0.000,-0.145
336,-0.090,-0.125
337,-0.170,-0.100
338,-0.205,-0.080
339,-0.180,-0.065
340,-0.090,-0.060
341,-0.025,-0.045
342,-0.060,-0.010
343,-0.175,0.030
344,-0.215,0.050
345,-0.175,0.025
346,-0.155,0.010
347,-0.145,-0.030
348,-0.080,-0.055
349,0.015,-0.055
350,0.010,-0.035
351,-0.100,-0.045
352,-0.180,-0.045
353,-0.180,-0.045
354,-0.110,-0.015
355,-0.125,0.015
356,-0.205,0.045
357,-0.235,0.025
358,-0.190,-0.005
359,-0.125,-0.040
360,-0.120,-0.050
361,-0.130,-0.030
362,-0.105,0.000
363,-0.035,0.010
364,-0.030,0.025
365,-0.160,0.000
366,-0.325,0.035
367,-0.330,0.095
368,-0.240,0.165
369,-0.185,0.205
370,-0.205,0.210
371,-0.190,0.160
372,-0.155,0.110
373,-0.150,0.060
374,-0.155,0.040
375,-0.190,0.010
376,-0.180,-0.005
377,-0.125,-0.015
378,-0.095,-0.010
379,-0.105,-0.020
380,-0.055,-0.030
381,-0.020,-0.060
382,-0.065,-0.095
383,-0.145,-0.130
384,-0.205,-0.130
385,-0.185,-0.115
386,-0.135,-0.100
387,-0.125,-0.105
388,-0.155,-0.120
389,-0.185,-0.140
390,-0.140,-0.140
391,-0.080,-0.115
392,-0.020,-0.105
393,-0.010,-0.075
394,-0.030,-0.065
395,-0.035,-0.065
396,-0.015,-0.060
397,-0.005,-0.045
398,-0.020,-0.030
399,-0.105,-0.040
400,-0.200,-0.040
401,-0.235,0.000
402,-0.185,0.045
403,-0.155,0.095
404,-0.145,0.115
405,-0.075,0.105
406,-0.030,0.085
407,-0.055,0.035
408,-0.085,-0.005
409,-0.090,-0.015
410,-0.050,0.015
411,0.030,0.005
412,0.135,0.010
413,0.190,0.010
414,0.185,0.030
415,0.170,0.035
416,0.170,0.010
417,0.160,0.015
418,0.125,-0.005
419,0.115,-0.005
420,0.245,0.005
421,0.470,-0.005
422,0.690,-0.020
423,0.860,-0.080
424,1.040,-0.140
425,1.265,-0.215
426,1.485,-0.290
427,1.670,-0.360
428,1.760,-0.370
429,1.815,-0.375
430,1.800,-0.425
431,1.715,-0.480
432,1.630,-0.540
433,1.635,-0.590
434,1.625,-0.635
435,1.535,-0.660
436,1.375,-0.720
437,1.210,-0.730
438,1.065,-0.715
439,0.900,-0.655
440,0.680,-0.595
441,0.330,-0.540
442,0.035,-0.505
443,-0.080,-0.455
444,-0.080,-0.400
445,-0.085,-0.370
446,-0.075,-0.345
447,-0.070,-0.355
448,-0.120,-0.370
449,-0.270,-0.365
450,-0.445,-0.320
451,-0.550,-0.285
452,-0.565,-0.220
453,-0.470,-0.190
454,-0.300,-0.195
455,-0.220,-0.185
456,-0.305,-0.165
457,-0.500,-0.130
458,-0.645,-0.100
459,-0.660,-0.085
460,-0.585,-0.080
461,-0.500,-0.055
462,-0.445,-0.040
463,-0.455,-0.020
464,-0.465,0.015
465,-0.465,0.020
466,-0.500,0.025
467,-0.470,0.020
468,-0.430,0.010
469,-0.400,0.005
470,-0.435,-0.005
471,-0.475,-0.050
472,-0.460,-0.070
473,-0.445,-0.050
474,-0.475,-0.020
475,-0.550,0.035
476,-0.640,0.080
477,-0.655,0.120
478,-0.610,0.125
479,-0.545,0.130
480,-0.475,0.155
481,-0.425,0.165
482,-0.395,0.195
483,-0.410,0.205
484,-0.415,0.225
485,-0.460,0.235
486,-0.475,0.245
487,-0.465,0.280
488,-0.435,0.325
489,-0.405,0.335
490,-0.380,0.345
491,-0.375,0.330
492,-0.380,0.345
493,-0.395,0.365
494,-0.420,0.375
495,-0.455,0.370
496,-0.490,0.335
497,-0.510,0.275
498,-0.475,0.250
499,-0.415,0.235
500,-0.355,0.195
501,-0.340,0.135
502,-0.345,0.040
503,-0.350,-0.020
504,-0.300,-0.055
505,-0.200,-0.075
506,-0.105,-0.105
507,-0.045,-0.135
508,-0.065,-0.160
509,-0.165,-0.165
510,-0.250,-0.150
511,-0.285,-0.125
512,-0.215,-0.105
513,-0.070,-0.095
514,0.060,-0.100
515,0.095,-0.120
516,-0.035,-0.090
517,-0.150,-0.060
518,-0.090,-0.030
519,0.060,-0.010
520,0.135,-0.020
521,0.060,-0.025
522,-0.110,-0.005
523,-0.215,-0.030
524,-0.165,-0.020
525,-0.080,-0.055
526,-0.040,-0.080
527,-0.055,-0.100
528,-0.030,-0.070
529,-0.025,-0.015
530,-0.040,0.015
531,-0.035,0.045
532,-0.080,0.025
533,-0.100,0.020
534,-0.050,0.005
535,0.055,0.010
536,0.075,0.010
537,0.000,-0.010
538,-0.135,-0.030
539,-0.200,-0.020
540,-0.150,0.025
541,-0.070,0.060
542,-0.020,0.100
543,0.010,0.100
544,0.015,0.055
545,0.040,0.030
546,-0.015,0.035
547,-0.095,0.065
548,-0.185,0.095
549,-0.190,0.130
550,-0.155,0.130
551,-0.100,0.135
552,-0.060,0.165
553,-0.025,0.185
554,-0.005,0.195
555,0.015,0.180
556,0.030,0.170
557,0.025,0.165
558,0.020,0.190
559,-0.015,0.165
560,-0.045,0.145
561,-0.080,0.080
562,-0.085,0.035
563,-0.090,0.015
564,-0.085,-0.005
565,-0.080,-0.005
566,-0.105,-0.025
567,-0.100,-0.065
568,-0.090,-0.085
569,-0.025,-0.095
570,-0.010,-0.075
571,-0.040,-0.060
572,-0.090,-0.055
573,-0.105,-0.070
574,-0.055,-0.080
575,-0.010,-0.085
576,-0.025,-0.080
577,-0.090,-0.045
578,-0.140,-0.040
579,-0.190,-0.035
580,-0.225,-0.040
581,-0.210,-0.070
582,-0.110,-0.050
583,-0.050,-0.035
584,-0.055,-0.015
585,-0.070,-0.010
586,-0.045,0.005
587,-0.075,-0.005
588,-0.120,0.010
589,-0.125,0.015
590,-0.025,0.050
591,0.100,0.035
592,0.175,0.030
593,0.085,0.010
594,-0.095,0.025
595,-0.200,0.040
596,-0.220,0.055
597,-0.160,0.050
598,-0.095,0.045
599,-0.055,0.040
600,-0.070,0.075
601,-0.075,0.135
602,-0.075,0.165
603,-0.125,0.150
604,-0.200,0.120
605,-0.260,0.070
606,-0.180,0.060
607,-0.065,0.050
608,0.015,0.060
609,0.020,0.035
610,-0.050,0.040
611,-0.155,0.045
612,-0.215,0.060
613,-0.175,0.080
614,-0.055,0.040
615,0.070,0.020
616,0.110,-0.020
617,0.010,-0.040
618,-0.110,-0.040
619,-0.190,-0.010
620,-0.200,-0.020
621,-0.170,-0.040
622,-0.095,-0.090
623,-0.055,-0.145
624,-0.050,-0.170
625,-0.050,-0.190
626,-0.060,-0.170
627,-0.085,-0.180
628,-0.125,-0.160
629,-0.130,-0.175
630,-0.105,-0.135
631,-0.050,-0.095
632,0.005,-0.060
633,-0.010,-0.050
634,-0.070,-0.015
635,-0.120,0.030
636,-0.125,0.095
637,-0.035,0.145
638,0.065,0.165
639,0.095,0.135
640,0.080,0.090
641,0.015,0.045
642,-0.060,0.025
643,-0.080,0.045
644,0.030,0.070
645,0.200,0.075
646,0.310,0.085
647,0.335,0.090
648,0.335,0.150
649,0.400,0.175
650,0.480,0.175
651,0.590,0.135
652,0.745,0.100
653,0.975,0.055
654,1.215,0.025
655,1.400,-0.025
656,1.480,-0.095
657,1.460,-0.175
658,1.420,-0.245
659,1.425,-0.300
660,1.455,-0.335
661,1.510,-0.370
662,1.545,-0.420
663,1.540,-0.510
664,1.340,-0.580
665,1.070,-0.610
666,0.850,-0.585
667,0.735,-0.525
668,0.640,-0.470
669,0.405,-0.390
670,0.095,-0.330
671,-0.145,-0.260
672,-0.195,-0.205
673,-0.170,-0.150
674,-0.165,-0.105
675,-0.235,-0.105
676,-0.335,-0.145
677,-0.390,-0.150
678,-0.365,-0.120
679,-0.355,-0.085
680,-0.370,-0.040
681,-0.420,-0.015
682,-0.455,-0.025
683,-0.460,-0.050
684,-0.425,-0.110
685,-0.405,-0.135
686,-0.380,-0.145
687,-0.365,-0.155
688,-0.365,-0.170
689,-0.365,-0.135
690,-0.375,-0.095
691,-0.410,-0.055
692,-0.445,-0.035
693,-0.435,-0.050
694,-0.380,-0.085
695,-0.355,-0.095
696,-0.365,-0.095
697,-0.365,-0.075
698,-0.305,-0.045
699,-0.320,-0.035
700,-0.460,-0.025
701,-0.590,-0.010
702,-0.635,0.005
703,-0.565,0.040
704,-0.495,0.070
705,-0.470,0.085
706,-0.480,0.125
707,-0.465,0.135
708,-0.420,0.190
709,-0.370,0.230
710,-0.385,0.290
711,-0.400,0.305
712,-0.475,0.290
713,-0.535,0.260
714,-0.520,0.245
715,-0.440,0.225
716,-0.345,0.205
717,-0.245,0.185
718,-0.185,0.140
719,-0.225,0.125
720,-0.290,0.115
721,-0.320,0.135
722,-0.285,0.145
723,-0.250,0.160
724,-0.265,0.175
725,-0.330,0.165
726,-0.360,0.170
727,-0.310,0.185
728,-0.155,0.215
729,-0.065,0.215
730,-0.155,0.215
731,-0.320,0.180
732,-0.335,0.180
733,-0.235,0.165
734,-0.120,0.155
735,-0.080,0.115
736,-0.145,0.085
737,-0.230,0.070
738,-0.270,0.055
739,-0.195,0.060
740,-0.040,0.040
741,0.055,0.015
742,0.050,-0.010
743,-0.050,-0.045
744,-0.115,-0.080
745,-0.145,-0.065
746,-0.090,-0.030
747,-0.035,0.020
748,0.000,0.055
749,-0.015,0.055
750,-0.020,0.040
751,-0.040,0.020
752,-0.095,-0.035
753,-0.145,-0.060
754,-0.130,-0.080
755,-0.120,-0.100
756,-0.135,-0.055
757,-0.125,-0.010
758,-0.100,0.035
759,-0.135,0.060
760,-0.215,0.080
761,-0.275,0.095
762,-0.235,0.115
763,-0.155,0.115
764,-0.145,0.105
765,-0.205,0.095
766,-0.355,0.095
767,-0.455,0.125
768,-0.415,0.135
769,-0.285,0.195
770,-0.200,0.210
771,-0.225,0.220
772,-0.295,0.210
773,-0.345,0.210
774,-0.365,0.265
775,-0.360,0.295
776,-0.345,0.345
777,-0.320,0.325
778,-0.320,0.290
779,-0.320,0.240
780,-0.305,0.210
781,-0.240,0.205
782,-0.195,0.200
783,-0.235,0.175
784,-0.330,0.130
785,-0.375,0.080
786,-0.345,0.045
787,-0.265,0.015
788,-0.180,0.025
789,-0.150,0.010
790,-0.195,-0.010
791,-0.230,-0.025
792,-0.245,0.005
793,-0.305,0.020
794,-0.360,0.015
795,-0.380,-0.010
796,-0.350,-0.055
797,-0.245,-0.080
798,-0.185,-0.115
799,-0.175,-0.145
800,-0.185,-0.130
801,-0.240,-0.125
802,-0.285,-0.100
803,-0.305,-0.080
804,-0.305,-0.055
805,-0.235,-0.015
806,-0.185,-0.015
807,-0.190,-0.015
808,-0.235,-0.050
809,-0.235,-0.065
810,-0.155,-0.055
811,-0.065,-0.035
812,-0.080,0.015
813,-0.170,0.080
814,-0.280,0.110
815,-0.320,0.115
816,-0.320,0.115
817,-0.305,0.075
818,-0.245,0.030
819,-0.175,0.005
820,-0.150,-0.015
821,-0.175,0.025
822,-0.235,0.085
823,-0.310,0.155
824,-0.340,0.205
825,-0.320,0.165
826,-0.270,0.135
827,-0.230,0.090
828,-0.275,0.070
829,-0.370,0.105
830,-0.385,0.145
831,-0.315,0.165
832,-0.250,0.165
833,-0.250,0.200
834,-0.265,0.240
835,-0.240,0.285
836,-0.200,0.295
837,-0.215,0.225
838,-0.290,0.160
839,-0.335,0.085
840,-0.290,0.060
841,-0.245,0.070
842,-0.230,0.085
843,-0.230,0.070
844,-0.240,0.070
845,-0.215,0.060
846,-0.170,0.070
847,-0.135,0.090
848,-0.015,0.095
849,0.090,0.115
850,0.185,0.120
851,0.185,0.125
852,0.185,0.150
853,0.240,0.150
854,0.325,0.120
855,0.505,0.050
856,0.820,-0.015
857,1.100,-0.075
858,1.190,-0.145
859,1.150,-0.180
860,1.085,-0.215
861,1.080,-0.235
862,1.145,-0.270
863,1.220,-0.310
864,1.280,-0.350
865,1.255,-0.445
866,1.100,-0.480
867,0.835,-0.540
868,0.555,-0.555
869,0.305,-0.530
870,0.150,-0.485
871,0.095,-0.410
872,0.090,-0.335
873,0.055,-0.275
874,-0.090,-0.215
875,-0.290,-0.150
876,-0.435,-0.085
877,-0.465,-0.005
878,-0.435,0.040
879,-0.365,0.070
880,-0.285,0.070
881,-0.265,0.075
882,-0.345,0.090
883,-0.455,0.140
884,-0.535,0.185
885,-0.520,0.215
886,-0.445,0.245
887,-0.380,0.270
888,-0.460,0.295
889,-0.615,0.270
890,-0.680,0.250
891,-0.665,0.185
892,-0.580,0.140
893,-0.550,0.120
894,-0.535,0.145
895,-0.550,0.185
896,-0.530,0.195
897,-0.525,0.165
898,-0.545,0.115
899,-0.565,0.060
900,-0.585,0.055
901,-0.580,0.040
902,-0.565,0.040
903,-0.530,0.025
904,-0.490,0.010
905,-0.460,0.000
906,-0.480,0.005
907,-0.570,0.025
908,-0.600,0.035
909,-0.565,0.005
910,-0.470,-0.005
911,-0.445,-0.015
912,-0.460,0.015
913,-0.495,0.030
914,-0.465,0.020
915,-0.375,-0.005
916,-0.305,-0.020
917,-0.365,0.005
918,-0.480,0.025
919,-0.590,0.045
920,-0.605,0.070
921,-0.530,0.045
922,-0.505,0.005
923,-0.425,0.005
924,-0.345,0.015
925,-0.300,0.030
926,-0.320,0.060
927,-0.375,0.055
928,-0.400,0.070
929,-0.430,0.100
930,-0.450,0.140
931,-0.390,0.170
932,-0.285,0.185
933,-0.255,0.170
934,-0.315,0.160
935,-0.315,0.155
936,-0.280,0.190
937,-0.260,0.235
938,-0.275,0.290
939,-0.260,0.315
940,-0.185,0.305
941,-0.120,0.265
942,-0.145,0.225
943,-0.200,0.200
944,-0.205,0.195
945,-0.160,0.185
946,-0.130,0.175
947,-0.175,0.185
948,-0.260,0.185
949,-0.315,0.230
950,-0.295,0.250
951,-0.245,0.255
952,-0.190,0.210
953,-0.125,0.180
954,-0.095,0.165
955,-0.120,0.160
956,-0.230,0.170
957,-0.345,0.155
958,-0.340,0.125
959,-0.275,0.140
960,-0.265,0.110
961,-0.285,0.095
962,-0.290,0.065
963,-0.245,0.010
964,-0.240,-0.030
965,-0.245,-0.055
966,-0.200,-0.055
967,-0.105,-0.050
968,-0.030,-0.055
969,-0.085,-0.070
970,-0.270,-0.085
971,-0.395,-0.080
972,-0.300,-0.060
973,-0.100,-0.060
974,-0.070,-0.045
975,-0.225,-0.055
976,-0.370,-0.055
977,-0.340,-0.040
978,-0.185,-0.015
979,-0.010,0.030
980,0.055,0.070
981,-0.040,0.110
982,-0.210,0.155
983,-0.310,0.200
984,-0.375,0.285
985,-0.420,0.380
986,-0.460,0.455
987,-0.455,0.485
988,-0.380,0.470
989,-0.330,0.385
990,-0.350,0.265
991,-0.345,0.125
992,-0.230,-0.005
993,-0.055,-0.125
994,0.075,-0.195
995,0.170,-0.205
996,0.255,-0.245
997,0.345,-0.270
998,0.400,-0.320
999,0.620,-0.345
1000,0.795,-0.380
1001,0.865,-0.390
1002,0.815,-0.385
1003,0.765,-0.330
1004,0.735,-0.330
1005,0.605,-0.330
1006,0.400,-0.350
1007,0.215,-0.340
1008,0.095,-0.315
1009,-0.015,-0.300
1010,-0.180,-0.255
1011,-0.305,-0.230
1012,-0.365,-0.185
1013,-0.375,-0.140
1014,-0.405,-0.095
1015,-0.435,-0.045
1016,-0.505,-0.035
1017,-0.585,-0.010
1018,-0.640,0.005
1019,-0.625,0.045
1020,-0.510,0.065
1021,-0.405,0.080
1022,-0.350,0.045
1023,-0.390,0.030
1024,-0.505,0.035
1025,-0.585,0.055
1026,-0.615,0.080
1027,-0.605,0.110
1028,-0.635,0.100
1029,-0.690,0.085
1030,-0.695,0.070
1031,-0.650,0.075
1032,-0.600,0.085
1033,-0.570,0.140
1034,-0.580,0.165
1035,-0.560,0.195
1036,-0.575,0.200
1037,-0.600,0.185
1038,-0.570,0.170
1039,-0.535,0.155
1040,-0.535,0.140
1041,-0.545,0.155
1042,-0.535,0.175
1043,-0.460,0.215
1044,-0.335,0.235
1045,-0.320,0.240
1046,-0.435,0.205
1047,-0.560,0.195
1048,-0.655,0.210
1049,-0.660,0.250
1050,-0.560,0.295
1051,-0.480,0.335
1052,-0.455,0.350
1053,-0.445,0.350
1054,-0.405,0.365
1055,-0.330,0.375
1056,-0.270,0.390
1057,-0.275,0.410
1058,-0.330,0.380
1059,-0.375,0.320
1060,-0.370,0.275
1061,-0.370,0.235
1062,-0.395,0.230
1063,-0.355,0.215
1064,-0.275,0.185
1065,-0.210,0.140
1066,-0.205,0.140
1067,-0.195,0.155
1068,-0.190,0.170
1069,-0.225,0.215
1070,-0.295,0.220
1071,-0.390,0.210
1072,-0.430,0.185
1073,-0.425,0.155
1074,-0.385,0.135
1075,-0.330,0.125
1076,-0.265,0.095
1077,-0.255,0.070
1078,-0.295,0.080
1079,-0.320,0.110
1080,-0.310,0.140
1081,-0.290,0.160
1082,-0.280,0.155
1083,-0.315,0.135
1084,-0.335,0.135
1085,-0.370,0.150
1086,-0.370,0.185
1087,-0.350,0.195
1088,-0.295,0.205
1089,-0.240,0.190
1090,-0.250,0.170
1091,-0.270,0.130
1092,-0.310,0.120
1093,-0.410,0.125
1094,-0.555,0.130
1095,-0.610,0.145
1096,-0.525,0.190
1097,-0.435,0.210
1098,-0.425,0.255
1099,-0.410,0.290
1100,-0.390,0.305
1101,-0.370,0.285
1102,-0.370,0.230
1103,-0.385,0.185
1104,-0.420,0.165
1105,-0.440,0.155
1106,-0.430,0.160
1107,-0.415,0.170
1108,-0.435,0.205
1109,-0.415,0.220
1110,-0.350,0.225
1111,-0.320,0.195
1112,-0.395,0.145
1113,-0.510,0.100
1114,-0.540,0.095
1115,-0.430,0.080
1116,-0.365,0.115
1117,-0.410,0.120
1118,-0.475,0.110
1119,-0.540,0.105
1120,-0.545,0.090
1121,-0.500,0.110
1122,-0.415,0.125
1123,-0.405,0.160
1124,-0.430,0.140
1125,-0.460,0.150
1126,-0.485,0.150
1127,-0.520,0.135
1128,-0.490,0.140
1129,-0.450,0.175
1130,-0.420,0.175
1131,-0.430,0.190
1132,-0.460,0.185
1133,-0.480,0.155
1134,-0.440,0.165
1135,-0.420,0.145
1136,-0.495,0.085
1137,-0.570,0.040
1138,-0.550,0.055
1139,-0.520,0.100
1140,-0.570,0.135
1141,-0.615,0.180
1142,-0.575,0.175
1143,-0.500,0.195
1144,-0.460,0.205
1145,-0.455,0.230
1146,-0.515,0.255
1147,-0.555,0.260
1148,-0.575,0.240
1149,-0.525,0.200
1150,-0.520,0.185
1151,-0.460,0.180
1152,-0.425,0.200
1153,-0.430,0.260
1154,-0.515,0.270
1155,-0.585,0.290
1156,-0.590,0.275
1157,-0.585,0.270
1158,-0.540,0.245
1159,-0.465,0.225
1160,-0.455,0.170
1161,-0.480,0.115
1162,-0.485,0.075
1163,-0.485,0.060
1164,-0.525,0.070
1165,-0.595,0.100
1166,-0.595,0.075
1167,-0.460,0.035
1168,-0.285,-0.020
1169,-0.290,-0.035
1170,-0.495,-0.045
1171,-0.675,-0.010
1172,-0.735,0.005
1173,-0.700,0.035
1174,-0.635,0.055
1175,-0.605,0.090
1176,-0.640,0.105
1177,-0.630,0.125
1178,-0.585,0.110
1179,-0.565,0.085
1180,-0.505,0.065
1181,-0.470,0.075
1182,-0.510,0.090
1183,-0.545,0.140
1184,-0.470,0.175
1185,-0.400,0.185
1186,-0.530,0.200
1187,-0.725,0.240
1188,-0.765,0.240
1189,-0.650,0.235
1190,-0.610,0.205
1191,-0.615,0.165
1192,-0.585,0.150
1193,-0.570,0.145
1194,-0.540,0.155
1195,-0.500,0.185
1196,-0.535,0.180
1197,-0.675,0.185
1198,-0.795,0.175
1199,-0.855,0.210
1200,-0.860,0.240
1201,-0.800,0.245
1202,-0.660,0.245
1203,-0.585,0.255
1204,-0.575,0.250
1205,-0.580,0.265
1206,-0.625,0.300
1207,-0.620,0.320
1208,-0.610,0.300
1209,-0.605,0.290
1210,-0.585,0.240
1211,-0.575,0.255
1212,-0.530,0.245
1213,-0.510,0.235
1214,-0.480,0.225
1215,-0.495,0.225
1216,-0.520,0.215
1217,-0.525,0.200
1218,-0.480,0.190
1219,-0.460,0.145
1220,-0.505,0.085
1221,-0.510,0.035
1222,-0.500,0.000
1223,-0.555,0.015
1224,-0.670,0.040
1225,-0.705,0.060
1226,-0.605,0.060
1227,-0.465,0.065
1228,-0.390,0.055
1229,-0.460,0.080
1230,-0.620,0.095
1231,-0.750,0.100
1232,-0.765,0.120
1233,-0.630,0.110
1234,-0.485,0.130
1235,-0.455,0.125
1236,-0.495,0.175
1237,-0.560,0.185
1238,-0.595,0.170
1239,-0.610,0.155
1240,-0.640,0.135
1241,-0.665,0.150
1242,-0.610,0.155
1243,-0.520,0.170
1244,-0.420,0.170
1245,-0.410,0.165
1246,-0.470,0.190
1247,-0.585,0.220
1248,-0.655,0.220
1249,-0.665,0.240
1250,-0.635,0.220
1251,-0.585,0.190
1252,-0.585,0.215
1253,-0.615,0.255
1254,-0.555,0.295
1255,-0.465,0.325
1256,-0.415,0.320
1257,-0.375,0.290
1258,-0.305,0.290
1259,-0.205,0.285
1260,-0.110,0.280
1261,0.035,0.250
1262,0.270,0.205
1263,0.470,0.160
1264,0.615,0.125
1265,0.920,0.115
1266,1.290,0.065
1267,1.465,-0.010
1268,1.395,-0.080
1269,1.210,-0.135
1270,1.125,-0.200
1271,1.170,-0.260
1272,1.315,-0.320
1273,1.435,-0.380
1274,1.320,-0.470
1275,0.995,-0.500
1276,0.675,-0.495
1277,0.440,-0.465
1278,0.200,-0.435
1279,-0.070,-0.400
1280,-0.320,-0.375
1281,-0.430,-0.330
1282,-0.540,-0.275
1283,-0.690,-0.185
1284,-0.745,-0.095
1285,-0.650,-0.030
1286,-0.620,-0.010
1287,-0.710,-0.010
1288,-0.825,0.020
1289,-0.840,0.035
1290,-0.795,0.060
1291,-0.810,0.080
1292,-0.875,0.075
1293,-0.935,0.100
1294,-0.940,0.115
1295,-0.890,0.125
1296,-0.800,0.175
1297,-0.770,0.240
1298,-0.850,0.275
1299,-1.035,0.300
1300,-1.180,0.305
1301,-1.180,0.285
1302,-1.090,0.275
1303,-1.030,0.230
1304,-1.050,0.200
1305,-1.080,0.185
1306,-1.045,0.195
1307,-0.985,0.220
1308,-0.930,0.250
1309,-0.935,0.275
1310,-0.965,0.290
1311,-1.025,0.305
1312,-1.085,0.325
1313,-1.105,0.355
1314,-1.085,0.380
1315,-1.055,0.380
1316,-1.040,0.375
1317,-0.985,0.365
1318,-0.950,0.355
1319,-0.930,0.365
1320,-0.935,0.395
1321,-0.935,0.435
1322,-0.890,0.430
1323,-0.860,0.410
1324,-0.905,0.390
1325,-0.965,0.400
1326,-0.975,0.415
1327,-0.895,0.425
1328,-0.820,0.420
1329,-0.840,0.395
1330,-0.945,0.390
1331,-1.040,0.380
1332,-1.005,0.380
1333,-0.915,0.340
1334,-0.825,0.290
1335,-0.785,0.260
1336,-0.810,0.260
1337,-0.875,0.295
1338,-0.930,0.335
1339,-0.895,0.350
1340,-0.810,0.320
1341,-0.705,0.290
1342,-0.640,0.255
1343,-0.645,0.245
1344,-0.730,0.250
1345,-0.795,0.265
1346,-0.790,0.275
1347,-0.720,0.285
1348,-0.650,0.295
1349,-0.570,0.310
1350,-0.480,0.335
1351,-0.395,0.360
1352,-0.355,0.340
1353,-0.425,0.280
1354,-0.545,0.240
1355,-0.620,0.250
1356,-0.650,0.275
1357,-0.690,0.320
1358,-0.725,0.360
1359,-0.720,0.415
1360,-0.680,0.460
1361,-0.635,0.480
1362,-0.640,0.485
1363,-0.645,0.450
1364,-0.590,0.400
1365,-0.495,0.345
1366,-0.445,0.320
1367,-0.475,0.305
1368,-0.525,0.315
1369,-0.540,0.325
1370,-0.535,0.330
1371,-0.540,0.320
1372,-0.545,0.325
1373,-0.545,0.355
1374,-0.510,0.340
1375,-0.475,0.315
1376,-0.415,0.275
1377,-0.340,0.245
1378,-0.325,0.220
1379,-0.335,0.215
1380,-0.380,0.235
1381,-0.445,0.290
1382,-0.520,0.310
1383,-0.530,0.320
1384,-0.445,0.300
1385,-0.405,0.265
1386,-0.520,0.205
1387,-0.635,0.115
1388,-0.640,0.015
1389,-0.540,-0.050
1390,-0.455,-0.095
1391,-0.395,-0.070
1392,-0.380,-0.040
1393,-0.410,0.010
1394,-0.465,0.050
1395,-0.485,0.070
1396,-0.470,0.080
1397,-0.475,0.100
1398,-0.485,0.120
1399,-0.455,0.115
1400,-0.390,0.085
1401,-0.305,0.045
1402,-0.245,0.015
1403,-0.175,0.040
1404,-0.220,0.075
1405,-0.390,0.140
1406,-0.565,0.175
1407,-0.660,0.200
1408,-0.675,0.205
1409,-0.680,0.250
1410,-0.670,0.240
1411,-0.575,0.260
1412,-0.490,0.230
1413,-0.445,0.250
1414,-0.455,0.295
1415,-0.495,0.335
1416,-0.500,0.365
1417,-0.525,0.330
1418,-0.545,0.270
1419,-0.560,0.230
1420,-0.530,0.200
1421,-0.440,0.190
1422,-0.400,0.210
1423,-0.430,0.250
1424,-0.430,0.285
1425,-0.325,0.310
1426,-0.210,0.300
1427,-0.220,0.270
1428,-0.325,0.260
1429,-0.420,0.235
1430,-0.480,0.220
1431,-0.465,0.215
1432,-0.380,0.225
1433,-0.300,0.250
1434,-0.310,0.260
1435,-0.380,0.270
1436,-0.445,0.255
1437,-0.485,0.230
1438,-0.500,0.210
1439,-0.440,0.205
1440,-0.355,0.185
1441,-0.350,0.150
1442,-0.425,0.085
1443,-0.530,-0.005
1444,-0.550,-0.055
1445,-0.470,-0.055
1446,-0.375,-0.035
1447,-0.375,0.000
1448,-0.440,0.055
1449,-0.485,0.095
1450,-0.450,0.125
1451,-0.435,0.135
1452,-0.410,0.130
1453,-0.370,0.125
1454,-0.250,0.095
1455,-0.130,0.080
1456,-0.085,0.080
1457,-0.210,0.080
1458,-0.390,0.105
1459,-0.525,0.120
1460,-0.520,0.105
1461,-0.410,0.090
1462,-0.275,0.130
1463,-0.220,0.200
1464,-0.155,0.310
1465,-0.065,0.390
1466,-0.040,0.395
1467,-0.170,0.340
1468,-0.360,0.265
1469,-0.325,0.205
1470,-0.095,0.180
1471,0.145,0.160
1472,0.240,0.175
1473,0.205,0.205
1474,0.195,0.205
1475,0.295,0.215
1476,0.490,0.165
1477,0.790,0.120
1478,1.110,0.035
1479,1.355,-0.035
1480,1.405,-0.100
1481,1.355,-0.095
1482,1.360,-0.085
1483,1.465,-0.105
1484,1.560,-0.210
1485,1.550,-0.320
1486,1.365,-0.410
1487,1.045,-0.380
1488,0.860,-0.325
1489,0.795,-0.300
1490,0.645,-0.280
1491,0.350,-0.245
1492,0.060,-0.210
1493,-0.130,-0.150
1494,-0.215,-0.065
1495,-0.295,0.010
1496,-0.415,0.050
1497,-0.515,0.065
1498,-0.555,0.090
1499,-0.510,0.110
1500,-0.450,0.145
1501,-0.445,0.220
1502,-0.530,0.310
1503,-0.600,0.380
1504,-0.550,0.415
1505,-0.425,0.390
1506,-0.365,0.325
1507,-0.445,0.240
1508,-0.540,0.210
1509,-0.560,0.225
1510,-0.550,0.280
1511,-0.525,0.320
1512,-0.510,0.315
1513,-0.540,0.280
1514,-0.550,0.230
1515,-0.565,0.140
1516,-0.610,0.035
1517,-0.610,-0.085
1518,-0.545,-0.165
1519,-0.440,-0.220
1520,-0.455,-0.240
1521,-0.580,-0.195
1522,-0.685,-0.125
1523,-0.660,-0.030
1524,-0.595,0.010
1525,-0.585,-0.020
1526,-0.610,-0.110
1527,-0.575,-0.185
1528,-0.545,-0.215
1529,-0.535,-0.195
1530,-0.495,-0.145
1531,-0.415,-0.115
1532,-0.390,-0.115
1533,-0.400,-0.115
1534,-0.430,-0.110
1535,-0.420,-0.080
1536,-0.385,-0.040
1537,-0.300,0.005
1538,-0.210,-0.010
1539,-0.255,-0.025
1540,-0.360,-0.040
1541,-0.365,0.005
1542,-0.290,0.090
1543,-0.285,0.135
1544,-0.330,0.135
1545,-0.310,0.075
1546,-0.200,0.010
1547,-0.105,0.010
1548,-0.140,0.065
1549,-0.230,0.140
1550,-0.250,0.225
1551,-0.215,0.230
1552,-0.170,0.140
1553,-0.175,0.060
1554,-0.145,0.020
1555,-0.055,0.025
1556,0.010,0.005
1557,0.020,0.015
1558,-0.020,0.045
1559,-0.020,0.100
1560,-0.040,0.165
1561,-0.095,0.200
1562,-0.170,0.215
1563,-0.165,0.195
1564,-0.135,0.195
1565,-0.145,0.200
1566,-0.155,0.195
1567,-0.125,0.165
1568,-0.060,0.135
1569,-0.005,0.135
1570,-0.040,0.185
1571,-0.090,0.210
1572,-0.140,0.205
1573,-0.145,0.170
1574,-0.175,0.125
1575,-0.185,0.085
1576,-0.155,0.070
1577,-0.135,0.050
1578,-0.145,0.030
1579,-0.120,-0.010
1580,-0.070,-0.050
1581,-0.025,-0.065
1582,-0.060,-0.080
1583,-0.150,-0.080
1584,-0.225,-0.090
1585,-0.260,-0.120
1586,-0.210,-0.170
1587,-0.185,-0.215
1588,-0.160,-0.250
1589,-0.200,-0.225
1590,-0.240,-0.175
1591,-0.235,-0.110
1592,-0.165,-0.060
1593,-0.120,0.010
1594,-0.105,0.055
1595,-0.120,0.060
1596,-0.215,0.040
1597,-0.275,-0.005
1598,-0.240,-0.080
1599,-0.135,-0.100
1600,-0.115,-0.105
1601,-0.145,-0.060
1602,-0.165,-0.005
1603,-0.140,0.020
1604,-0.100,0.010
1605,-0.070,-0.010
1606,-0.120,-0.015
1607,-0.220,0.000
1608,-0.245,0.050
1609,-0.150,0.100
1610,-0.105,0.170
1611,-0.130,0.220
1612,-0.100,0.270
1613,-0.030,0.275
1614,0.045,0.220
1615,0.095,0.115
1616,0.120,-0.010
1617,0.100,-0.090
1618,-0.050,-0.110
1619,-0.265,-0.035
1620,-0.330,0.030
1621,-0.240,0.010
1622,-0.170,-0.035
1623,-0.165,-0.100
1624,-0.145,-0.115
1625,-0.080,-0.085
1626,-0.035,-0.055
1627,-0.035,-0.015
1628,-0.075,-0.010
1629,-0.150,-0.015
1630,-0.190,-0.020
1631,-0.140,-0.005
1632,-0.080,0.010
1633,-0.070,-0.015
1634,-0.100,-0.060
1635,-0.100,-0.105
1636,-0.060,-0.140
1637,-0.005,-0.160
1638,-0.020,-0.170
1639,-0.060,-0.190
1640,-0.080,-0.195
1641,-0.075,-0.170
1642,-0.065,-0.120
1643,-0.010,-0.050
1644,0.080,-0.020
1645,0.175,-0.065
1646,0.160,-0.160
1647,0.030,-0.240
1648,-0.055,-0.295
1649,-0.030,-0.285
1650,0.050,-0.230
1651,0.120,-0.195
1652,0.040,-0.155
1653,-0.115,-0.120
1654,-0.145,-0.085
1655,-0.070,-0.040
1656,0.015,-0.025
1657,0.085,0.000
1658,0.075,0.030
1659,0.035,0.075
1660,0.040,0.130
1661,0.085,0.155
1662,0.125,0.155
1663,0.130,0.130
1664,0.115,0.125
1665,0.035,0.150
1666,0.005,0.145
1667,0.025,0.110
1668,0.180,0.010
1669,0.400,-0.055
1670,0.415,-0.095
1671,0.200,-0.070
1672,0.005,-0.040
1673,-0.050,-0.005
1674,0.060,0.025
1675,0.210,0.045
1676,0.275,0.035
1677,0.215,0.000
1678,0.060,-0.035
1679,-0.090,-0.075
1680,-0.085,-0.115
1681,0.020,-0.135
1682,0.100,-0.110
1683,0.145,-0.075
1684,0.125,-0.045
1685,0.030,0.000
1686,0.000,0.020
1687,-0.025,0.000
1688,-0.015,-0.025
1689,-0.020,-0.065
1690,0.000,-0.100
1691,0.040,-0.135
1692,0.025,-0.175
1693,0.015,-0.225
1694,0.000,-0.285
1695,-0.005,-0.265
1696,0.005,-0.230
1697,0.065,-0.170
1698,0.200,-0.145
1699,0.255,-0.165
1700,0.140,-0.255
1701,-0.025,-0.290
1702,-0.025,-0.315
1703,0.215,-0.295
1704,0.505,-0.265
1705,0.590,-0.245
1706,0.455,-0.240
1707,0.285,-0.205
1708,0.265,-0.150
1709,0.355,-0.075
1710,0.545,-0.055
1711,0.765,-0.050
1712,1.060,-0.105
1713,1.395,-0.155
1714,1.645,-0.200
1715,1.840,-0.270
1716,1.925,-0.345
1717,1.965,-0.400
1718,1.965,-0.475
1719,1.900,-0.535
1720,1.805,-0.555
1721,1.750,-0.550
1722,1.665,-0.560
1723,1.540,-0.560
1724,1.385,-0.550
1725,1.185,-0.570
1726,0.960,-0.545
1727,0.625,-0.520
1728,0.280,-0.460
1729,0.040,-0.400
1730,-0.055,-0.330
1731,-0.080,-0.240
1732,-0.080,-0.185
1733,-0.100,-0.140
1734,-0.115,-0.090
1735,-0.115,-0.060
1736,-0.150,-0.050
1737,-0.155,-0.080
1738,-0.220,-0.095
1739,-0.235,-0.085
1740,-0.195,-0.070
1741,-0.125,-0.055
1742,-0.100,-0.070
1743,-0.110,-0.085
1744,-0.130,-0.060
1745,-0.175,-0.020
1746,-0.220,0.060
1747,-0.250,0.095
1748,-0.190,0.025
1749,-0.060,-0.145
1750,0.050,-0.305
1751,0.025,-0.465
1752,-0.110,-0.500
1753,-0.270,-0.470
1754,-0.315,-0.410
1755,-0.290,-0.375
1756,-0.230,-0.315
1757,-0.190,-0.255
1758,-0.120,-0.240
1759,-0.070,-0.270
1760,-0.050,-0.335
1761,-0.105,-0.390
1762,-0.200,-0.375
1763,-0.330,-0.285
1764,-0.375,-0.210
1765,-0.280,-0.150
1766,-0.140,-0.145
1767,-0.065,-0.110
1768,-0.060,-0.100
1769,-0.015,-0.070
1770,0.055,-0.025
1771,0.010,0.005
1772,-0.165,0.025
1773,-0.260,0.050
1774,-0.225,0.055
1775,-0.120,0.075
1776,-0.050,0.105
1777,0.040,0.100
1778,0.085,0.100
1779,0.125,0.125
1780,0.150,0.135
1781,0.195,0.160
1782,0.240,0.165
1783,0.140,0.140
1784,-0.010,0.115
1785,-0.130,0.100
1786,-0.090,0.110
1787,0.040,0.155
1788,0.140,0.215
1789,0.140,0.300
1790,0.085,0.330
1791,0.125,0.340
1792,0.240,0.330
1793,0.315,0.295
1794,0.250,0.285
1795,0.115,0.245
1796,-0.055,0.185
1797,-0.090,0.115
1798,0.015,0.015
1799,0.130,-0.090
1800,0.245,-0.135
1801,0.365,-0.170
1802,0.365,-0.190
1803,0.230,-0.220
1804,0.115,-0.225
1805,0.080,-0.225
1806,0.210,-0.210
1807,0.370,-0.205
1808,0.425,-0.230
1809,0.400,-0.285
1810,0.430,-0.330
1811,0.505,-0.345
1812,0.455,-0.345
1813,0.265,-0.325
1814,0.120,-0.330
1815,0.085,-0.335
1816,0.090,-0.325
1817,0.080,-0.265
1818,0.055,-0.205
1819,0.030,-0.145
1820,0.060,-0.155
1821,0.095,-0.200
1822,0.075,-0.250
1823,0.075,-0.275
1824,0.165,-0.280
1825,0.305,-0.240
1826,0.365,-0.215
1827,0.310,-0.160
1828,0.185,-0.105
1829,0.140,-0.015
1830,0.165,0.075
1831,0.175,0.120
1832,0.060,0.095
1833,-0.040,0.015
1834,0.030,-0.100
1835,0.195,-0.185
1836,0.285,-0.225
1837,0.265,-0.195
1838,0.210,-0.160
1839,0.215,-0.115
1840,0.235,-0.090
1841,0.265,-0.060
1842,0.280,-0.030
1843,0.275,-0.030
1844,0.265,-0.060
1845,0.255,-0.085
1846,0.240,-0.095
1847,0.225,-0.090
1848,0.290,-0.080
1849,0.460,-0.070
1850,0.615,-0.070
1851,0.665,-0.090
1852,0.580,-0.070
1853,0.370,0.010
1854,0.125,0.115
1855,-0.020,0.215
1856,-0.005,0.270
1857,0.025,0.275
1858,0.060,0.235
1859,0.115,0.160
1860,0.175,0.035
1861,0.300,-0.090
1862,0.385,-0.265
1863,0.405,-0.410
1864,0.460,-0.490
1865,0.580,-0.540
1866,0.725,-0.575
1867,0.880,-0.630
1868,0.910,-0.705
1869,0.855,-0.780
1870,0.855,-0.825
1871,1.065,-0.835
1872,1.360,-0.830
1873,1.575,-0.815
1874,1.620,-0.780
1875,1.445,-0.735
1876,1.220,-0.665
1877,1.170,-0.630
1878,1.250,-0.625
1879,1.240,-0.630
1880,0.960,-0.620
1881,0.520,-0.620
1882,0.260,-0.560
1883,0.250,-0.480
1884,0.290,-0.390
1885,0.200,-0.310
1886,0.000,-0.230
1887,-0.115,-0.175
1888,-0.075,-0.150
1889,-0.040,-0.130
1890,-0.015,-0.100
1891,-0.020,-0.105
1892,-0.005,-0.105
1893,0.030,-0.120
1894,0.045,-0.100
1895,-0.005,-0.070
1896,-0.085,-0.040
1897,-0.090,-0.035
1898,-0.065,-0.035
1899,-0.025,-0.040
1900,-0.020,-0.035
1901,-0.015,-0.020
1902,0.025,0.000
1903,0.090,-0.010
1904,0.135,-0.025
1905,0.125,-0.050
1906,0.055,-0.065
1907,-0.015,-0.065
1908,-0.015,-0.035
1909,0.005,-0.050
1910,0.035,-0.085
1911,0.060,-0.125
1912,0.115,-0.165
1913,0.230,-0.185
1914,0.325,-0.210
1915,0.370,-0.225
1916,0.350,-0.225
1917,0.365,-0.240
1918,0.445,-0.275
1919,0.610,-0.270
1920,0.720,-0.275
1921,0.625,-0.270
1922,0.440,-0.260
1923,0.580,-0.265
1924,0.985,-0.285
1925,0.955,-0.300
1926,0.315,-0.280
1927,-0.325,-0.210
1928,-0.330,-0.100
1929,0.040,-0.055
1930,0.360,-0.010
1931,0.485,0.055
1932,0.495,0.100
1933,0.420,0.105
1934,0.390,0.050
1935,0.420,-0.020
1936,0.505,-0.030
1937,0.560,0.020
1938,0.515,0.110
1939,0.460,0.170
1940,0.450,0.150
1941,0.435,0.080
1942,0.410,-0.010
1943,0.415,-0.045
1944,0.405,-0.060
1945,0.385,-0.030
1946,0.390,-0.025
1947,0.370,-0.030
1948,0.350,-0.010
1949,0.320,0.010
1950,0.310,0.035
1951,0.305,0.025
1952,0.245,0.025
1953,0.170,0.000
1954,0.185,-0.005
1955,0.230,-0.015
1956,0.240,-0.005
1957,0.250,-0.005
1958,0.225,-0.010
1959,0.190,-0.045
1960,0.165,-0.070
1961,0.180,-0.055
1962,0.210,-0.045
1963,0.215,-0.050
1964,0.210,-0.090
1965,0.205,-0.125
1966,0.220,-0.160
1967,0.270,-0.180
1968,0.330,-0.200
1969,0.435,-0.240
1970,0.485,-0.285
1971,0.455,-0.310
1972,0.360,-0.310
1973,0.320,-0.300
1974,0.360,-0.285
1975,0.385,-0.285
1976,0.295,-0.290
1977,0.265,-0.290
1978,0.330,-0.310
1979,0.400,-0.305
1980,0.320,-0.295
1981,0.085,-0.270
1982,-0.100,-0.220
1983,-0.130,-0.140
1984,-0.035,-0.125
1985,0.085,-0.100
1986,0.160,-0.085
1987,0.185,-0.070
1988,0.165,-0.075
1989,0.120,-0.065
1990,0.125,-0.070
1991,0.200,-0.050
1992,0.280,-0.020
1993,0.275,-0.005
1994,0.235,0.000
1995,0.195,-0.015
1996,0.185,-0.005
1997,0.205,0.030
1998,0.285,0.045
1999,0.345,0.050
2000,0.360,0.070
2001,0.360,0.095
2002,0.430,0.125
2003,0.545,0.155
2004,0.630,0.165
2005,0.550,0.145
2006,0.300,0.140
2007,0.080,0.115
2008,0.025,0.070
2009,0.080,0.030
2010,0.140,0.025
2011,0.190,0.060
2012,0.165,0.050
2013,0.105,0.055
2014,0.100,0.065
2015,0.200,0.090
2016,0.385,0.125
2017,0.515,0.070
2018,0.530,-0.010
2019,0.385,-0.110
2020,0.105,-0.135
2021,-0.150,-0.070
2022,-0.235,0.040
2023,-0.100,0.100
2024,0.125,0.085
2025,0.260,0.005
2026,0.320,-0.090
2027,0.315,-0.175
2028,0.325,-0.210
2029,0.335,-0.210
2030,0.300,-0.225
2031,0.230,-0.260
2032,0.110,-0.305
2033,0.040,-0.320
2034,0.015,-0.320
2035,0.125,-0.315
2036,0.295,-0.315
2037,0.500,-0.305
2038,0.630,-0.260
2039,0.615,-0.205
2040,0.460,-0.115
2041,0.135,-0.065
2042,-0.125,-0.035
2043,-0.130,-0.030
2044,0.000,-0.035
2045,0.065,-0.030
2046,0.075,-0.040
2047,0.075,-0.055
2048,0.135,-0.135
2049,0.175,-0.190
2050,0.150,-0.220
2051,0.130,-0.205
2052,0.190,-0.160
2053,0.325,-0.150
2054,0.445,-0.145
2055,0.420,-0.145
2056,0.205,-0.120
2057,-0.070,-0.080
2058,-0.200,-0.035
2059,-0.115,-0.025
2060,0.040,-0.035
2061,0.160,-0.045
2062,0.200,-0.045
2063,0.245,-0.060
2064,0.385,-0.075
2065,0.625,-0.105
2066,0.840,-0.125
2067,0.715,-0.150
2068,0.245,-0.145
2069,-0.165,-0.090
2070,-0.270,-0.005
2071,-0.155,0.015
2072,-0.115,0.005
2073,-0.165,0.005
2074,-0.155,0.020
2075,-0.020,0.020
2076,0.190,0.000
2077,0.410,-0.070
2078,0.525,-0.105
2079,0.485,-0.180
2080,0.235,-0.185
2081,-0.080,-0.135
2082,-0.240,-0.065
2083,-0.125,0.000
2084,0.150,-0.025
2085,0.360,-0.100
2086,0.445,-0.210
2087,0.535,-0.250
2088,0.665,-0.275
2089,0.800,-0.235
2090,0.810,-0.185
2091,0.795,-0.115
2092,0.790,-0.065
2093,0.790,-0.070
2094,0.790,-0.075
2095,0.850,-0.100
2096,1.035,-0.130
2097,1.245,-0.160
2098,1.350,-0.205
2099,1.420,-0.235
2100,1.485,-0.260
2101,1.545,-0.280
2102,1.530,-0.325
2103,1.460,-0.420
2104,1.335,-0.495
2105,1.180,-0.560
2106,1.080,-0.570
2107,1.005,-0.590
2108,0.880,-0.595
2109,0.725,-0.585
2110,0.535,-0.545
2111,0.365,-0.460
2112,0.255,-0.355
2113,0.185,-0.275
2114,0.075,-0.195
2115,0.000,-0.150
2116,0.010,-0.075
2117,0.035,-0.010
2118,-0.025,0.040
2119,-0.065,0.055
2120,-0.055,0.055
2121,0.005,0.045
2122,0.010,0.060
2123,-0.130,0.075
2124,-0.250,0.080
2125,-0.230,0.065
2126,-0.165,0.005
2127,-0.175,-0.045
2128,-0.310,-0.065
2129,-0.440,-0.010
2130,-0.445,0.015
2131,-0.380,-0.005
2132,-0.335,-0.050
2133,-0.330,-0.120
2134,-0.330,-0.145
2135,-0.280,-0.135
2136,-0.195,-0.130
2137,-0.115,-0.115
2138,-0.060,-0.135
2139,-0.075,-0.165
2140,-0.140,-0.170
2141,-0.200,-0.160
2142,-0.185,-0.150
2143,-0.070,-0.185
2144,-0.040,-0.210
2145,-0.115,-0.205
2146,-0.230,-0.190
2147,-0.285,-0.185
2148,-0.220,-0.165
2149,-0.110,-0.175
2150,-0.010,-0.175
2151,0.055,-0.185
2152,0.035,-0.180
2153,-0.075,-0.150
2154,-0.190,-0.120
2155,-0.235,-0.100
2156,-0.190,-0.085
2157,-0.125,-0.070
2158,-0.130,-0.025
2159,-0.160,0.100
2160,-0.130,0.245
2161,-0.020,0.330
2162,-0.045,0.320
2163,-0.270,0.195
2164,-0.545,0.085
2165,-0.580,-0.015
2166,-0.440,-0.040
2167,-0.295,-0.050
2168,-0.185,-0.085
2169,-0.110,-0.095
2170,-0.105,-0.095
2171,-0.150,-0.060
2172,-0.205,-0.005
2173,-0.225,0.040
2174,-0.195,0.055
2175,-0.130,0.070
2176,-0.085,0.100
2177,-0.035,0.145
2178,-0.010,0.175
2179,-0.015,0.170
2180,-0.035,0.125
2181,-0.035,0.100
2182,0.030,0.095
2183,0.075,0.100
2184,0.055,0.085
2185,0.035,0.095
2186,0.055,0.085
2187,0.065,0.060
2188,0.050,0.055
2189,0.025,0.070
2190,0.000,0.075
2191,0.045,0.080
2192,0.115,0.045
2193,0.175,0.015
2194,0.220,-0.010
2195,0.280,0.000
2196,0.295,0.000
2197,0.180,-0.010
2198,0.035,-0.010
2199,-0.070,0.000
2200,-0.045,0.030
2201,0.150,0.080
2202,0.440,0.140
2203,0.565,0.160
2204,0.395,0.110
2205,0.090,0.030
2206,-0.075,-0.060
2207,-0.130,-0.145
2208,-0.115,-0.180
2209,-0.170,-0.165
2210,-0.160,-0.120
2211,-0.115,-0.065
2212,-0.020,0.030
2213,0.075,0.100
2214,0.140,0.115
2215,0.165,0.070
2216,0.110,0.000
2217,-0.025,-0.085
2218,-0.140,-0.110
2219,-0.145,-0.075
2220,-0.080,-0.040
2221,0.000,-0.025
2222,0.075,-0.030
2223,0.140,-0.040
2224,0.240,-0.035
2225,0.380,-0.020
2226,0.370,-0.030
2227,0.190,-0.030
2228,-0.080,-0.045
2229,-0.135,-0.065
2230,0.130,-0.070
2231,0.455,-0.040
2232,0.590,-0.025
2233,0.405,-0.005
2234,0.105,-0.010
2235,-0.075,-0.005
2236,-0.045,0.065
2237,0.080,0.135
2238,0.185,0.200
2239,0.180,0.250
2240,0.060,0.275
2241,-0.065,0.280
2242,-0.100,0.330
2243,-0.140,0.365
2244,-0.315,0.375
2245,-0.575,0.350
2246,-0.790,0.310
2247,-0.895,0.205
2248,-0.930,0.115
2249,-0.990,0.045
2250,-1.065,-0.015
2251,-1.115,-0.105
2252,-1.150,-0.200
2253,-1.055,-0.295
2254,-0.855,-0.350
2255,-0.625,-0.395
2256,-0.430,-0.470
2257,-0.355,-0.495
2258,-0.460,-0.520
2259,-0.605,-0.505
2260,-0.705,-0.455
2261,-0.655,-0.390
2262,-0.460,-0.325
2263,-0.240,-0.350
2264,-0.085,-0.440
2265,0.105,-0.565
2266,0.320,-0.605
2267,0.495,-0.615
2268,0.445,-0.565
2269,0.280,-0.500
2270,0.180,-0.470
2271,0.200,-0.465
2272,0.180,-0.455
2273,0.065,-0.415
2274,-0.090,-0.360
2275,-0.275,-0.265
2276,-0.405,-0.195
2277,-0.400,-0.125
2278,-0.315,-0.080
2279,-0.200,-0.020
2280,-0.070,0.040
2281,0.040,0.090
2282,0.100,0.115
2283,0.085,0.150
2284,0.030,0.200
2285,0.040,0.215
2286,0.120,0.175
2287,0.100,0.090
2288,-0.005,-0.020
2289,-0.115,-0.120
2290,-0.160,-0.145
2291,-0.155,-0.105
2292,-0.115,-0.070
2293,0.000,-0.050
2294,0.165,-0.055
2295,0.250,-0.070
2296,0.225,-0.070
2297,0.135,-0.045
2298,0.065,-0.030
2299,0.035,-0.020
2300,0.050,-0.005
2301,0.160,-0.005
2302,0.315,0.010
2303,0.455,0.020
2304,0.545,0.020
2305,0.615,0.015
2306,0.575,0.005
2307,0.485,0.015
2308,0.390,0.040
2309,0.380,0.065
2310,0.435,0.095
2311,0.530,0.095
2312,0.605,0.080
2313,0.645,0.060
2314,0.635,0.035
2315,0.595,0.035
2316,0.540,0.050
2317,0.560,0.065
2318,0.705,0.055
2319,0.940,0.025
2320,1.070,0.015
2321,1.085,0.045
2322,1.005,0.075
2323,0.895,0.105
2324,0.780,0.150
2325,0.615,0.160
2326,0.540,0.140
2327,0.540,0.105
2328,0.640,0.080
2329,0.710,0.020
2330,0.670,-0.015
2331,0.585,-0.040
2332,0.535,-0.025
2333,0.520,-0.025
2334,0.535,0.005
2335,0.555,0.035
2336,0.565,0.040
2337,0.550,0.025
2338,0.470,0.025
2339,0.295,0.030
2340,0.140,0.070
2341,0.160,0.060
2342,0.230,0.035
2343,0.280,0.005
2344,0.280,-0.010
2345,0.325,-0.005
2346,0.340,0.010
2347,0.300,0.015
2348,0.175,-0.010
2349,0.080,-0.020
2350,0.050,-0.055
2351,0.040,-0.050
2352,0.150,-0.055
2353,0.340,-0.055
2354,0.440,-0.055
2355,0.315,-0.045
2356,0.085,0.000
2357,-0.130,0.080
2358,-0.190,0.155
2359,-0.200,0.205
2360,-0.255,0.270
2361,-0.345,0.305
2362,-0.440,0.345
2363,-0.565,0.400
2364,-0.740,0.440
2365,-0.965,0.435
2366,-1.190,0.400
2367,-1.370,0.355
2368,-1.430,0.295
2369,-1.400,0.250
2370,-1.325,0.210
2371,-1.155,0.175
2372,-0.875,0.120
2373,-0.580,0.050
2374,-0.400,-0.020
2375,-0.280,-0.095
2376,-0.140,-0.155
2377,-0.020,-0.210
2378,0.040,-0.255
2379,0.040,-0.290
2380,0.005,-0.285
2381,-0.065,-0.305
2382,-0.140,-0.315
2383,-0.185,-0.340
2384,-0.235,-0.365
2385,-0.315,-0.390
2386,-0.365,-0.370
2387,-0.310,-0.310
2388,-0.245,-0.275
2389,-0.200,-0.255
2390,-0.170,-0.240
2391,-0.110,-0.235
2392,-0.035,-0.215
2393,0.010,-0.185
2394,-0.025,-0.145
2395,-0.115,-0.140
2396,-0.170,-0.130
2397,-0.155,-0.115
2398,-0.160,-0.105
2399,-0.230,-0.085
2400,-0.335,-0.065
2401,-0.340,-0.040
2402,-0.275,-0.025
2403,-0.220,-0.020
2404,-0.270,-0.010
2405,-0.365,0.005
2406,-0.380,0.010
2407,-0.315,0.020
2408,-0.200,0.000
2409,-0.135,-0.045
2410,-0.140,-0.065
2411,-0.165,-0.065
2412,-0.175,-0.065
2413,-0.105,-0.060
2414,-0.050,-0.070
2415,-0.045,-0.080
2416,-0.115,-0.090
2417,-0.135,-0.075
2418,-0.025,-0.060
2419,0.205,-0.060
2420,0.395,-0.100
2421,0.405,-0.110
2422,0.235,-0.130
2423,0.025,-0.105
2424,-0.125,-0.065
2425,-0.180,-0.050
2426,-0.205,-0.040
2427,-0.160,-0.040
2428,-0.105,-0.045
2429,-0.040,-0.030
2430,0.025,-0.045
2431,0.075,-0.045
2432,0.180,-0.070
2433,0.295,-0.070
2434,0.330,-0.085
2435,0.270,-0.080
2436,0.220,-0.080
2437,0.200,-0.065
2438,0.255,-0.080
2439,0.280,-0.085
2440,0.300,-0.070
2441,0.345,-0.060
2442,0.390,-0.015
2443,0.410,0.000
2444,0.395,-0.005
2445,0.450,-0.005
2446,0.535,0.015
2447,0.605,0.070
2448,0.575,0.100
2449,0.490,0.125
2450,0.315,0.145
2451,0.105,0.135
2452,-0.015,0.115
2453,0.025,0.080
2454,0.195,0.080
2455,0.315,0.045
2456,0.305,0.040
2457,0.190,0.035
2458,0.110,0.050
2459,0.080,0.095
2460,0.090,0.120
2461,0.095,0.105
2462,-0.030,0.065
2463,-0.240,0.015
2464,-0.315,-0.020
2465,-0.225,-0.040
2466,-0.105,-0.070
2467,-0.040,-0.085
2468,-0.025,-0.110
2469,-0.035,-0.140
2470,-0.035,-0.135
2471,-0.015,-0.145
2472,0.005,-0.120
2473,0.015,-0.120
2474,0.015,-0.130
2475,0.030,-0.125
2476,0.070,-0.120
2477,0.115,-0.100
2478,0.135,-0.080
2479,0.090,-0.085
2480,0.035,-0.105
2481,-0.020,-0.115
2482,-0.040,-0.080
2483,-0.050,-0.070
2484,-0.035,-0.045
2485,-0.020,-0.030
2486,-0.080,-0.010
2487,-0.215,-0.010
2488,-0.335,0.005
2489,-0.310,0.040
2490,-0.155,0.115
2491,0.020,0.135
2492,0.095,0.130
2493,0.120,0.085
2494,0.115,0.070
2495,0.075,0.090
2496,0.020,0.115
2497,-0.035,0.125
2498,-0.125,0.065
2499,-0.195,0.005
2500,-0.195,-0.080
2501,-0.065,-0.120
2502,0.135,-0.120
2503,0.295,-0.100
2504,0.290,-0.055
2505,0.205,-0.005
2506,0.175,0.055
2507,0.220,0.105
2508,0.280,0.135
2509,0.390,0.155
2510,0.530,0.170
2511,0.645,0.185
2512,0.660,0.190
2513,0.660,0.175
2514,0.705,0.175
2515,0.810,0.165
2516,0.890,0.080
2517,1.000,-0.095
2518,1.095,-0.320
2519,1.100,-0.535
2520,0.950,-0.680
2521,0.705,-0.760
2522,0.545,-0.785
2523,0.530,-0.770
2524,0.510,-0.715
2525,0.420,-0.630
2526,0.330,-0.560
2527,0.300,-0.495
2528,0.275,-0.455
2529,0.125,-0.405
2530,-0.175,-0.335
2531,-0.455,-0.245
2532,-0.505,-0.200
2533,-0.270,-0.175
2534,0.065,-0.190
2535,0.205,-0.205
2536,0.020,-0.210
2537,-0.360,-0.170
2538,-0.660,-0.140
2539,-0.750,-0.110
2540,-0.680,-0.070
2541,-0.550,-0.085
2542,-0.425,-0.090
2543,-0.360,-0.070
2544,-0.395,-0.060
2545,-0.505,-0.065
2546,-0.625,-0.060
2547,-0.650,-0.050
2548,-0.590,-0.040
2549,-0.470,-0.035
2550,-0.385,-0.030
2551,-0.335,-0.035
2552,-0.345,-0.055
2553,-0.425,-0.070
2554,-0.505,-0.065
2555,-0.540,-0.055
2556,-0.500,-0.020
2557,-0.425,-0.010
2558,-0.400,-0.020
2559,-0.370,-0.045
2560,-0.355,-0.045
2561,-0.280,-0.055
2562,-0.155,-0.060
2563,-0.065,-0.075
2564,-0.035,-0.095
2565,-0.005,-0.135
2566,0.000,-0.135
2567,-0.065,-0.155
2568,-0.210,-0.165
2569,-0.430,-0.155
2570,-0.610,-0.145
2571,-0.675,-0.145
2572,-0.575,-0.145
2573,-0.395,-0.130
2574,-0.250,-0.105
2575,-0.295,-0.075
2576,-0.445,-0.025
2577,-0.550,0.025
2578,-0.595,0.075
2579,-0.565,0.125
2580,-0.450,0.120
2581,-0.200,0.065
2582,0.010,-0.045
2583,0.065,-0.150
2584,-0.035,-0.195
2585,-0.210,-0.185
2586,-0.310,-0.125
2587,-0.310,-0.085
2588,-0.245,-0.075
2589,-0.170,-0.075
2590,-0.095,-0.105
2591,0.005,-0.125
2592,0.040,-0.125
2593,-0.020,-0.130
2594,-0.140,-0.140
2595,-0.255,-0.145
2596,-0.265,-0.145
2597,-0.185,-0.115
2598,-0.135,-0.085
2599,-0.130,-0.075
2600,-0.145,-0.075
2601,-0.110,-0.080
2602,-0.040,-0.090
2603,0.020,-0.085
2604,0.055,-0.055
2605,0.085,-0.075
2606,0.095,-0.085
2607,0.050,-0.080
2608,0.000,-0.075
2609,-0.040,-0.050
2610,-0.005,-0.025
2611,0.110,-0.030
2612,0.175,-0.035
2613,0.150,-0.030
2614,0.075,-0.025
2615,0.040,-0.045
2616,-0.015,-0.055
2617,-0.030,-0.105
2618,-0.060,-0.120
2619,-0.100,-0.130
2620,-0.200,-0.120
2621,-0.325,-0.085
2622,-0.405,-0.070
2623,-0.365,-0.080
2624,-0.255,-0.080
2625,-0.160,-0.120
2626,-0.115,-0.145
2627,-0.065,-0.130
2628,0.015,-0.120
2629,0.085,-0.130
2630,0.075,-0.150
2631,-0.005,-0.175
2632,-0.075,-0.175
2633,-0.110,-0.160
2634,-0.090,-0.125
2635,-0.075,-0.115
2636,-0.095,-0.120
2637,-0.075,-0.140
2638,0.015,-0.130
2639,0.155,-0.110
2640,0.235,-0.080
2641,0.140,-0.025
2642,-0.040,0.030
2643,-0.180,0.095
2644,-0.105,0.145
2645,0.025,0.165
2646,0.060,0.170
2647,-0.065,0.105
2648,-0.215,0.020
2649,-0.205,-0.070
2650,-0.015,-0.080
2651,0.290,-0.090
2652,0.530,-0.055
2653,0.640,-0.075
2654,0.725,-0.180
2655,0.835,-0.255
2656,0.955,-0.315
2657,1.060,-0.365
2658,1.170,-0.400
2659,1.330,-0.495
2660,1.370,-0.585
2661,1.295,-0.655
2662,1.105,-0.665
2663,0.900,-0.610
2664,0.665,-0.525
2665,0.345,-0.440
2666,0.065,-0.390
2667,0.000,-0.370
2668,0.075,-0.300
2669,0.135,-0.225
2670,0.105,-0.165
2671,0.065,-0.140
2672,0.065,-0.105
2673,0.075,-0.090
2674,-0.025,-0.050
2675,-0.230,-0.010
2676,-0.450,0.030
2677,-0.535,0.030
2678,-0.495,-0.060
2679,-0.480,-0.120
2680,-0.565,-0.165
2681,-0.650,-0.150
2682,-0.675,-0.110
2683,-0.585,-0.095
2684,-0.520,-0.115
2685,-0.470,-0.135
2686,-0.505,-0.125
2687,-0.540,-0.095
2688,-0.530,-0.090
2689,-0.520,-0.095
2690,-0.510,-0.125
2691,-0.475,-0.135
2692,-0.460,-0.150
2693,-0.465,-0.110
2694,-0.480,-0.070
2695,-0.460,-0.050
2696,-0.410,-0.070
2697,-0.350,-0.060
2698,-0.280,-0.075
2699,-0.195,-0.055
2700,-0.185,-0.025
2701,-0.295,-0.015
2702,-0.395,-0.035
2703,-0.375,-0.090
2704,-0.295,-0.115
2705,-0.200,-0.125
2706,-0.225,-0.125
2707,-0.380,-0.140
2708,-0.555,-0.145
2709,-0.645,-0.130
2710,-0.600,-0.105
2711,-0.515,-0.065
2712,-0.450,-0.025
2713,-0.395,-0.015
2714,-0.350,0.000
2715,-0.310,-0.005
2716,-0.325,0.010
2717,-0.315,0.045
2718,-0.310,0.070
2719,-0.290,0.080
2720,-0.270,0.060
2721,-0.235,0.055
2722,-0.180,0.040
2723,-0.140,0.080
2724,-0.125,0.090
2725,-0.130,0.090
2726,-0.130,0.090
2727,-0.135,0.090
2728,-0.140,0.095
2729,-0.115,0.095
2730,-0.035,0.095
2731,0.055,0.100
2732,0.115,0.065
2733,0.085,0.035
2734,0.000,0.060
2735,-0.065,0.095
2736,-0.125,0.135
2737,-0.195,0.145
2738,-0.230,0.150
2739,-0.180,0.115
2740,-0.085,0.090
2741,0.015,0.090
2742,0.065,0.075
2743,0.060,0.055
2744,0.025,0.015
2745,0.010,0.000
2746,-0.005,-0.010
2747,0.045,-0.015
2748,0.130,-0.045
2749,0.090,-0.100
2750,-0.080,-0.120
2751,-0.280,-0.160
2752,-0.350,-0.155
2753,-0.305,-0.130
2754,-0.235,-0.110
2755,-0.250,-0.120
2756,-0.310,-0.150
2757,-0.300,-0.175
2758,-0.225,-0.200
2759,-0.125,-0.230
2760,-0.085,-0.195
2761,-0.055,-0.200
2762,-0.035,-0.200
2763,-0.040,-0.190
2764,-0.065,-0.155
2765,-0.050,-0.120
2766,-0.005,-0.075
2767,0.015,-0.055
2768,-0.025,-0.025
2769,-0.095,0.005
2770,-0.105,0.065
2771,0.010,0.110
2772,0.145,0.175
2773,0.230,0.205
2774,0.250,0.200
2775,0.210,0.160
2776,0.165,0.110
2777,0.065,0.085
2778,-0.050,0.060
2779,-0.130,0.040
2780,-0.180,0.045
2781,-0.160,0.020
2782,-0.135,0.035
2783,-0.030,0.080
2784,0.205,0.110
2785,0.490,0.100
2786,0.705,0.040
2787,0.830,-0.035
2788,0.885,-0.120
2789,0.980,-0.120
2790,1.100,-0.105
2791,1.205,-0.120
2792,1.290,-0.185
2793,1.295,-0.295
2794,1.175,-0.405
2795,1.015,-0.490
2796,0.935,-0.530
2797,0.870,-0.550
2798,0.700,-0.520
2799,0.340,-0.470
2800,-0.095,-0.375
2801,-0.340,-0.250
2802,-0.370,-0.185
2803,-0.310,-0.130
2804,-0.310,-0.125
2805,-0.370,-0.110
2806,-0.460,-0.095
2807,-0.445,-0.070
2808,-0.410,-0.065
2809,-0.370,-0.075
2810,-0.330,-0.095
2811,-0.305,-0.080
2812,-0.350,-0.010
2813,-0.480,0.065
2814,-0.555,0.125
2815,-0.510,0.115
2816,-0.360,0.020
2817,-0.275,-0.125
2818,-0.335,-0.240
2819,-0.580,-0.285
2820,-0.890,-0.290
2821,-0.960,-0.235
2822,-0.725,-0.200
2823,-0.420,-0.140
2824,-0.330,-0.070
2825,-0.460,-0.055
2826,-0.480,-0.045
2827,-0.375,-0.060
2828,-0.425,-0.110
2829,-0.650,-0.110
2830,-0.820,-0.080
2831,-0.800,-0.020
2832,-0.645,0.025
2833,-0.500,0.030
2834,-0.475,0.040
2835,-0.540,0.030
2836,-0.555,0.050
2837,-0.490,0.080
2838,-0.410,0.080
2839,-0.425,0.050
2840,-0.505,0.045
2841,-0.550,0.015
2842,-0.635,0.035
2843,-0.715,0.045
2844,-0.660,0.100
2845,-0.560,0.105
2846,-0.520,0.105
2847,-0.540,0.120
2848,-0.585,0.120
2849,-0.530,0.140
2850,-0.390,0.130
2851,-0.200,0.100
2852,-0.110,0.075
2853,-0.190,0.065
2854,-0.375,0.085
2855,-0.515,0.100
2856,-0.545,0.140
2857,-0.460,0.140
2858,-0.440,0.125
2859,-0.455,0.120
2860,-0.400,0.120
2861,-0.315,0.110
2862,-0.225,0.115
2863,-0.185,0.095
2864,-0.265,0.075
2865,-0.365,0.065
2866,-0.415,0.060
2867,-0.285,0.095
2868,-0.055,0.100
2869,0.085,0.045
2870,-0.030,-0.030
2871,-0.180,-0.135
2872,-0.180,-0.175
2873,-0.075,-0.170
2874,0.000,-0.135
2875,0.075,-0.105
2876,0.065,-0.095
2877,-0.080,-0.090
2878,-0.285,-0.065
2879,-0.435,-0.010
2880,-0.390,0.050
2881,-0.165,0.070
2882,-0.030,0.065
2883,-0.165,0.060
2884,-0.395,0.070
2885,-0.460,0.095
2886,-0.370,0.080
2887,-0.275,0.055
2888,-0.280,0.020
2889,-0.320,0.015
2890,-0.310,0.025
2891,-0.200,0.075
2892,-0.120,0.125
2893,-0.130,0.175
2894,-0.185,0.200
2895,-0.220,0.190
2896,-0.170,0.170
2897,-0.100,0.135
2898,-0.025,0.095
2899,-0.045,0.065
2900,-0.295,0.005
2901,-0.595,-0.005
2902,-0.720,0.030
2903,-0.535,0.070
2904,-0.270,0.105
2905,-0.115,0.110
2906,-0.145,0.095
2907,-0.300,0.105
2908,-0.475,0.100
2909,-0.510,0.090
2910,-0.435,0.090
2911,-0.340,0.070
2912,-0.305,0.055
2913,-0.305,0.060
2914,-0.255,0.075
2915,-0.120,0.105
2916,-0.015,0.130
2917,-0.010,0.125
2918,-0.110,0.125
2919,-0.200,0.120
2920,-0.245,0.145
2921,-0.150,0.175
2922,0.085,0.195
2923,0.285,0.170
2924,0.350,0.135
2925,0.380,0.080
2926,0.500,0.030
2927,0.700,-0.040
2928,0.870,-0.105
2929,1.010,-0.200
2930,1.155,-0.270
2931,1.280,-0.310
2932,1.315,-0.350
2933,1.340,-0.385
2934,1.330,-0.430
2935,1.230,-0.480
2936,1.065,-0.510
2937,0.950,-0.530
2938,0.900,-0.540
2939,0.800,-0.520
2940,0.495,-0.450
2941,0.005,-0.395
2942,-0.440,-0.330
2943,-0.665,-0.255
2944,-0.660,-0.175
2945,-0.575,-0.105
2946,-0.550,-0.040
2947,-0.580,-0.025
2948,-0.675,0.005
2949,-0.780,0.050
2950,-0.890,0.065
2951,-0.990,0.110
2952,-1.025,0.140
2953,-0.970,0.155
2954,-0.870,0.130
2955,-0.810,0.130
2956,-0.795,0.135
2957,-0.775,0.125
2958,-0.765,0.135
2959,-0.760,0.135
2960,-0.810,0.100
2961,-0.850,0.080
2962,-0.890,0.080
2963,-0.905,0.105
2964,-0.895,0.130
2965,-0.850,0.110
2966,-0.775,0.095
2967,-0.720,0.085
2968,-0.680,0.095
2969,-0.675,0.120
2970,-0.745,0.145
2971,-0.875,0.170
2972,-0.905,0.145
2973,-0.765,0.110
2974,-0.475,0.065
2975,-0.320,0.040
2976,-0.500,0.045
2977,-0.885,0.075
2978,-1.150,0.095
2979,-1.090,0.095
2980,-0.875,0.095
2981,-0.675,0.045
2982,-0.635,0.010
2983,-0.670,-0.030
2984,-0.705,-0.060
2985,-0.725,-0.060
2986,-0.835,-0.040
2987,-0.945,0.010
2988,-0.990,0.050
2989,-0.975,0.075
2990,-0.875,0.095
2991,-0.775,0.095
2992,-0.745,0.125
2993,-0.735,0.140
2994,-0.710,0.155
2995,-0.665,0.155
2996,-0.620,0.165
2997,-0.610,0.160
2998,-0.580,0.145
2999,-0.475,0.175
3000,-0.305,0.180
3001,-0.215,0.185
3002,-0.355,0.190
3003,-0.570,0.210
3004,-0.695,0.250
3005,-0.690,0.330
3006,-0.690,0.370
3007,-0.715,0.370
3008,-0.635,0.310
3009,-0.395,0.215
3010,-0.230,0.140
3011,-0.315,0.105
3012,-0.490,0.095
3013,-0.575,0.095
3014,-0.580,0.110
3015,-0.545,0.105
3016,-0.535,0.130
3017,-0.495,0.145
3018,-0.460,0.170
3019,-0.465,0.155
3020,-0.560,0.145
3021,-0.655,0.130
3022,-0.685,0.130
3023,-0.640,0.150
3024,-0.600,0.170
3025,-0.600,0.150
3026,-0.615,0.140
3027,-0.625,0.130
3028,-0.625,0.125
3029,-0.595,0.150
3030,-0.560,0.155
3031,-0.530,0.160
3032,-0.535,0.150
3033,-0.555,0.155
3034,-0.540,0.170
3035,-0.460,0.200
3036,-0.330,0.240
3037,-0.285,0.220
3038,-0.430,0.200
3039,-0.690,0.175
3040,-0.905,0.160
3041,-0.975,0.155
3042,-0.875,0.135
3043,-0.735,0.105
3044,-0.660,0.085
3045,-0.630,0.075
3046,-0.590,0.085
3047,-0.500,0.130
3048,-0.420,0.165
3049,-0.410,0.185
3050,-0.520,0.190
3051,-0.620,0.195
3052,-0.685,0.215
3053,-0.625,0.205
3054,-0.530,0.200
3055,-0.555,0.180
3056,-0.665,0.160
3057,-0.815,0.180
3058,-0.885,0.205
3059,-0.895,0.230
3060,-0.820,0.240
3061,-0.720,0.245
3062,-0.665,0.225
3063,-0.635,0.230
3064,-0.640,0.265
3065,-0.630,0.275
3066,-0.595,0.255
3067,-0.570,0.180
3068,-0.565,0.090
3069,-0.575,0.015
3070,-0.595,-0.005
3071,-0.600,0.010
3072,-0.585,0.030
3073,-0.575,0.040
3074,-0.570,0.045
3075,-0.585,0.035
3076,-0.575,0.060
3077,-0.555,0.090
3078,-0.520,0.110
3079,-0.500,0.110
3080,-0.490,0.115
3081,-0.450,0.100
3082,-0.415,0.120
3083,-0.435,0.155
3084,-0.580,0.165
3085,-0.715,0.140
3086,-0.765,0.105
3087,-0.735,0.080
3088,-0.690,0.075
3089,-0.690,0.160
3090,-0.715,0.200
3091,-0.630,0.230
3092,-0.530,0.245
3093,-0.485,0.220
3094,-0.590,0.180
3095,-0.780,0.180
3096,-0.860,0.150
3097,-0.835,0.125
3098,-0.750,0.090
3099,-0.670,0.065
3100,-0.635,0.090
3101,-0.630,0.125
3102,-0.630,0.145
3103,-0.660,0.140
3104,-0.675,0.130
3105,-0.630,0.115
3106,-0.575,0.140
3107,-0.575,0.175
3108,-0.580,0.195
3109,-0.520,0.205
3110,-0.410,0.200
3111,-0.305,0.205
3112,-0.265,0.230
3113,-0.260,0.320
3114,-0.140,0.390
3115,0.055,0.440
3116,0.190,0.465
3117,0.225,0.415
3118,0.145,0.325
3119,0.070,0.245
3120,0.220,0.160
3121,0.585,0.070
3122,0.995,-0.020
3123,1.280,-0.115
3124,1.395,-0.170
3125,1.330,-0.230
3126,1.140,-0.245
3127,1.030,-0.240
3128,1.050,-0.245
3129,1.140,-0.245
3130,1.225,-0.265
3131,1.255,-0.345
3132,1.090,-0.400
3133,0.805,-0.470
3134,0.545,-0.490
3135,0.325,-0.495
3136,0.130,-0.455
3137,-0.125,-0.375
3138,-0.350,-0.285
3139,-0.490,-0.195
3140,-0.570,-0.145
3141,-0.625,-0.085
3142,-0.690,-0.030
3143,-0.695,0.050
3144,-0.665,0.130
3145,-0.670,0.190
3146,-0.700,0.210
3147,-0.790,0.190
3148,-0.900,0.195
3149,-0.890,0.150
3150,-0.745,0.100
3151,-0.535,0.015
3152,-0.370,-0.030
3153,-0.280,-0.065
3154,-0.370,-0.040
3155,-0.710,0.035
3156,-1.065,0.105
3157,-1.160,0.160
3158,-1.060,0.175
3159,-0.885,0.145
3160,-0.685,0.135
3161,-0.590,0.115
3162,-0.635,0.120
3163,-0.790,0.125
3164,-0.985,0.140
3165,-1.125,0.165
3166,-1.160,0.180
3167,-1.090,0.205
3168,-0.950,0.220
3169,-0.840,0.190
3170,-0.840,0.165
3171,-0.890,0.140
3172,-0.875,0.130
3173,-0.840,0.130
3174,-0.795,0.160
3175,-0.745,0.160
3176,-0.710,0.165
3177,-0.680,0.160
3178,-0.665,0.155
3179,-0.655,0.155
3180,-0.655,0.115
3181,-0.670,0.065
3182,-0.695,0.000
3183,-0.685,-0.030
3184,-0.655,-0.025
3185,-0.630,0.035
3186,-0.620,0.075
3187,-0.595,0.095
3188,-0.625,0.125
3189,-0.675,0.145
3190,-0.675,0.190
3191,-0.540,0.220
3192,-0.350,0.230
3193,-0.225,0.190
3194,-0.395,0.135
3195,-0.850,0.135
3196,-1.145,0.155
3197,-1.005,0.210
3198,-0.685,0.250
3199,-0.495,0.260
3200,-0.490,0.250
3201,-0.520,0.240
3202,-0.540,0.255
3203,-0.505,0.250
3204,-0.460,0.270
3205,-0.400,0.255
3206,-0.375,0.230
3207,-0.385,0.210
3208,-0.425,0.215
3209,-0.405,0.220
3210,-0.375,0.245
3211,-0.365,0.255
3212,-0.420,0.265
3213,-0.450,0.280
3214,-0.450,0.325
3215,-0.440,0.375
3216,-0.435,0.385
3217,-0.410,0.395
3218,-0.390,0.320
3219,-0.390,0.205
3220,-0.425,0.115
3221,-0.415,0.050
3222,-0.325,0.010
3223,-0.235,-0.020
3224,-0.250,-0.035
3225,-0.335,-0.065
3226,-0.410,-0.065
3227,-0.345,-0.040
3228,-0.205,0.010
3229,-0.140,0.020
3230,-0.125,0.020
3231,-0.120,0.020
3232,-0.190,0.010
3233,-0.370,0.025
3234,-0.485,0.055
3235,-0.435,0.070
3236,-0.340,0.065
3237,-0.305,0.050
3238,-0.310,0.055
3239,-0.310,0.075
3240,-0.250,0.105
3241,-0.165,0.145
3242,-0.150,0.195
3243,-0.170,0.235
3244,-0.205,0.240
3245,-0.240,0.255
3246,-0.360,0.250
3247,-0.490,0.170
3248,-0.565,0.095
3249,-0.515,0.030
3250,-0.435,0.005
3251,-0.395,0.010
3252,-0.425,0.025
3253,-0.410,0.055
3254,-0.380,0.055
3255,-0.345,0.050
3256,-0.355,0.070
3257,-0.355,0.085
3258,-0.315,0.105
3259,-0.230,0.125
3260,-0.155,0.110
3261,-0.170,0.105
3262,-0.275,0.110
3263,-0.350,0.145
3264,-0.395,0.175
3265,-0.370,0.215
3266,-0.370,0.215
3267,-0.460,0.215
3268,-0.490,0.220
3269,-0.425,0.235
3270,-0.365,0.230
3271,-0.320,0.225
3272,-0.335,0.220
3273,-0.350,0.220
3274,-0.335,0.230
3275,-0.270,0.210
3276,-0.235,0.165
3277,-0.230,0.065
3278,-0.235,-0.055
3279,-0.265,-0.155
3280,-0.250,-0.185
3281,-0.145,-0.170
3282,-0.035,-0.130
3283,0.050,-0.115
3284,0.035,-0.095
3285,-0.005,-0.105
3286,-0.055,-0.070
3287,-0.115,-0.030
3288,-0.255,0.025
3289,-0.410,0.075
3290,-0.525,0.105
3291,-0.500,0.115
3292,-0.450,0.130
3293,-0.385,0.125
3294,-0.335,0.110
3295,-0.250,0.070
3296,-0.185,0.035
3297,-0.175,-0.005
3298,-0.170,0.000
3299,-0.165,0.015
3300,-0.180,0.015
3301,-0.185,0.010
3302,-0.195,-0.015
3303,-0.185,-0.020
3304,-0.205,-0.005
3305,-0.205,0.035
3306,-0.200,0.060
3307,-0.180,0.080
3308,-0.210,0.085
3309,-0.240,0.095
3310,-0.215,0.115
3311,-0.170,0.160
3312,-0.160,0.170
3313,-0.170,0.135
3314,-0.140,0.085
3315,-0.105,0.020
3316,-0.070,0.015
3317,-0.015,0.025
3318,0.075,0.040
3319,0.200,0.085
3320,0.345,0.105
3321,0.385,0.120
3322,0.415,0.135
3323,0.490,0.130
3324,0.665,0.105
3325,0.910,0.065
3326,1.175,0.015
3327,1.450,-0.055
3328,1.575,-0.100
3329,1.575,-0.155
3330,1.545,-0.190
3331,1.595,-0.235
3332,1.715,-0.300
3333,1.765,-0.370
3334,1.690,-0.435
3335,1.640,-0.515
3336,1.595,-0.585
3337,1.520,-0.655
3338,1.375,-0.665
3339,1.150,-0.655
3340,0.865,-0.600
3341,0.610,-0.500
3342,0.430,-0.380
3343,0.330,-0.315
3344,0.220,-0.270
3345,0.020,-0.240
3346,-0.235,-0.215
3347,-0.440,-0.180
3348,-0.445,-0.155
3349,-0.290,-0.150
3350,-0.175,-0.160
3351,-0.215,-0.155
3352,-0.370,-0.135
3353,-0.445,-0.090
3354,-0.450,-0.060
3355,-0.490,-0.020
3356,-0.610,0.000
3357,-0.705,0.025
3358,-0.690,0.045
3359,-0.645,0.080
3360,-0.595,0.110
3361,-0.575,0.135
3362,-0.565,0.160
3363,-0.560,0.220
3364,-0.485,0.260
3365,-0.415,0.250
3366,-0.385,0.220
3367,-0.435,0.135
3368,-0.490,0.025
3369,-0.450,-0.045
3370,-0.390,-0.065
3371,-0.420,-0.035
3372,-0.505,0.015
3373,-0.545,0.040
3374,-0.455,0.075
3375,-0.395,0.120
3376,-0.480,0.155
3377,-0.600,0.170
3378,-0.580,0.150
3379,-0.455,0.090
3380,-0.505,-0.010
3381,-0.665,-0.085
3382,-0.745,-0.125
3383,-0.695,-0.140
3384,-0.575,-0.125
3385,-0.465,-0.100
3386,-0.400,-0.110
3387,-0.390,-0.100
3388,-0.390,-0.090
3389,-0.385,-0.045
3390,-0.340,-0.035
3391,-0.265,-0.025
3392,-0.275,-0.025
3393,-0.365,-0.030
3394,-0.410,0.005
3395,-0.340,0.035
3396,-0.230,0.070
3397,-0.130,0.065
3398,-0.055,0.055
3399,-0.035,-0.005
3400,-0.065,-0.015
3401,-0.095,-0.005
3402,-0.085,0.060
3403,-0.105,0.105
3404,-0.195,0.115
3405,-0.230,0.110
3406,-0.185,0.110
3407,-0.105,0.105
3408,-0.040,0.085
3409,-0.025,0.065
3410,-0.090,0.030
3411,-0.170,0.005
3412,-0.155,0.020
3413,-0.110,0.040
3414,-0.110,0.075
3415,-0.130,0.090
3416,-0.170,0.090
3417,-0.175,0.105
3418,-0.150,0.110
3419,-0.125,0.125
3420,-0.100,0.130
3421,-0.060,0.115
3422,0.045,0.090
3423,0.095,0.060
3424,0.015,0.060
3425,-0.170,0.085
3426,-0.275,0.100
3427,-0.260,0.095
3428,-0.130,0.070
3429,0.010,0.045
3430,-0.010,0.040
3431,-0.175,0.060
3432,-0.285,0.060
3433,-0.295,0.075
3434,-0.290,0.075
3435,-0.315,0.065
3436,-0.325,0.080
3437,-0.285,0.090
3438,-0.195,0.095
3439,-0.130,0.090
3440,-0.150,0.070
3441,-0.190,0.050
3442,-0.195,0.065
3443,-0.160,0.075
3444,-0.095,0.095
3445,0.005,0.100
3446,0.070,0.105
3447,0.070,0.120
3448,-0.030,0.160
3449,-0.100,0.205
3450,-0.095,0.235
3451,0.005,0.250
3452,0.070,0.245
3453,0.110,0.215
3454,0.150,0.215
3455,0.280,0.180
3456,0.500,0.140
3457,0.780,0.065
3458,1.085,0.000
3459,1.305,-0.055
3460,1.495,-0.065
3461,1.625,-0.075
3462,1.615,-0.115
3463,1.530,-0.195
3464,1.390,-0.275
3465,1.270,-0.355
3466,1.210,-0.420
3467,1.180,-0.430
3468,1.065,-0.425
3469,0.930,-0.390
3470,0.815,-0.345
3471,0.725,-0.280
3472,0.600,-0.220
3473,0.415,-0.190
3474,0.235,-0.195
3475,0.085,-0.205
3476,-0.065,-0.215
3477,-0.280,-0.210
3478,-0.485,-0.165
3479,-0.515,-0.105
3480,-0.460,-0.050
3481,-0.400,-0.040
3482,-0.395,-0.050
3483,-0.430,-0.040
3484,-0.460,-0.015
3485,-0.475,0.010
3486,-0.450,0.030
3487,-0.445,0.030
3488,-0.495,0.030
3489,-0.530,0.025
3490,-0.555,0.040
3491,-0.555,0.060
3492,-0.510,0.090
3493,-0.495,0.105
3494,-0.450,0.120
3495,-0.415,0.120
3496,-0.430,0.155
3497,-0.495,0.180
3498,-0.575,0.220
3499,-0.590,0.190
3500,-0.555,0.170
3501,-0.500,0.135
3502,-0.415,0.155
3503,-0.320,0.155
3504,-0.345,0.170
3505,-0.540,0.200
3506,-0.765,0.220
3507,-0.855,0.240
3508,-0.770,0.270
3509,-0.635,0.275
3510,-0.560,0.260
3511,-0.525,0.210
3512,-0.495,0.160
3513,-0.460,0.110
3514,-0.460,0.095
3515,-0.440,0.120
3516,-0.425,0.155
3517,-0.385,0.165
3518,-0.370,0.140
3519,-0.355,0.115
3520,-0.365,0.105
3521,-0.335,0.095
3522,-0.305,0.110
3523,-0.265,0.075
3524,-0.260,0.055
3525,-0.235,0.015
3526,-0.230,0.020
3527,-0.205,0.045
3528,-0.170,0.060
3529,-0.150,0.040
3530,-0.125,0.035
3531,-0.140,0.020
3532,-0.150,0.015
3533,-0.105,0.040
3534,-0.065,0.055
3535,-0.035,0.055
3536,-0.030,0.030
3537,0.000,0.030
3538,0.010,0.025
3539,0.010,0.035
3540,-0.010,0.075
3541,-0.060,0.065
3542,-0.115,0.070
3543,-0.160,0.085
3544,-0.180,0.085
3545,-0.165,0.115
3546,-0.140,0.155
3547,-0.120,0.150
3548,-0.165,0.150
3549,-0.195,0.130
3550,-0.215,0.150
3551,-0.185,0.175
3552,-0.175,0.180
3553,-0.170,0.185
3554,-0.150,0.165
3555,-0.110,0.165
3556,-0.115,0.185
3557,-0.190,0.200
3558,-0.260,0.235
3559,-0.285,0.240
3560,-0.285,0.235
3561,-0.305,0.230
3562,-0.305,0.245
3563,-0.270,0.245
3564,-0.250,0.260
3565,-0.265,0.260
3566,-0.260,0.225
3567,-0.245,0.210
3568,-0.235,0.195
3569,-0.235,0.215
3570,-0.215,0.215
3571,-0.195,0.210
3572,-0.205,0.190
3573,-0.230,0.160
3574,-0.240,0.155
3575,-0.225,0.150
3576,-0.185,0.135
3577,-0.145,0.110
3578,-0.135,0.065
3579,-0.175,0.045
3580,-0.225,0.015
3581,-0.230,0.015
3582,-0.220,0.010
3583,-0.190,-0.015
3584,-0.175,-0.025
3585,-0.190,-0.030
3586,-0.195,-0.020
3587,-0.180,0.010
3588,-0.165,0.035
3589,-0.170,0.025
3590,-0.170,0.020
3591,-0.170,-0.005
3592,-0.175,0.010
3593,-0.195,0.030
3594,-0.160,0.055
3595,-0.130,0.040
3596,-0.105,0.025
3597,-0.125,0.010
3598,-0.165,0.020
3599,-0.175,0.025
3600,-0.180,0.065
3601,-0.165,0.055
3602,-0.140,0.050
3603,-0.120,0.045
3604,-0.130,0.045
3605,-0.165,0.075
3606,-0.195,0.105
3607,-0.190,0.115
3608,-0.195,0.110
3609,-0.185,0.095
3610,-0.190,0.110
3611,-0.180,0.125
3612,-0.170,0.155
3613,-0.165,0.155
3614,-0.175,0.155
3615,-0.170,0.170
3616,-0.175,0.170
3617,-0.175,0.175
3618,-0.180,0.170
3619,-0.160,0.150
3620,-0.155,0.110
3621,-0.160,0.085
3622,-0.170,0.075
3623,-0.170,0.070
3624,-0.145,0.085
3625,-0.135,0.050
3626,-0.145,0.030
3627,-0.160,0.010
3628,-0.170,0.010
3629,-0.160,0.025
3630,-0.170,0.020
3631,-0.155,0.005
3632,-0.155,-0.025
3633,-0.165,-0.035
3634,-0.175,-0.030
3635,-0.175,-0.030
3636,-0.145,-0.015
3637,-0.125,-0.020
3638,-0.135,-0.040
3639,-0.125,-0.030
3640,-0.105,-0.040
3641,-0.110,-0.010
3642,-0.110,0.000
3643,-0.105,-0.005
3644,-0.085,0.000
3645,-0.080,-0.005
3646,-0.100,0.010
3647,-0.105,0.020
3648,-0.085,0.045
3649,-0.050,0.045
3650,-0.045,0.050
3651,-0.080,0.045
3652,-0.095,0.050
3653,-0.105,0.065
3654,-0.080,0.090
3655,-0.065,0.080
3656,-0.080,0.070
3657,-0.100,0.080
3658,-0.105,0.085
3659,-0.115,0.115
3660,-0.105,0.135
3661,-0.085,0.135
3662,-0.085,0.115
3663,-0.070,0.115
3664,-0.075,0.115
3665,-0.105,0.120
3666,-0.110,0.130
3667,-0.095,0.135
3668,-0.090,0.140
3669,-0.090,0.125
3670,-0.105,0.140
3671,-0.095,0.130
3672,-0.085,0.135
3673,-0.065,0.110
3674,-0.080,0.075
3675,-0.085,0.055
3676,-0.100,0.045
3677,-0.090,0.055
3678,-0.060,0.070
3679,-0.055,0.045
3680,-0.075,0.000
3681,-0.090,-0.005
3682,-0.095,-0.025
3683,-0.060,-0.025
3684,-0.050,-0.025
3685,-0.045,-0.050
3686,-0.040,-0.065
3687,-0.060,-0.080
3688,-0.065,-0.065
3689,-0.070,-0.070
3690,-0.055,-0.040
3691,-0.025,-0.035
3692,-0.040,-0.060
3693,-0.055,-0.075
3694,-0.070,-0.045
3695,-0.005,-0.035
3696,0.075,-0.010
3697,0.135,0.015
3698,0.160,-0.005
3699,0.185,0.010
3700,0.240,0.045
3701,0.345,0.085
3702,0.425,0.150
3703,0.495,0.170
3704,0.555,0.155
3705,0.635,0.075
3706,0.830,0.050
3707,1.145,0.015
3708,1.455,-0.025
3709,1.665,-0.100
3710,1.715,-0.185
3711,1.740,-0.200
3712,1.795,-0.205
3713,1.845,-0.230
3714,1.830,-0.260
3715,1.785,-0.360
3716,1.700,-0.460
3717,1.520,-0.520
3718,1.345,-0.530
3719,1.185,-0.505
3720,1.015,-0.465
3721,0.835,-0.410
3722,0.590,-0.350
3723,0.350,-0.300
3724,0.155,-0.235
3725,-0.005,-0.120
3726,-0.115,-0.035
3727,-0.180,-0.005
3728,-0.195,-0.005
3729,-0.215,0.025
3730,-0.240,0.020
3731,-0.270,0.045
3732,-0.285,0.070
3733,-0.270,0.070
3734,-0.260,0.045
3735,-0.295,0.040
3736,-0.310,0.035
3737,-0.325,0.055
3738,-0.310,0.070
3739,-0.310,0.055
3740,-0.320,0.035
3741,-0.350,0.015
3742,-0.355,0.010
3743,-0.330,0.030
3744,-0.320,0.040
3745,-0.340,0.035
3746,-0.325,0.015
3747,-0.350,-0.005
3748,-0.355,0.000
3749,-0.345,0.015
3750,-0.325,0.045
3751,-0.300,0.035
3752,-0.305,0.025
3753,-0.320,0.020
3754,-0.330,0.015
3755,-0.320,0.040
3756,-0.310,0.060
3757,-0.290,0.060
3758,-0.295,0.060
3759,-0.305,0.055
3760,-0.300,0.080
3761,-0.285,0.085
3762,-0.275,0.090
3763,-0.265,0.080
3764,-0.270,0.060
3765,-0.295,0.065
3766,-0.295,0.070
3767,-0.285,0.085
3768,-0.270,0.115
3769,-0.260,0.110
3770,-0.230,0.095
3771,-0.225,0.085
3772,-0.220,0.075
3773,-0.220,0.095
3774,-0.190,0.130
3775,-0.175,0.145
3776,-0.180,0.135
3777,-0.175,0.135
3778,-0.170,0.135
3779,-0.130,0.140
3780,-0.115,0.150
3781,-0.090,0.150
3782,-0.085,0.125
3783,-0.060,0.110
3784,-0.055,0.125
3785,-0.030,0.140
3786,0.000,0.160
3787,0.045,0.170
3788,0.060,0.160
3789,0.070,0.150
3790,0.100,0.155
3791,0.130,0.175
3792,0.160,0.195
3793,0.190,0.200
3794,0.190,0.175
3795,0.200,0.160
3796,0.200,0.165
3797,0.205,0.165
3798,0.230,0.165
3799,0.245,0.160
3800,0.245,0.145
3801,0.230,0.135
3802,0.215,0.125
3803,0.210,0.155
3804,0.220,0.160
3805,0.220,0.160
3806,0.225,0.130
3807,0.210,0.125
3808,0.205,0.115
3809,0.210,0.110
3810,0.195,0.125
3811,0.195,0.120
3812,0.200,0.100
3813,0.190,0.075
3814,0.170,0.075
3815,0.185,0.085
3816,0.205,0.090
3817,0.220,0.070
3818,0.220,0.060
3819,0.195,0.030
3820,0.185,0.010
3821,0.205,0.010
3822,0.200,0.000
3823,0.220,-0.020
3824,0.210,-0.055
3825,0.190,-0.055
3826,0.195,-0.045
3827,0.190,-0.030
3828,0.205,0.000
3829,0.240,-0.010
3830,0.270,-0.015
3831,0.290,-0.045
3832,0.345,-0.060
3833,0.415,-0.055
3834,0.495,-0.040
3835,0.530,-0.040
3836,0.490,-0.050
3837,0.385,-0.045
3838,0.330,-0.015
3839,0.285,0.035
3840,0.220,0.120
3841,0.090,0.190
3842,-0.015,0.245
3843,-0.040,0.310
3844,-0.010,0.355
3845,0.020,0.375
3846,-0.015,0.355
3847,-0.110,0.280
3848,-0.165,0.185
3849,-0.195,0.090
3850,-0.225,-0.005
3851,-0.325,-0.075
3852,-0.405,-0.145
3853,-0.465,-0.250
3854,-0.460,-0.400
3855,-0.425,-0.485
3856,-0.420,-0.510
3857,-0.420,-0.510
3858,-0.325,-0.500
3859,-0.190,-0.500
3860,-0.070,-0.530
3861,-0.015,-0.525
3862,-0.010,-0.520
3863,-0.040,-0.495
3864,-0.050,-0.470
3865,-0.040,-0.455
3866,-0.015,-0.470
3867,0.025,-0.465
3868,0.085,-0.425
3869,0.150,-0.385
3870,0.195,-0.355
3871,0.205,-0.330
3872,0.245,-0.315
3873,0.270,-0.295
3874,0.255,-0.280
3875,0.220,-0.250
3876,0.225,-0.225
3877,0.200,-0.220
3878,0.155,-0.225
3879,0.105,-0.240
3880,0.075,-0.210
3881,0.075,-0.175
3882,0.095,-0.130
3883,0.105,-0.145
3884,0.095,-0.135
3885,0.080,-0.145
3886,0.095,-0.130
3887,0.105,-0.125
3888,0.145,-0.095
3889,0.135,-0.090
3890,0.145,-0.095
3891,0.150,-0.095
3892,0.150,-0.095
3893,0.170,-0.075
3894,0.200,-0.045
3895,0.240,-0.025
3896,0.260,-0.015
3897,0.270,-0.015
3898,0.290,0.010
3899,0.345,0.025
3900,0.395,0.035
3901,0.430,0.060
3902,0.435,0.035
3903,0.460,0.035
3904,0.500,0.045
3905,0.545,0.075
3906,0.580,0.085
3907,0.615,0.095
3908,0.645,0.085
3909,0.670,0.075
3910,0.690,0.085
3911,0.730,0.100
3912,0.775,0.110
3913,0.830,0.105
3914,0.865,0.100
3915,0.875,0.080
3916,0.905,0.090
3917,0.965,0.100
3918,1.010,0.105
3919,1.035,0.105
3920,1.090,0.090
3921,1.120,0.080
3922,1.145,0.070
3923,1.165,0.085
3924,1.190,0.085
3925,1.220,0.085
3926,1.250,0.075
3927,1.245,0.055
3928,1.245,0.060
3929,1.260,0.070
3930,1.260,0.085
3931,1.235,0.055
3932,1.225,0.035
3933,1.180,0.020
3934,1.125,0.010
3935,1.095,-0.005
3936,1.060,-0.005
3937,1.040,-0.030
3938,0.985,-0.065
3939,0.930,-0.085
3940,0.865,-0.095
3941,0.850,-0.085
3942,0.810,-0.075
3943,0.765,-0.075
3944,0.725,-0.070
3945,0.675,-0.075
3946,0.635,-0.065
3947,0.590,-0.045
3948,0.575,-0.025
3949,0.550,-0.015
3950,0.520,-0.035
3951,0.480,-0.040
3952,0.435,-0.030
3953,0.425,-0.005
3954,0.430,0.005
3955,0.415,0.005
3956,0.395,-0.005
3957,0.365,-0.030
3958,0.350,-0.015
3959,0.335,-0.005
3960,0.315,0.005
3961,0.325,-0.005
3962,0.320,-0.030
3963,0.295,-0.040
3964,0.270,-0.050
3965,0.285,-0.035
3966,0.310,-0.020
3967,0.295,-0.030
3968,0.295,-0.045
3969,0.270,-0.050
3970,0.265,-0.055
3971,0.280,-0.035
3972,0.280,-0.010
3973,0.290,-0.005
3974,0.290,0.000
3975,0.275,-0.020
3976,0.300,0.000
3977,0.385,0.020
3978,0.505,0.055
3979,0.590,0.040
3980,0.625,0.025
3981,0.670,0.010
3982,0.725,0.020
3983,0.750,0.060
3984,0.770,0.110
3985,0.895,0.135
3986,1.070,0.090
3987,1.300,0.055
3988,1.535,0.025
3989,1.735,-0.020
3990,1.820,-0.080
3991,1.820,-0.190
3992,1.825,-0.285
3993,1.785,-0.360
3994,1.700,-0.400
3995,1.620,-0.470
3996,1.520,-0.545
3997,1.390,-0.625
3998,1.235,-0.665
3999,1.100,-0.670
4000,0.950,-0.640
4001,0.785,-0.580
4002,0.585,-0.495
4003,0.415,-0.440
4004,0.230,-0.400
4005,0.075,-0.365
4006,-0.030,-0.290
4007,-0.040,-0.220
4008,-0.045,-0.190
4009,-0.060,-0.175
4010,-0.110,-0.170
4011,-0.150,-0.165
4012,-0.190,-0.140
4013,-0.205,-0.105
4014,-0.205,-0.085
4015,-0.195,-0.075
4016,-0.230,-0.080
4017,-0.265,-0.095
4018,-0.280,-0.090
4019,-0.295,-0.070
4020,-0.275,-0.055
4021,-0.265,-0.060
4022,-0.290,-0.060
4023,-0.300,-0.090
4024,-0.300,-0.080
4025,-0.300,-0.090
4026,-0.285,-0.065
4027,-0.270,-0.095
4028,-0.265,-0.105
4029,-0.280,-0.115
4030,-0.280,-0.120
4031,-0.280,-0.110
4032,-0.260,-0.100
4033,-0.250,-0.115
4034,-0.245,-0.150
4035,-0.240,-0.160
4036,-0.240,-0.170
4037,-0.225,-0.155
4038,-0.200,-0.130
4039,-0.205,-0.155
4040,-0.215,-0.165
4041,-0.225,-0.175
4042,-0.215,-0.185
4043,-0.180,-0.165
4044,-0.185,-0.150
4045,-0.185,-0.185
4046,-0.205,-0.200
4047,-0.205,-0.220
4048,-0.215,-0.205
4049,-0.210,-0.195
4050,-0.195,-0.170
4051,-0.180,-0.170
4052,-0.165,-0.185
4053,-0.180,-0.180
4054,-0.190,-0.160
4055,-0.175,-0.130
4056,-0.145,-0.105
4057,-0.130,-0.100
4058,-0.110,-0.100
4059,-0.100,-0.100
4060,-0.065,-0.090
4061,-0.005,-0.070
4062,0.030,-0.045
4063,0.045,-0.060
4064,0.080,-0.070
4065,0.100,-0.085
4066,0.130,-0.065
4067,0.155,-0.040
4068,0.185,-0.035
4069,0.200,-0.045
4070,0.210,-0.055
4071,0.200,-0.060
4072,0.175,-0.045
4073,0.205,-0.035
4074,0.230,-0.020
4075,0.230,-0.025
4076,0.195,-0.035
4077,0.185,-0.035
4078,0.185,-0.040
4079,0.180,-0.015
4080,0.180,0.000
4081,0.170,-0.005
4082,0.155,-0.020
4083,0.135,-0.025
4084,0.125,-0.040
4085,0.125,-0.040
4086,0.145,-0.035
4087,0.145,-0.045
4088,0.135,-0.070
4089,0.105,-0.105
4090,0.125,-0.125
4091,0.130,-0.140
4092,0.130,-0.145
4093,0.125,-0.155
4094,0.120,-0.205
4095,0.110,-0.250
4096,0.115,-0.270
4097,0.135,-0.260
4098,0.145,-0.265
4099,0.170,-0.290
4100,0.185,-0.310
4101,0.165,-0.325
4102,0.140,-0.320
4103,0.150,-0.305
4104,0.180,-0.295
4105,0.195,-0.295
4106,0.160,-0.285
4107,0.120,-0.305
4108,0.110,-0.285
4109,0.125,-0.255
4110,0.125,-0.235
4111,0.145,-0.225
4112,0.135,-0.240
4113,0.130,-0.250
4114,0.115,-0.230
4115,0.140,-0.205
4116,0.170,-0.165
4117,0.160,-0.170
4118,0.140,-0.185
4119,0.130,-0.180
4120,0.145,-0.180
4121,0.145,-0.155
4122,0.140,-0.145
4123,0.145,-0.135
4124,0.150,-0.155
4125,0.130,-0.160
4126,0.130,-0.140
4127,0.150,-0.120
4128,0.165,-0.110
4129,0.150,-0.115
4130,0.145,-0.125
4131,0.125,-0.130
4132,0.155,-0.125
4133,0.125,-0.100
4134,0.115,-0.085
4135,0.130,-0.080
4136,0.155,-0.100
4137,0.135,-0.125
4138,0.110,-0.120
4139,0.120,-0.115
4140,0.150,-0.090
4141,0.150,-0.100
4142,0.125,-0.135
4143,0.095,-0.135
4144,0.095,-0.135
4145,0.090,-0.130
4146,0.090,-0.110
4147,0.105,-0.115
4148,0.105,-0.130
4149,0.075,-0.130
4150,0.050,-0.130
4151,0.055,-0.105
4152,0.100,-0.090
4153,0.090,-0.100
4154,0.075,-0.125
4155,0.045,-0.130
4156,0.055,-0.155
4157,0.090,-0.170
4158,0.105,-0.200
4159,0.120,-0.260
4160,0.115,-0.315
4161,0.115,-0.340
4162,0.120,-0.345
4163,0.130,-0.330
4164,0.130,-0.330
4165,0.125,-0.335
4166,0.110,-0.320
4167,0.085,-0.345
4168,0.085,-0.320
4169,0.095,-0.280
4170,0.095,-0.270
4171,0.095,-0.260
4172,0.075,-0.270
4173,0.080,-0.275
4174,0.085,-0.255
4175,0.100,-0.235
4176,0.095,-0.215
4177,0.120,-0.210
4178,0.125,-0.235
4179,0.100,-0.245
4180,0.075,-0.225
4181,0.075,-0.200
4182,0.090,-0.170
4183,0.090,-0.180
4184,0.080,-0.195
4185,0.060,-0.205
4186,0.050,-0.180
4187,0.045,-0.160
4188,0.060,-0.135
4189,0.065,-0.145
4190,0.085,-0.140
4191,0.085,-0.165
4192,0.075,-0.170
4193,0.080,-0.155
4194,0.085,-0.140
4195,0.070,-0.140
4196,0.050,-0.135
4197,0.060,-0.140
4198,0.060,-0.145
4199,0.065,-0.095
4200,0.050,-0.080
4201,0.070,-0.090
4202,0.065,-0.110
4203,0.070,-0.110
4204,0.045,-0.135
4205,0.040,-0.115
4206,0.065,-0.100
4207,0.095,-0.110
4208,0.105,-0.130
4209,0.075,-0.145
4210,0.050,-0.140
4211,0.050,-0.130
4212,0.060,-0.105
4213,0.075,-0.105
4214,0.100,-0.135
4215,0.150,-0.155
4216,0.215,-0.160
4217,0.270,-0.135
4218,0.320,-0.130
4219,0.350,-0.125
4220,0.360,-0.120
4221,0.370,-0.115
4222,0.395,-0.090
4223,0.460,-0.020
4224,0.515,0.020
4225,0.535,-0.005
4226,0.565,-0.020
4227,0.610,-0.070
4228,0.705,-0.085
4229,0.795,-0.100
4230,0.880,-0.105
4231,0.930,-0.175
4232,0.970,-0.260
4233,1.020,-0.335
4234,1.060,-0.375
4235,1.095,-0.385
4236,1.140,-0.400
4237,1.175,-0.470
4238,1.085,-0.540
4239,0.965,-0.595
4240,0.855,-0.645
4241,0.795,-0.655
4242,0.760,-0.625
4243,0.660,-0.615
4244,0.485,-0.590
4245,0.305,-0.545
4246,0.170,-0.475
4247,0.100,-0.400
4248,0.000,-0.315
4249,-0.050,-0.265
4250,-0.090,-0.225
4251,-0.105,-0.210
4252,-0.115,-0.185
4253,-0.125,-0.135
4254,-0.145,-0.120
4255,-0.165,-0.120
4256,-0.190,-0.110
4257,-0.210,-0.110
4258,-0.225,-0.100
4259,-0.230,-0.070
4260,-0.225,-0.055
4261,-0.220,-0.055
4262,-0.225,-0.060
4263,-0.265,-0.070
4264,-0.295,-0.060
4265,-0.275,-0.040
4266,-0.265,-0.015
4267,-0.260,-0.035
4268,-0.285,-0.050
4269,-0.320,-0.060
4270,-0.320,-0.060
4271,-0.315,-0.040
4272,-0.315,-0.020
4273,-0.320,-0.040
4274,-0.340,-0.055
4275,-0.325,-0.075
4276,-0.310,-0.080
4277,-0.310,-0.090
4278,-0.310,-0.090
4279,-0.295,-0.090
4280,-0.280,-0.125
4281,-0.285,-0.145
4282,-0.305,-0.150
4283,-0.285,-0.160
4284,-0.270,-0.155
4285,-0.255,-0.205
4286,-0.250,-0.260
4287,-0.245,-0.305
4288,-0.230,-0.320
4289,-0.185,-0.325
4290,-0.150,-0.335
4291,-0.130,-0.370
4292,-0.110,-0.395
4293,-0.110,-0.410
4294,-0.105,-0.380
4295,-0.110,-0.355
4296,-0.075,-0.295
4297,-0.040,-0.290
4298,-0.040,-0.290
4299,-0.070,-0.285
4300,-0.085,-0.260
4301,-0.055,-0.215
4302,-0.035,-0.170
4303,0.000,-0.170
4304,-0.020,-0.180
4305,-0.020,-0.160
4306,-0.010,-0.140
4307,0.000,-0.110
4308,0.010,-0.080
4309,0.015,-0.085
4310,0.015,-0.080
4311,0.035,-0.080
4312,0.050,-0.075
4313,0.045,-0.040
4314,0.080,-0.015
4315,0.100,-0.010
4316,0.090,-0.020
4317,0.085,-0.025
4318,0.065,-0.005
4319,0.045,0.000
4320,0.050,0.020
4321,0.065,0.000
4322,0.080,-0.035
4323,0.070,-0.045
4324,0.015,-0.025
4325,0.015,-0.010
4326,0.045,0.000
4327,0.055,-0.020
4328,0.030,-0.045
4329,-0.025,-0.075
4330,-0.040,-0.070
4331,-0.030,-0.045
4332,0.000,-0.055
4333,0.015,-0.050
4334,-0.005,-0.070
4335,-0.010,-0.095
4336,-0.025,-0.100
4337,-0.050,-0.080
4338,-0.060,-0.075
4339,-0.035,-0.075
4340,-0.030,-0.105
4341,-0.035,-0.130
4342,-0.045,-0.140
4343,-0.020,-0.155
4344,-0.005,-0.160
4345,-0.015,-0.210
4346,-0.010,-0.250
4347,-0.015,-0.290
4348,-0.005,-0.300
4349,0.010,-0.325
4350,0.010,-0.320
4351,0.020,-0.315
4352,0.015,-0.330
4353,0.000,-0.340
4354,0.010,-0.355
4355,0.005,-0.315
4356,0.005,-0.275
4357,-0.015,-0.260
4358,-0.005,-0.265
4359,0.020,-0.255
4360,0.025,-0.245
4361,0.025,-0.185
4362,0.040,-0.170
4363,0.045,-0.145
4364,0.025,-0.150
4365,0.020,-0.130
4366,0.010,-0.115
4367,0.040,-0.100
4368,0.065,-0.065
4369,0.060,-0.075
4370,0.030,-0.070
4371,0.005,-0.080
4372,0.000,-0.075
4373,0.030,-0.045
4374,0.065,-0.020
4375,0.080,-0.020
4376,0.050,-0.025
4377,0.015,-0.040
4378,-0.010,-0.045
4379,0.010,-0.025
4380,0.040,-0.010
4381,0.035,-0.005
4382,0.025,-0.030
4383,-0.020,-0.040
4384,-0.040,-0.040
4385,-0.025,-0.030
4386,-0.010,0.005
4387,-0.015,0.000
4388,-0.035,-0.020
4389,-0.040,-0.030
4390,-0.045,-0.030
4391,-0.045,-0.015
4392,-0.060,-0.005
4393,-0.050,-0.005
4394,-0.045,-0.035
4395,-0.070,-0.050
4396,-0.105,-0.045
4397,-0.140,-0.045
4398,-0.130,-0.030
4399,-0.125,-0.035
4400,-0.115,-0.075
4401,-0.125,-0.095
4402,-0.145,-0.110
4403,-0.160,-0.095
4404,-0.170,-0.085
4405,-0.150,-0.105
4406,-0.145,-0.140
4407,-0.140,-0.200
4408,-0.120,-0.220
4409,-0.100,-0.210
4410,-0.090,-0.215
4411,-0.080,-0.230
4412,-0.065,-0.250
4413,-0.075,-0.265
4414,-0.095,-0.250
4415,-0.110,-0.250
4416,-0.100,-0.220
4417,-0.090,-0.230
4418,-0.105,-0.250
4419,-0.145,-0.265
4420,-0.145,-0.220
4421,-0.130,-0.215
4422,-0.120,-0.200
4423,-0.130,-0.205
4424,-0.160,-0.220
4425,-0.185,-0.205
4426,-0.170,-0.170
4427,-0.150,-0.145
4428,-0.125,-0.120
4429,-0.120,-0.130
4430,-0.155,-0.140
4431,-0.190,-0.135
4432,-0.160,-0.100
4433,-0.130,-0.080
4434,-0.115,-0.060
4435,-0.105,-0.080
4436,-0.095,-0.075
4437,-0.130,-0.075
4438,-0.165,-0.055
4439,-0.200,-0.035
4440,-0.190,-0.025
4441,-0.175,-0.030
4442,-0.195,-0.050
4443,-0.215,-0.045
4444,-0.220,-0.030
4445,-0.210,0.000
4446,-0.205,0.005
4447,-0.185,0.010
4448,-0.225,0.005
4449,-0.220,-0.005
4450,-0.185,0.005
4451,-0.155,0.010
4452,-0.135,0.020
4453,-0.165,0.025
4454,-0.220,-0.005
4455,-0.245,-0.005
4456,-0.250,0.005
4457,-0.240,0.020
4458,-0.215,0.020
4459,-0.230,0.025
4460,-0.255,-0.005
4461,-0.265,0.000
4462,-0.265,0.010
4463,-0.265,0.015
4464,-0.250,0.035
4465,-0.230,0.030
4466,-0.230,0.010
4467,-0.250,0.010
4468,-0.265,0.010
4469,-0.250,0.010
4470,-0.225,0.000
4471,-0.210,-0.015
4472,-0.245,-0.045
4473,-0.260,-0.055
4474,-0.245,-0.065
4475,-0.215,-0.085
4476,-0.180,-0.095
4477,-0.170,-0.120
4478,-0.170,-0.190
4479,-0.185,-0.235
4480,-0.180,-0.260
4481,-0.175,-0.270
4482,-0.180,-0.255
4483,-0.205,-0.255
4484,-0.215,-0.260
4485,-0.200,-0.270
4486,-0.185,-0.260
4487,-0.190,-0.235
4488,-0.200,-0.215
4489,-0.190,-0.220
4490,-0.175,-0.210
4491,-0.185,-0.220
4492,-0.200,-0.200
4493,-0.195,-0.165
4494,-0.165,-0.150
4495,-0.160,-0.135
4496,-0.170,-0.150
4497,-0.200,-0.155
4498,-0.230,-0.130
4499,-0.220,-0.090
4500,-0.210,-0.080
4501,-0.210,-0.070
4502,-0.220,-0.085
4503,-0.235,-0.095
4504,-0.245,-0.080
4505,-0.240,-0.055
4506,-0.210,-0.035
4507,-0.180,-0.040
4508,-0.195,-0.045
4509,-0.205,-0.055
4510,-0.175,-0.040
4511,-0.095,-0.025
4512,-0.010,-0.025
4513,0.050,-0.050
4514,0.090,-0.075
4515,0.115,-0.110
4516,0.130,-0.140
4517,0.170,-0.155
4518,0.215,-0.210
4519,0.245,-0.300
4520,0.265,-0.385
4521,0.295,-0.490
4522,0.315,-0.580
4523,0.380,-0.675
4524,0.435,-0.765
4525,0.435,-0.875
4526,0.440,-0.975
4527,0.480,-1.025
4528,0.490,-1.050
4529,0.430,-1.065
4530,0.335,-1.050
4531,0.200,-1.045
4532,-0.020,-1.040
4533,-0.240,-1.000
4534,-0.430,-0.955
4535,-0.550,-0.895
4536,-0.625,-0.845
4537,-0.760,-0.815
4538,-0.965,-0.815
4539,-1.100,-0.800
4540,-1.115,-0.760
4541,-1.035,-0.720
4542,-0.975,-0.680
4543,-0.940,-0.650
4544,-0.880,-0.645
4545,-0.810,-0.610
4546,-0.745,-0.570
4547,-0.695,-0.510
4548,-0.640,-0.460
4549,-0.585,-0.415
4550,-0.530,-0.385
4551,-0.475,-0.375
4552,-0.390,-0.315
4553,-0.305,-0.275
4554,-0.285,-0.230
4555,-0.295,-0.205
4556,-0.365,-0.190
4557,-0.405,-0.150
4558,-0.445,-0.080
4559,-0.445,-0.030
4560,-0.435,0.015
4561,-0.450,0.055
4562,-0.460,0.070
4563,-0.485,0.100
4564,-0.500,0.140
4565,-0.485,0.195
4566,-0.475,0.240
4567,-0.470,0.240
4568,-0.500,0.240
4569,-0.530,0.260
4570,-0.510,0.260
4571,-0.500,0.280
4572,-0.530,0.305
4573,-0.560,0.300
4574,-0.595,0.300
4575,-0.600,0.310
4576,-0.580,0.325
4577,-0.555,0.330
4578,-0.530,0.350
4579,-0.495,0.345
4580,-0.520,0.330
4581,-0.610,0.310
4582,-0.745,0.320
4583,-0.790,0.345
4584,-0.725,0.360
4585,-0.695,0.350
4586,-0.750,0.320
4587,-0.815,0.315
4588,-0.790,0.335
4589,-0.675,0.345
4590,-0.605,0.355
4591,-0.625,0.340
4592,-0.645,0.295
4593,-0.660,0.265
4594,-0.635,0.245
4595,-0.645,0.250
4596,-0.685,0.265
4597,-0.665,0.260
4598,-0.640,0.235
4599,-0.645,0.245
4600,-0.660,0.260
4601,-0.610,0.270
4602,-0.545,0.285
4603,-0.510,0.290
4604,-0.525,0.295
4605,-0.560,0.295
4606,-0.565,0.285
4607,-0.540,0.300
4608,-0.525,0.305
4609,-0.475,0.305
4610,-0.435,0.295
4611,-0.400,0.280
4612,-0.370,0.290
4613,-0.335,0.300
4614,-0.285,0.305
4615,-0.240,0.285
4616,-0.225,0.255
4617,-0.230,0.225
4618,-0.220,0.235
4619,-0.190,0.230
4620,-0.165,0.230
4621,-0.120,0.210
4622,-0.085,0.180
4623,-0.090,0.160
4624,-0.095,0.165
4625,-0.085,0.180
4626,-0.065,0.180
4627,-0.060,0.140
4628,-0.080,0.105
4629,-0.055,0.090
4630,-0.025,0.110
4631,-0.020,0.120
4632,-0.045,0.120
4633,-0.085,0.105
4634,-0.135,0.065
4635,-0.190,0.035
4636,-0.200,0.040
4637,-0.180,0.040
4638,-0.155,0.040
4639,-0.165,0.040
4640,-0.175,0.005
4641,-0.165,0.000
4642,-0.150,0.000
4643,-0.155,0.010
4644,-0.160,0.035
4645,-0.185,0.030
4646,-0.220,0.005
4647,-0.250,0.000
4648,-0.260,-0.015
4649,-0.235,-0.005
4650,-0.225,-0.005
4651,-0.255,-0.025
4652,-0.310,-0.050
4653,-0.350,-0.065
4654,-0.335,-0.090
4655,-0.280,-0.100
4656,-0.240,-0.115
4657,-0.260,-0.125
4658,-0.290,-0.140
4659,-0.335,-0.150
4660,-0.345,-0.140
4661,-0.330,-0.125
4662,-0.315,-0.080
4663,-0.295,-0.095
4664,-0.275,-0.105
4665,-0.285,-0.100
4666,-0.320,-0.080
4667,-0.295,-0.090
4668,-0.265,-0.060
4669,-0.290,-0.065
4670,-0.330,-0.050
4671,-0.360,-0.040
4672,-0.350,-0.035
4673,-0.325,-0.020
4674,-0.335,-0.025
4675,-0.360,-0.025
4676,-0.350,-0.025
4677,-0.300,-0.020
4678,-0.280,-0.030
4679,-0.285,-0.025
4680,-0.315,-0.005
4681,-0.355,-0.015
4682,-0.350,-0.015
4683,-0.325,-0.040
4684,-0.315,-0.040
4685,-0.315,-0.025
4686,-0.315,-0.035
4687,-0.290,-0.035
4688,-0.305,-0.065
4689,-0.300,-0.075
4690,-0.295,-0.065
4691,-0.265,-0.055
4692,-0.230,-0.050
4693,-0.175,-0.065
4694,-0.115,-0.075
4695,-0.040,-0.075
4696,-0.010,-0.045
4697,-0.045,0.010
4698,-0.125,0.075
4699,-0.225,0.140
4700,-0.360,0.190
4701,-0.480,0.250
4702,-0.540,0.305
4703,-0.555,0.315
4704,-0.525,0.290
4705,-0.505,0.210
4706,-0.530,0.105
4707,-0.540,-0.035
4708,-0.530,-0.185
4709,-0.580,-0.330
4710,-0.595,-0.430
4711,-0.525,-0.535
4712,-0.370,-0.590
4713,-0.220,-0.655
4714,-0.065,-0.690
4715,0.090,-0.710
4716,0.240,-0.715
4717,0.385,-0.725
4718,0.510,-0.745
4719,0.585,-0.775
4720,0.655,-0.765
4721,0.680,-0.770
4722,0.690,-0.755
4723,0.675,-0.755
4724,0.650,-0.750
4725,0.595,-0.750
4726,0.535,-0.690
4727,0.440,-0.650
4728,0.300,-0.585
4729,0.130,-0.530
4730,-0.050,-0.480
4731,-0.210,-0.435
4732,-0.340,-0.380
4733,-0.430,-0.305
4734,-0.410,-0.250
4735,-0.405,-0.200
4736,-0.435,-0.195
4737,-0.470,-0.190
4738,-0.480,-0.150
4739,-0.480,-0.115
4740,-0.485,-0.085
4741,-0.505,-0.095
4742,-0.525,-0.100
4743,-0.510,-0.085
4744,-0.510,-0.070
4745,-0.485,-0.060
4746,-0.490,-0.040
4747,-0.480,-0.045
4748,-0.495,-0.065
4749,-0.510,-0.055
4750,-0.520,-0.060
4751,-0.510,-0.040
4752,-0.465,-0.035
4753,-0.455,-0.035
4754,-0.440,-0.055
4755,-0.440,-0.045
4756,-0.435,-0.035
4757,-0.420,-0.025
4758,-0.400,-0.005
4759,-0.375,-0.010
4760,-0.340,-0.035
4761,-0.320,-0.045
4762,-0.285,-0.060
4763,-0.220,-0.050
4764,-0.170,-0.060
4765,-0.145,-0.080
4766,-0.150,-0.120
4767,-0.155,-0.120
4768,-0.130,-0.125
4769,-0.085,-0.095
4770,-0.065,-0.085
4771,-0.080,-0.090
4772,-0.055,-0.095
4773,-0.015,-0.110
4774,0.025,-0.090
4775,0.055,-0.070
4776,0.085,-0.075
4777,0.100,-0.070
4778,0.110,-0.070
4779,0.105,-0.060
4780,0.120,-0.060
4781,0.140,-0.030
4782,0.160,-0.010
4783,0.140,-0.010
4784,0.120,-0.010
4785,0.090,-0.020
4786,0.085,-0.005
4787,0.075,0.020
4788,0.075,0.040
4789,0.040,0.040
4790,0.015,0.040
4791,0.005,0.015
4792,-0.020,0.030
4793,-0.035,0.045
4794,-0.050,0.065
4795,-0.080,0.050
4796,-0.100,0.040
4797,-0.120,0.035
4798,-0.165,0.035
4799,-0.170,0.045
4800,-0.175,0.060
4801,-0.175,0.055
4802,-0.210,0.040
4803,-0.245,0.015
4804,-0.260,0.015
4805,-0.255,0.025
4806,-0.260,0.030
4807,-0.275,0.025
4808,-0.300,0.010
4809,-0.295,-0.020
4810,-0.295,-0.015
4811,-0.275,0.005
4812,-0.275,0.015
4813,-0.275,-0.010
4814,-0.270,-0.025
4815,-0.260,-0.035
4816,-0.260,-0.030
4817,-0.250,-0.020
4818,-0.240,-0.030
4819,-0.230,-0.040
4820,-0.235,-0.075
4821,-0.240,-0.090
4822,-0.255,-0.115
4823,-0.240,-0.105
4824,-0.205,-0.100
4825,-0.195,-0.125
4826,-0.225,-0.145
4827,-0.235,-0.165
4828,-0.240,-0.160
4829,-0.220,-0.150
4830,-0.205,-0.145
4831,-0.215,-0.140
4832,-0.230,-0.140
4833,-0.235,-0.165
4834,-0.230,-0.150
4835,-0.225,-0.130
4836,-0.230,-0.110
4837,-0.230,-0.105
4838,-0.215,-0.100
4839,-0.185,-0.105
4840,-0.155,-0.085
4841,-0.140,-0.065
4842,-0.135,-0.020
4843,-0.115,-0.020
4844,-0.105,-0.040
4845,-0.085,-0.045
4846,-0.075,-0.025
4847,-0.050,-0.005
4848,0.000,-0.005
4849,0.135,-0.030
4850,0.325,-0.085
4851,0.525,-0.130
4852,0.710,-0.170
4853,0.805,-0.215
4854,0.870,-0.285
4855,0.965,-0.345
4856,1.070,-0.390
4857,1.110,-0.425
4858,1.110,-0.455
4859,1.125,-0.485
4860,1.125,-0.495
4861,1.080,-0.540
4862,0.995,-0.560
4863,0.870,-0.565
4864,0.745,-0.545
4865,0.580,-0.465
4866,0.360,-0.430
4867,0.120,-0.380
4868,-0.075,-0.355
4869,-0.285,-0.335
4870,-0.410,-0.275
4871,-0.485,-0.220
4872,-0.465,-0.170
4873,-0.465,-0.175
4874,-0.530,-0.195
4875,-0.580,-0.185
4876,-0.590,-0.185
4877,-0.565,-0.175
4878,-0.570,-0.180
4879,-0.600,-0.175
4880,-0.610,-0.185
4881,-0.615,-0.200
4882,-0.630,-0.190
4883,-0.630,-0.180
4884,-0.630,-0.155
4885,-0.600,-0.150
4886,-0.600,-0.170
4887,-0.620,-0.190
4888,-0.645,-0.155
4889,-0.630,-0.155
4890,-0.605,-0.125
4891,-0.590,-0.125
4892,-0.600,-0.140
4893,-0.600,-0.140
4894,-0.590,-0.140
4895,-0.560,-0.115
4896,-0.550,-0.105
4897,-0.535,-0.110
4898,-0.555,-0.115
4899,-0.565,-0.100
4900,-0.565,-0.095
4901,-0.545,-0.060
4902,-0.515,-0.050
4903,-0.500,-0.050
4904,-0.520,-0.065
4905,-0.525,-0.060
4906,-0.510,-0.035
4907,-0.490,-0.015
4908,-0.455,0.015
4909,-0.465,0.010
4910,-0.460,-0.005
4911,-0.460,-0.010
4912,-0.470,0.010
4913,-0.450,0.010
4914,-0.445,0.015
4915,-0.440,0.000
4916,-0.420,-0.010
4917,-0.405,-0.030
4918,-0.400,-0.030
4919,-0.330,-0.020
4920,-0.270,-0.020
4921,-0.240,-0.070
4922,-0.250,-0.100
4923,-0.270,-0.155
4924,-0.255,-0.175
4925,-0.220,-0.185
4926,-0.210,-0.190
4927,-0.190,-0.210
4928,-0.140,-0.245
4929,-0.095,-0.255
4930,-0.075,-0.255
4931,-0.125,-0.240
4932,-0.220,-0.230
4933,-0.265,-0.225
4934,-0.290,-0.225
4935,-0.280,-0.250
4936,-0.280,-0.230
4937,-0.275,-0.215
4938,-0.265,-0.180
4939,-0.260,-0.190
4940,-0.305,-0.190
4941,-0.330,-0.180
4942,-0.325,-0.155
4943,-0.300,-0.130
4944,-0.270,-0.105
4945,-0.275,-0.110
4946,-0.280,-0.120
4947,-0.285,-0.135
4948,-0.330,-0.120
4949,-0.330,-0.100
4950,-0.340,-0.085
4951,-0.355,-0.100
4952,-0.385,-0.110
4953,-0.380,-0.095
4954,-0.365,-0.075
4955,-0.325,-0.045
4956,-0.300,-0.025
4957,-0.295,-0.060
4958,-0.290,-0.105
4959,-0.300,-0.140
4960,-0.320,-0.135
4961,-0.395,-0.105
4962,-0.445,-0.070
4963,-0.455,-0.060
4964,-0.470,-0.040
4965,-0.490,-0.030
4966,-0.510,-0.010
4967,-0.475,0.035
4968,-0.450,0.060
4969,-0.410,0.055
4970,-0.390,0.030
4971,-0.360,-0.015
4972,-0.280,-0.055
4973,-0.195,-0.090
4974,-0.160,-0.160
4975,-0.185,-0.230
4976,-0.265,-0.290
4977,-0.355,-0.300
4978,-0.360,-0.290
4979,-0.360,-0.265
4980,-0.370,-0.255
4981,-0.415,-0.255
4982,-0.510,-0.290
4983,-0.605,-0.330
4984,-0.675,-0.350
4985,-0.685,-0.335
4986,-0.675,-0.340
4987,-0.635,-0.320
4988,-0.640,-0.315
4989,-0.680,-0.285
4990,-0.710,-0.230
4991,-0.690,-0.135
4992,-0.625,-0.090
4993,-0.560,-0.080
4994,-0.555,-0.060
4995,-0.570,-0.050
4996,-0.565,-0.060
4997,-0.545,-0.055
4998,-0.530,-0.070
4999,-0.525,-0.115
5000,-0.540,-0.190
5001,-0.555,-0.245
5002,-0.515,-0.255
5003,-0.465,-0.255
5004,-0.435,-0.230
5005,-0.440,-0.245
5006,-0.480,-0.270
5007,-0.475,-0.260
5008,-0.480,-0.245
5009,-0.480,-0.235
5010,-0.485,-0.205
5011,-0.495,-0.205
5012,-0.485,-0.205
5013,-0.500,-0.200
5014,-0.505,-0.175
5015,-0.520,-0.150
5016,-0.510,-0.145
5017,-0.500,-0.140
5018,-0.520,-0.155
5019,-0.540,-0.160
5020,-0.565,-0.130
5021,-0.565,-0.115
5022,-0.550,-0.085
5023,-0.535,-0.090
5024,-0.545,-0.100
5025,-0.570,-0.115
5026,-0.580,-0.090
5027,-0.580,-0.050
5028,-0.575,-0.030
5029,-0.610,-0.045
5030,-0.610,-0.060
5031,-0.615,-0.050
5032,-0.625,-0.035
5033,-0.625,-0.015
5034,-0.625,-0.005
5035,-0.630,-0.035
5036,-0.645,-0.055
5037,-0.665,-0.070
5038,-0.675,-0.070
5039,-0.650,-0.065
5040,-0.645,-0.070
5041,-0.615,-0.090
5042,-0.625,-0.120
5043,-0.635,-0.145
5044,-0.635,-0.155
5045,-0.630,-0.150
5046,-0.630,-0.140
5047,-0.630,-0.145
5048,-0.655,-0.165
5049,-0.660,-0.165
5050,-0.665,-0.155
5051,-0.660,-0.140
5052,-0.620,-0.125
5053,-0.580,-0.120
5054,-0.565,-0.140
5055,-0.590,-0.130
5056,-0.625,-0.115
5057,-0.645,-0.090
5058,-0.665,-0.075
5059,-0.685,-0.070
5060,-0.710,-0.075
5061,-0.715,-0.090
5062,-0.675,-0.055
5063,-0.620,-0.035
5064,-0.560,0.020
5065,-0.535,-0.005
5066,-0.545,-0.015
5067,-0.585,0.005
5068,-0.535,0.005
5069,-0.430,0.010
5070,-0.300,0.020
5071,-0.245,-0.010
5072,-0.200,-0.045
5073,-0.135,-0.080
5074,0.010,-0.135
5075,0.235,-0.175
5076,0.490,-0.220
5077,0.690,-0.295
5078,0.795,-0.380
5079,0.830,-0.465
5080,0.850,-0.495
5081,0.910,-0.475
5082,0.955,-0.475
5083,0.960,-0.480
5084,0.930,-0.505
5085,0.835,-0.550
5086,0.730,-0.560
5087,0.610,-0.530
5088,0.485,-0.500
5089,0.255,-0.465
5090,-0.035,-0.425
5091,-0.305,-0.395
5092,-0.535,-0.330
5093,-0.715,-0.265
5094,-0.825,-0.210
5095,-0.855,-0.175
5096,-0.880,-0.160
5097,-0.920,-0.165
5098,-0.980,-0.125
5099,-1.000,-0.090
5100,-1.000,-0.085
5101,-0.995,-0.060
5102,-1.015,-0.085
5103,-1.040,-0.080
5104,-1.055,-0.045
5105,-1.075,-0.030
5106,-1.070,0.010
5107,-1.090,0.000
5108,-1.105,-0.010
5109,-1.150,0.000
5110,-1.180,0.015
5111,-1.170,0.035
5112,-1.155,0.050
5113,-1.130,0.055
5114,-1.155,0.050
5115,-1.155,0.050
5116,-1.170,0.075
5117,-1.160,0.095
5118,-1.155,0.115
5119,-1.140,0.110
5120,-1.155,0.105
5121,-1.160,0.110
5122,-1.160,0.120
5123,-1.160,0.150
5124,-1.135,0.155
5125,-1.135,0.150
5126,-1.175,0.150
5127,-1.175,0.160
5128,-1.145,0.165
5129,-1.120,0.175
5130,-1.120,0.185
5131,-1.125,0.190
5132,-1.155,0.175
5133,-1.150,0.195
5134,-1.145,0.205
5135,-1.125,0.235
5136,-1.105,0.250
5137,-1.100,0.260
5138,-1.090,0.260
5139,-1.105,0.270
5140,-1.115,0.290
5141,-1.085,0.305
5142,-1.070,0.290
5143,-1.070,0.275
5144,-1.050,0.230
5145,-1.040,0.190
5146,-1.030,0.195
5147,-1.025,0.170
5148,-1.005,0.135
5149,-0.975,0.120
5150,-0.985,0.070
5151,-0.970,0.050
5152,-0.940,0.050
5153,-0.915,0.070
5154,-0.920,0.070
5155,-0.890,0.075
5156,-0.865,0.065
5157,-0.860,0.055
5158,-0.855,0.055
5159,-0.870,0.075
5160,-0.895,0.100
5161,-0.875,0.080
5162,-0.870,0.080
5163,-0.910,0.070
5164,-0.910,0.085
5165,-0.900,0.095
5166,-0.885,0.115
5167,-0.870,0.105
5168,-0.870,0.100
5169,-0.885,0.085
5170,-0.905,0.085
5171,-0.905,0.110
5172,-0.895,0.130
5173,-0.900,0.120
5174,-0.930,0.110
5175,-0.940,0.100
5176,-0.935,0.115
5177,-0.920,0.135
5178,-0.875,0.150
5179,-0.865,0.160
5180,-0.885,0.135
5181,-0.895,0.140
5182,-0.900,0.145
5183,-0.885,0.165
5184,-0.870,0.190
5185,-0.875,0.180
5186,-0.885,0.165
5187,-0.895,0.160
5188,-0.910,0.175
5189,-0.920,0.210
5190,-0.925,0.205
5191,-0.935,0.190
5192,-0.940,0.180
5193,-0.955,0.170
5194,-0.920,0.195
5195,-0.915,0.190
5196,-0.865,0.205
5197,-0.880,0.165
5198,-0.910,0.155
5199,-0.950,0.140
5200,-0.970,0.125
5201,-0.975,0.160
5202,-0.980,0.135
5203,-1.005,0.130
5204,-1.005,0.105
5205,-0.990,0.085
5206,-0.970,0.080
5207,-0.970,0.085
5208,-0.975,0.080
5209,-1.020,0.065
5210,-1.030,0.050
5211,-1.030,0.050
5212,-1.020,0.050
5213,-0.980,0.060
5214,-0.960,0.040
5215,-0.980,0.050
5216,-1.020,0.040
5217,-1.045,0.035
5218,-1.025,0.040
5219,-1.015,0.085
5220,-1.005,0.075
5221,-1.000,0.070
5222,-0.995,0.060
5223,-0.990,0.050
5224,-0.995,0.060
5225,-1.005,0.075
5226,-0.990,0.100
5227,-0.995,0.095
5228,-1.005,0.095
5229,-1.030,0.095
5230,-1.000,0.125
5231,-0.940,0.175
5232,-0.885,0.205
5233,-0.890,0.230
5234,-0.870,0.210
5235,-0.805,0.220
5236,-0.775,0.225
5237,-0.700,0.230
5238,-0.555,0.220
5239,-0.335,0.155
5240,-0.080,0.070
5241,0.215,-0.030
5242,0.505,-0.140
5243,0.695,-0.245
5244,0.770,-0.330
5245,0.815,-0.385
5246,0.895,-0.440
5247,0.920,-0.500
5248,0.885,-0.525
5249,0.855,-0.540
5250,0.760,-0.540
5251,0.630,-0.560
5252,0.410,-0.540
5253,0.135,-0.525
5254,-0.130,-0.470
5255,-0.390,-0.385
5256,-0.645,-0.320
5257,-0.915,-0.260
5258,-1.140,-0.210
5259,-1.255,-0.135
5260,-1.275,-0.065
5261,-1.280,-0.015
5262,-1.290,0.020
5263,-1.295,0.035
5264,-1.335,0.030
5265,-1.370,0.035
5266,-1.365,0.060
5267,-1.355,0.065
5268,-1.330,0.090
5269,-1.345,0.085
5270,-1.355,0.065
5271,-1.375,0.090
5272,-1.405,0.090
5273,-1.405,0.120
5274,-1.380,0.135
5275,-1.370,0.125
5276,-1.395,0.120
5277,-1.435,0.120
5278,-1.420,0.150
5279,-1.390,0.160
5280,-1.355,0.190
5281,-1.355,0.190
5282,-1.370,0.185
5283,-1.380,0.170
5284,-1.380,0.210
5285,-1.355,0.235
5286,-1.355,0.250
5287,-1.345,0.235
5288,-1.370,0.225
5289,-1.375,0.210
5290,-1.370,0.230
5291,-1.345,0.240
5292,-1.305,0.275
5293,-1.295,0.265
5294,-1.300,0.250
5295,-1.285,0.255
5296,-1.280,0.245
5297,-1.245,0.255
5298,-1.240,0.245
5299,-1.215,0.210
5300,-1.205,0.180
5301,-1.230,0.135
5302,-1.230,0.120
5303,-1.195,0.100
5304,-1.170,0.095
5305,-1.145,0.035
5306,-1.135,0.000
5307,-1.140,-0.025
5308,-1.120,-0.030
5309,-1.110,-0.020
5310,-1.110,-0.040
5311,-1.100,-0.020
5312,-1.065,-0.050
5313,-1.010,-0.055
5314,-0.975,-0.055
5315,-0.950,-0.030
5316,-0.950,-0.005
5317,-0.955,0.000
5318,-0.980,0.010
5319,-1.000,0.005
5320,-1.000,0.035
5321,-0.985,0.065
5322,-0.975,0.080
5323,-0.975,0.090
5324,-0.985,0.080
5325,-1.000,0.095
5326,-1.015,0.130
5327,-1.055,0.140
5328,-1.030,0.155
5329,-1.020,0.150
5330,-1.025,0.150
5331,-1.045,0.145
5332,-1.050,0.170
5333,-1.075,0.190
5334,-1.075,0.210
5335,-1.085,0.185
5336,-1.080,0.190
5337,-1.080,0.185
5338,-1.085,0.200
5339,-1.080,0.235
5340,-1.070,0.230
5341,-1.045,0.240
5342,-1.065,0.220
5343,-1.070,0.205
5344,-1.070,0.210
5345,-1.055,0.215
5346,-1.055,0.215
5347,-1.045,0.200
5348,-1.060,0.170
5349,-1.060,0.155
5350,-1.055,0.155
5351,-1.035,0.160
5352,-1.025,0.160
5353,-1.060,0.120
5354,-1.065,0.095
5355,-1.075,0.075
5356,-1.060,0.060
5357,-1.030,0.050
5358,-1.010,0.055
5359,-1.010,0.030
5360,-0.995,0.000
5361,-1.010,-0.010
5362,-1.020,0.000
5363,-1.030,0.005
5364,-1.025,0.030
5365,-1.035,0.020
5366,-1.075,0.010
5367,-1.105,0.015
5368,-1.090,0.025
5369,-1.055,0.060
5370,-1.045,0.060
5371,-1.070,0.050
5372,-1.100,0.040
5373,-1.110,0.035
5374,-1.085,0.040
5375,-1.065,0.075
5376,-1.050,0.085
5377,-1.065,0.075
5378,-1.070,0.085
5379,-1.085,0.085
5380,-1.085,0.075
5381,-1.070,0.120
5382,-1.055,0.130
5383,-1.050,0.120
5384,-1.045,0.110
5385,-1.055,0.105
5386,-1.040,0.135
5387,-1.010,0.155
5388,-0.990,0.190
5389,-0.995,0.190
5390,-0.995,0.180
5391,-1.005,0.175
5392,-1.015,0.200
5393,-0.995,0.210
5394,-0.980,0.220
5395,-0.950,0.200
5396,-0.935,0.195
5397,-0.945,0.185
5398,-0.945,0.175
5399,-0.935,0.190
5400,-0.905,0.200
5401,-0.895,0.170
5402,-0.895,0.160
5403,-0.915,0.145
5404,-0.915,0.145
5405,-0.890,0.165
5406,-0.890,0.150
5407,-0.865,0.115
5408,-0.870,0.080
5409,-0.880,0.060
5410,-0.880,0.060
5411,-0.855,0.050
5412,-0.830,0.050
5413,-0.810,0.040
5414,-0.845,0.010
5415,-0.845,0.000
5416,-0.800,0.015
5417,-0.735,0.035
5418,-0.680,0.055
5419,-0.665,0.035
5420,-0.630,0.025
5421,-0.560,-0.005
5422,-0.460,-0.005
5423,-0.355,0.025
5424,-0.240,-0.005
5425,-0.105,-0.055
5426,0.090,-0.120
5427,0.325,-0.185
5428,0.575,-0.230
5429,0.835,-0.280
5430,1.005,-0.335
5431,1.080,-0.420
5432,1.075,-0.460
5433,1.085,-0.465
5434,1.105,-0.455
5435,1.095,-0.450
5436,1.070,-0.485
5437,0.990,-0.515
5438,0.835,-0.530
5439,0.670,-0.525
5440,0.465,-0.490
5441,0.210,-0.420
5442,-0.055,-0.360
5443,-0.345,-0.300
5444,-0.590,-0.240
5445,-0.805,-0.190
5446,-0.935,-0.115
5447,-0.950,-0.060
5448,-0.920,-0.015
5449,-0.930,-0.015
5450,-0.965,-0.015
5451,-1.005,-0.015
5452,-1.015,0.010
5453,-1.035,0.025
5454,-1.035,0.045
5455,-1.035,0.035
5456,-1.055,0.055
5457,-1.055,0.035
5458,-1.040,0.050
5459,-1.030,0.080
5460,-1.030,0.110
5461,-1.045,0.095
5462,-1.045,0.085
5463,-1.050,0.085
5464,-1.040,0.095
5465,-1.055,0.100
5466,-1.045,0.100
5467,-1.030,0.085
5468,-1.030,0.075
5469,-1.040,0.060
5470,-1.040,0.080
5471,-1.025,0.080
5472,-0.995,0.100
5473,-0.990,0.085
5474,-1.015,0.075
5475,-1.025,0.085
5476,-1.015,0.085
5477,-0.995,0.105
5478,-0.985,0.120
5479,-0.975,0.120
5480,-0.995,0.095
5481,-1.010,0.115
5482,-1.015,0.120
5483,-1.015,0.130
5484,-0.990,0.125
5485,-0.985,0.130
5486,-0.995,0.130
5487,-0.990,0.110
5488,-1.010,0.140
5489,-0.980,0.155
5490,-0.965,0.175
5491,-0.955,0.175
5492,-0.950,0.160
5493,-0.940,0.150
5494,-0.915,0.155
5495,-0.880,0.180
5496,-0.830,0.175
5497,-0.805,0.160
5498,-0.800,0.130
5499,-0.795,0.115
5500,-0.770,0.115
5501,-0.740,0.110
5502,-0.715,0.125
5503,-0.695,0.095
5504,-0.680,0.080
5505,-0.650,0.085
5506,-0.635,0.095
5507,-0.620,0.115
5508,-0.585,0.110
5509,-0.595,0.100
5510,-0.595,0.085
5511,-0.615,0.080
5512,-0.600,0.070
5513,-0.580,0.075
5514,-0.545,0.075
5515,-0.545,0.040
5516,-0.570,0.025
5517,-0.575,0.000
5518,-0.575,-0.005
5519,-0.560,-0.010
5520,-0.560,0.015
5521,-0.550,-0.005
5522,-0.545,-0.025
5523,-0.550,-0.025
5524,-0.550,-0.015
5525,-0.555,-0.005
5526,-0.520,0.010
5527,-0.530,0.000
5528,-0.555,-0.025
5529,-0.555,-0.015
5530,-0.550,-0.010
5531,-0.530,-0.005
5532,-0.510,0.000
5533,-0.515,0.005
5534,-0.515,-0.005
5535,-0.535,-0.010
5536,-0.540,-0.005
5537,-0.535,0.005
5538,-0.505,0.035
5539,-0.485,0.030
5540,-0.490,0.010
5541,-0.525,0.025
5542,-0.560,0.025
5543,-0.560,0.045
5544,-0.545,0.065
5545,-0.555,0.055
5546,-0.590,0.035
5547,-0.565,0.050
5548,-0.550,0.025
5549,-0.510,0.040
5550,-0.500,0.045
5551,-0.520,0.030
5552,-0.525,0.010
5553,-0.530,-0.010
5554,-0.525,0.010
5555,-0.520,0.010
5556,-0.515,0.000
5557,-0.510,-0.025
5558,-0.495,-0.050
5559,-0.510,-0.075
5560,-0.505,-0.075
5561,-0.495,-0.065
5562,-0.455,-0.050
5563,-0.450,-0.075
5564,-0.465,-0.085
5565,-0.460,-0.090
5566,-0.445,-0.085
5567,-0.445,-0.075
5568,-0.450,-0.085
5569,-0.460,-0.100
5570,-0.455,-0.105
5571,-0.430,-0.120
5572,-0.420,-0.120
5573,-0.420,-0.080
5574,-0.400,-0.070
5575,-0.385,-0.090
5576,-0.365,-0.090
5577,-0.365,-0.110
5578,-0.350,-0.095
5579,-0.350,-0.070
5580,-0.355,-0.060
5581,-0.340,-0.070
5582,-0.345,-0.075
5583,-0.345,-0.065
5584,-0.350,-0.060
5585,-0.335,-0.040
5586,-0.325,-0.010
5587,-0.320,-0.015
5588,-0.345,-0.010
5589,-0.385,-0.010
5590,-0.410,0.010
5591,-0.405,0.010
5592,-0.380,0.040
5593,-0.350,0.040
5594,-0.355,0.040
5595,-0.360,0.035
5596,-0.380,0.040
5597,-0.395,0.065
5598,-0.380,0.060
5599,-0.370,0.065
5600,-0.390,0.040
5601,-0.410,0.030
5602,-0.415,0.030
5603,-0.385,0.040
5604,-0.360,0.040
5605,-0.395,0.015
5606,-0.410,0.005
5607,-0.385,-0.010
5608,-0.355,-0.015
5609,-0.335,-0.010
5610,-0.335,-0.005
5611,-0.345,-0.030
5612,-0.370,-0.035
5613,-0.365,-0.065
5614,-0.350,-0.065
5615,-0.315,-0.060
5616,-0.295,-0.060
5617,-0.310,-0.090
5618,-0.330,-0.090
5619,-0.320,-0.110
5620,-0.295,-0.090
5621,-0.290,-0.080
5622,-0.285,-0.080
5623,-0.290,-0.115
5624,-0.285,-0.110
5625,-0.295,-0.105
5626,-0.260,-0.095
5627,-0.215,-0.085
5628,-0.190,-0.070
5629,-0.210,-0.075
5630,-0.245,-0.085
5631,-0.250,-0.085
5632,-0.215,-0.045
5633,-0.170,-0.025
5634,-0.100,-0.005
5635,-0.065,0.015
5636,-0.015,0.000
5637,0.080,0.005
5638,0.210,0.015
5639,0.345,0.030
5640,0.460,0.015
5641,0.590,-0.025
5642,0.765,-0.090
5643,1.000,-0.135
5644,1.260,-0.205
5645,1.480,-0.285
5646,1.625,-0.350
5647,1.665,-0.425
5648,1.665,-0.480
5649,1.690,-0.485
5650,1.700,-0.525
5651,1.675,-0.555
5652,1.610,-0.605
5653,1.445,-0.655
5654,1.270,-0.680
5655,1.090,-0.675
5656,0.865,-0.630
5657,0.630,-0.555
5658,0.380,-0.475
5659,0.125,-0.425
5660,-0.130,-0.375
5661,-0.325,-0.320
5662,-0.370,-0.250
5663,-0.365,-0.200
5664,-0.355,-0.170
5665,-0.375,-0.150
5666,-0.405,-0.145
5667,-0.430,-0.145
5668,-0.465,-0.145
5669,-0.490,-0.115
5670,-0.460,-0.095
5671,-0.440,-0.110
5672,-0.465,-0.125
5673,-0.480,-0.115
5674,-0.505,-0.085
5675,-0.485,-0.045
5676,-0.485,-0.050
5677,-0.505,-0.035
5678,-0.520,-0.045
5679,-0.520,-0.055
5680,-0.495,-0.035
5681,-0.480,-0.035
5682,-0.475,-0.015
5683,-0.460,-0.035
5684,-0.465,-0.055
5685,-0.470,-0.060
5686,-0.480,-0.055
5687,-0.465,-0.040
5688,-0.440,-0.035
5689,-0.450,-0.040
5690,-0.415,-0.055
5691,-0.425,-0.075
5692,-0.395,-0.075
5693,-0.385,-0.070
5694,-0.395,-0.070
5695,-0.360,-0.090
5696,-0.360,-0.115
5697,-0.350,-0.130
5698,-0.360,-0.110
5699,-0.320,-0.095
5700,-0.285,-0.095
5701,-0.285,-0.095
5702,-0.290,-0.135
5703,-0.310,-0.145
5704,-0.300,-0.140
5705,-0.270,-0.115
5706,-0.250,-0.125
5707,-0.255,-0.135
5708,-0.245,-0.145
5709,-0.250,-0.130
5710,-0.225,-0.110
5711,-0.200,-0.095
5712,-0.170,-0.100
5713,-0.150,-0.105
5714,-0.120,-0.120
5715,-0.115,-0.100
5716,-0.105,-0.100
5717,-0.065,-0.085
5718,-0.020,-0.075
5719,-0.020,-0.115
5720,-0.015,-0.120
5721,-0.005,-0.125
5722,0.035,-0.100
5723,0.055,-0.090
5724,0.055,-0.075
5725,0.050,-0.080
5726,0.075,-0.080
5727,0.090,-0.085
5728,0.095,-0.070
5729,0.115,-0.050
5730,0.115,-0.040
5731,0.085,-0.045
5732,0.065,-0.065
5733,0.030,-0.040
5734,0.030,-0.030
5735,0.055,0.000
5736,0.055,0.005
5737,0.070,-0.015
5738,0.045,-0.025
5739,0.030,-0.025
5740,0.015,-0.010
5741,0.035,-0.005
5742,0.040,0.005
5743,0.040,0.000
5744,0.030,-0.015
5745,0.005,-0.030
5746,0.005,-0.025
5747,0.005,-0.030
5748,0.035,-0.025
5749,0.060,-0.060
5750,0.075,-0.105
5751,0.030,-0.125
5752,0.030,-0.140
5753,0.030,-0.140
5754,0.060,-0.175
5755,0.050,-0.200
5756,0.035,-0.235
5757,0.055,-0.250
5758,0.095,-0.245
5759,0.105,-0.230
5760,0.120,-0.205
5761,0.105,-0.225
5762,0.120,-0.225
5763,0.135,-0.230
5764,0.110,-0.215
5765,0.110,-0.195
5766,0.110,-0.190
5767,0.110,-0.180
5768,0.100,-0.200
5769,0.080,-0.200
5770,0.095,-0.180
5771,0.130,-0.165
5772,0.160,-0.150
5773,0.155,-0.155
5774,0.150,-0.170
5775,0.200,-0.145
5776,0.280,-0.110
5777,0.330,-0.080
5778,0.330,-0.050
5779,0.305,-0.020
5780,0.335,-0.010
5781,0.340,0.005
5782,0.370,0.035
5783,0.425,0.045
5784,0.515,0.030
5785,0.670,-0.010
5786,0.855,-0.070
5787,1.080,-0.130
5788,1.290,-0.200
5789,1.485,-0.255
5790,1.545,-0.315
5791,1.600,-0.360
5792,1.675,-0.410
5793,1.725,-0.445
5794,1.715,-0.500
5795,1.680,-0.565
5796,1.640,-0.600
5797,1.540,-0.640
5798,1.390,-0.655
5799,1.225,-0.645
5800,1.080,-0.600
5801,0.875,-0.510
5802,0.655,-0.465
5803,0.425,-0.425
5804,0.220,-0.400
5805,0.095,-0.355
5806,0.010,-0.285
5807,-0.010,-0.255
5808,-0.020,-0.215
5809,-0.075,-0.215
5810,-0.105,-0.210
5811,-0.145,-0.205
5812,-0.160,-0.200
5813,-0.145,-0.170
5814,-0.155,-0.185
5815,-0.185,-0.205
5816,-0.220,-0.245
5817,-0.235,-0.255
5818,-0.215,-0.240
5819,-0.205,-0.240
5820,-0.185,-0.235
5821,-0.195,-0.235
5822,-0.230,-0.255
5823,-0.230,-0.240
5824,-0.255,-0.225
5825,-0.235,-0.185
5826,-0.225,-0.160
5827,-0.230,-0.160
5828,-0.245,-0.165
5829,-0.230,-0.150
5830,-0.200,-0.125
5831,-0.195,-0.100
5832,-0.185,-0.075
5833,-0.185,-0.085
5834,-0.170,-0.085
5835,-0.185,-0.095
5836,-0.190,-0.070
5837,-0.170,-0.040
5838,-0.140,-0.030
5839,-0.120,-0.040
5840,-0.125,-0.045
5841,-0.125,-0.045
5842,-0.120,-0.025
5843,-0.110,-0.005
5844,-0.085,-0.010
5845,-0.070,-0.015
5846,-0.045,-0.040
5847,-0.020,-0.045
5848,-0.015,-0.040
5849,0.015,-0.045
5850,0.050,-0.055
5851,0.080,-0.085
5852,0.065,-0.130
5853,0.075,-0.150
5854,0.120,-0.150
5855,0.170,-0.135
5856,0.200,-0.130
5857,0.200,-0.135
5858,0.200,-0.140
5859,0.205,-0.155
5860,0.235,-0.135
5861,0.250,-0.115
5862,0.280,-0.115
5863,0.290,-0.110
5864,0.280,-0.120
5865,0.295,-0.140
5866,0.300,-0.150
5867,0.310,-0.135
5868,0.270,-0.135
5869,0.245,-0.155
5870,0.235,-0.165
5871,0.225,-0.180
5872,0.205,-0.155
5873,0.185,-0.130
5874,0.200,-0.110
5875,0.180,-0.115
5876,0.175,-0.130
5877,0.160,-0.120
5878,0.165,-0.110
5879,0.180,-0.080
5880,0.195,-0.075
5881,0.195,-0.085
5882,0.180,-0.095
5883,0.180,-0.090
5884,0.170,-0.075
5885,0.175,-0.055
5886,0.180,-0.070
5887,0.180,-0.060
5888,0.185,-0.070
5889,0.185,-0.060
5890,0.200,-0.045
5891,0.235,-0.045
5892,0.260,-0.040
5893,0.250,-0.070
5894,0.240,-0.080
5895,0.215,-0.095
5896,0.210,-0.085
5897,0.215,-0.070
5898,0.230,-0.080
5899,0.205,-0.085
5900,0.190,-0.105
5901,0.170,-0.115
5902,0.180,-0.120
5903,0.185,-0.110
5904,0.180,-0.100
5905,0.165,-0.120
5906,0.165,-0.140
5907,0.150,-0.150
5908,0.130,-0.145
5909,0.140,-0.115
5910,0.165,-0.110
5911,0.175,-0.115
5912,0.165,-0.125
5913,0.135,-0.125
5914,0.115,-0.125
5915,0.135,-0.115
5916,0.165,-0.095
5917,0.170,-0.110
5918,0.120,-0.125
5919,0.080,-0.125
5920,0.110,-0.110
5921,0.175,-0.090
5922,0.215,-0.085
5923,0.200,-0.090
5924,0.160,-0.110
5925,0.125,-0.110
5926,0.095,-0.095
5927,0.100,-0.090
5928,0.110,-0.100
5929,0.125,-0.110
5930,0.125,-0.130
5931,0.110,-0.140
5932,0.080,-0.130
5933,0.100,-0.130
5934,0.130,-0.115
5935,0.160,-0.125
5936,0.175,-0.150
5937,0.155,-0.140
5938,0.155,-0.135
5939,0.150,-0.120
5940,0.165,-0.105
5941,0.165,-0.110
5942,0.155,-0.125
5943,0.140,-0.130
5944,0.135,-0.115
5945,0.140,-0.095
5946,0.160,-0.090
5947,0.155,-0.110
5948,0.145,-0.145
5949,0.130,-0.145
5950,0.125,-0.135
5951,0.155,-0.120
5952,0.190,-0.110
5953,0.195,-0.130
5954,0.175,-0.140
5955,0.145,-0.145
5956,0.125,-0.130
5957,0.120,-0.100
5958,0.115,-0.100
5959,0.130,-0.110
5960,0.135,-0.090
5961,0.125,-0.090
5962,0.110,-0.045
5963,0.130,-0.015
5964,0.150,-0.010
5965,0.150,-0.020
5966,0.105,-0.040
5967,0.095,-0.035
5968,0.095,-0.045
5969,0.095,-0.050
5970,0.080,-0.040
5971,0.085,-0.070
5972,0.075,-0.080
5973,0.075,-0.085
5974,0.070,-0.090
5975,0.080,-0.075
5976,0.100,-0.070
5977,0.080,-0.090
5978,0.065,-0.090
5979,0.055,-0.105
5980,0.075,-0.085
5981,0.095,-0.080
5982,0.120,-0.070
5983,0.105,-0.090
5984,0.100,-0.080
5985,0.095,-0.075
5986,0.075,-0.065
5987,0.100,-0.050
5988,0.125,-0.060
5989,0.115,-0.075
5990,0.090,-0.080
5991,0.080,-0.095
5992,0.075,-0.075
5993,0.085,-0.060
5994,0.100,-0.070
5995,0.085,-0.090
5996,0.085,-0.110
5997,0.100,-0.120
5998,0.090,-0.130
5999,0.115,-0.110
6000,0.150,-0.110
6001,0.160,-0.115
6002,0.150,-0.155
6003,0.120,-0.170
6004,0.125,-0.155
6005,0.130,-0.155
6006,0.170,-0.175
6007,0.190,-0.200
6008,0.195,-0.210
6009,0.190,-0.215
6010,0.160,-0.205
6011,0.165,-0.165
6012,0.195,-0.150
6013,0.185,-0.150
6014,0.210,-0.145
6015,0.270,-0.130
6016,0.330,-0.090
6017,0.385,-0.070
6018,0.470,-0.055
6019,0.565,-0.035
6020,0.620,-0.010
6021,0.675,0.010
6022,0.745,0.025
6023,0.910,0.010
6024,1.145,-0.025
6025,1.420,-0.090
6026,1.640,-0.205
6027,1.745,-0.295
6028,1.770,-0.365
6029,1.795,-0.395
6030,1.830,-0.420
6031,1.830,-0.470
6032,1.785,-0.550
6033,1.670,-0.630
6034,1.510,-0.675
6035,1.355,-0.660
6036,1.225,-0.650
6037,1.055,-0.625
6038,0.805,-0.590
6039,0.530,-0.520
6040,0.305,-0.425
6041,0.115,-0.330
6042,-0.035,-0.275
6043,-0.110,-0.225
6044,-0.105,-0.205
6045,-0.125,-0.200
6046,-0.165,-0.190
6047,-0.165,-0.175
6048,-0.175,-0.165
6049,-0.200,-0.165
6050,-0.235,-0.185
6051,-0.270,-0.200
6052,-0.285,-0.170
6053,-0.305,-0.150
6054,-0.300,-0.130
6055,-0.310,-0.155
6056,-0.340,-0.175
6057,-0.365,-0.185
6058,-0.385,-0.180
6059,-0.385,-0.160
6060,-0.365,-0.175
6061,-0.380,-0.175
6062,-0.380,-0.180
6063,-0.370,-0.160
6064,-0.355,-0.130
6065,-0.350,-0.105
6066,-0.340,-0.095
6067,-0.350,-0.095
6068,-0.345,-0.095
6069,-0.380,-0.105
6070,-0.355,-0.070
6071,-0.330,-0.050
6072,-0.300,-0.040
6073,-0.300,-0.020
6074,-0.320,-0.035
6075,-0.350,-0.030
6076,-0.360,0.000
6077,-0.340,0.040
6078,-0.315,0.060
6079,-0.325,0.070
6080,-0.355,0.080
6081,-0.350,0.100
6082,-0.335,0.115
6083,-0.315,0.135
6084,-0.305,0.145
6085,-0.325,0.150
6086,-0.320,0.150
6087,-0.330,0.150
6088,-0.320,0.175
6089,-0.325,0.190
6090,-0.280,0.210
6091,-0.285,0.200
6092,-0.300,0.180
6093,-0.315,0.175
6094,-0.305,0.170
6095,-0.290,0.185
6096,-0.245,0.180
6097,-0.245,0.135
6098,-0.245,0.110
6099,-0.245,0.105
6100,-0.225,0.095
6101,-0.205,0.075
6102,-0.155,0.070
6103,-0.130,0.030
6104,-0.125,-0.005
6105,-0.120,-0.010
6106,-0.100,-0.030
6107,-0.050,-0.045
6108,-0.010,-0.060
6109,0.015,-0.100
6110,0.015,-0.110
6111,-0.005,-0.120
6112,-0.010,-0.105
6113,0.025,-0.115
6114,0.040,-0.105
6115,0.045,-0.125
6116,0.025,-0.150
6117,0.025,-0.135
6118,0.025,-0.140
6119,0.045,-0.105
6120,0.075,-0.115
6121,0.050,-0.105
6122,0.045,-0.110
6123,0.045,-0.100
6124,0.030,-0.085
6125,0.040,-0.065
6126,0.060,-0.055
6127,0.065,-0.065
6128,0.050,-0.055
6129,0.045,-0.055
6130,0.045,-0.010
6131,0.070,0.025
6132,0.075,0.040
6133,0.070,0.045
6134,0.060,0.040
6135,0.055,0.055
6136,0.070,0.065
6137,0.075,0.090
6138,0.075,0.110
6139,0.075,0.100
6140,0.070,0.100
6141,0.065,0.095
6142,0.070,0.115
6143,0.085,0.140
6144,0.120,0.135
6145,0.120,0.110
6146,0.100,0.080
6147,0.075,0.065
6148,0.110,0.040
6149,0.135,0.025
6150,0.125,-0.005
6151,0.125,-0.035
6152,0.110,-0.065
6153,0.100,-0.085
6154,0.090,-0.080
6155,0.080,-0.060
6156,0.110,-0.100
6157,0.090,-0.095
6158,0.085,-0.140
6159,0.075,-0.160
6160,0.080,-0.170
6161,0.095,-0.150
6162,0.125,-0.165
6163,0.095,-0.185
6164,0.090,-0.210
6165,0.095,-0.240
6166,0.105,-0.225
6167,0.110,-0.235
6168,0.115,-0.225
6169,0.115,-0.240
6170,0.100,-0.245
6171,0.085,-0.240
6172,0.070,-0.210
6173,0.075,-0.160
6174,0.090,-0.125
6175,0.060,-0.105
6176,0.050,-0.085
6177,0.045,-0.060
6178,0.040,-0.010
6179,0.050,0.010
6180,0.045,0.045
6181,0.015,0.050
6182,0.030,0.055
6183,0.065,0.075
6184,0.130,0.105
6185,0.205,0.170
6186,0.290,0.175
6187,0.345,0.200
6188,0.365,0.225
6189,0.410,0.240
6190,0.510,0.270
6191,0.660,0.260
6192,0.900,0.215
6193,1.180,0.120
6194,1.510,-0.015
6195,1.755,-0.180
6196,1.855,-0.305
6197,1.890,-0.380
6198,1.925,-0.410
6199,1.945,-0.455
6200,1.935,-0.530
6201,1.875,-0.585
6202,1.795,-0.610
6203,1.680,-0.630
6204,1.540,-0.625
6205,1.340,-0.630
6206,1.160,-0.615
6207,0.950,-0.560
6208,0.700,-0.470
6209,0.480,-0.390
6210,0.260,-0.345
6211,0.035,-0.280
6212,-0.135,-0.240
6213,-0.205,-0.190
6214,-0.215,-0.160
6215,-0.205,-0.135
6216,-0.230,-0.115
6217,-0.290,-0.110
6218,-0.360,-0.135
6219,-0.370,-0.130
6220,-0.380,-0.100
6221,-0.365,-0.085
6222,-0.370,-0.070
6223,-0.365,-0.060
6224,-0.385,-0.085
6225,-0.410,-0.095
6226,-0.450,-0.090
6227,-0.465,-0.090
6228,-0.460,-0.085
6229,-0.440,-0.095
6230,-0.460,-0.115
6231,-0.480,-0.125
6232,-0.495,-0.110
6233,-0.485,-0.085
6234,-0.475,-0.065
6235,-0.460,-0.060
6236,-0.440,-0.070
6237,-0.440,-0.050
6238,-0.455,-0.030
6239,-0.450,0.000
6240,-0.445,0.010
6241,-0.430,0.005
6242,-0.435,-0.005
6243,-0.430,-0.005
6244,-0.415,0.015
6245,-0.375,0.025
6246,-0.335,0.040
6247,-0.315,0.020
6248,-0.295,0.005
6249,-0.280,0.030
6250,-0.285,0.025
6251,-0.285,0.035
6252,-0.300,0.055
6253,-0.290,0.035
6254,-0.275,0.015
6255,-0.280,0.025
6256,-0.260,0.030
6257,-0.235,0.035
6258,-0.230,0.055
6259,-0.240,0.050
6260,-0.285,0.030
6261,-0.315,0.035
6262,-0.325,0.035
6263,-0.310,0.040
6264,-0.250,0.035
6265,-0.210,0.005
6266,-0.180,-0.005
6267,-0.165,-0.015
6268,-0.145,-0.010
6269,-0.100,0.005
6270,-0.070,-0.005
6271,-0.055,-0.010
6272,-0.065,-0.035
6273,-0.065,-0.030
6274,-0.050,-0.020
6275,-0.015,-0.005
6276,0.005,0.005
6277,-0.015,-0.015
6278,0.005,-0.025
6279,-0.020,-0.030
6280,-0.030,-0.030
6281,-0.040,0.000
6282,-0.045,-0.005
6283,-0.055,-0.005
6284,-0.080,-0.030
6285,-0.095,-0.035
6286,-0.090,-0.015
6287,-0.085,-0.020
6288,-0.075,-0.025
6289,-0.105,-0.030
6290,-0.130,-0.060
6291,-0.135,-0.050
6292,-0.070,-0.065
6293,-0.020,-0.065
6294,0.020,-0.070
6295,-0.030,-0.090
6296,-0.105,-0.110
6297,-0.170,-0.090
6298,-0.200,-0.065
6299,-0.205,-0.045
6300,-0.185,-0.045
6301,-0.190,-0.050
6302,-0.240,-0.040
6303,-0.280,-0.055
6304,-0.305,-0.030
6305,-0.285,-0.005
6306,-0.230,0.010
6307,-0.210,0.010
6308,-0.225,0.015
6309,-0.230,0.010
6310,-0.240,0.035
6311,-0.220,0.060
6312,-0.195,0.080
6313,-0.200,0.070
6314,-0.225,0.060
6315,-0.220,0.065
6316,-0.195,0.085
6317,-0.190,0.105
6318,-0.195,0.095
6319,-0.195,0.080
6320,-0.205,0.060
6321,-0.220,0.060
6322,-0.215,0.065
6323,-0.225,0.090
6324,-0.205,0.085
6325,-0.220,0.090
6326,-0.225,0.055
6327,-0.235,0.065
6328,-0.265,0.080
6329,-0.250,0.105
6330,-0.235,0.110
6331,-0.235,0.085
6332,-0.255,0.065
6333,-0.260,0.060
6334,-0.255,0.075
6335,-0.255,0.075
6336,-0.245,0.065
6337,-0.240,0.045
6338,-0.225,0.020
6339,-0.235,-0.005
6340,-0.240,0.015
6341,-0.240,0.020
6342,-0.215,0.015
6343,-0.225,-0.005
6344,-0.250,-0.025
6345,-0.255,-0.035
6346,-0.240,-0.030
6347,-0.230,-0.030
6348,-0.225,-0.020
6349,-0.230,-0.045
6350,-0.220,-0.060
6351,-0.220,-0.060
6352,-0.215,-0.045
6353,-0.205,-0.030
6354,-0.200,-0.035
6355,-0.215,-0.050
6356,-0.225,-0.065
6357,-0.245,-0.070
6358,-0.240,-0.050
6359,-0.230,-0.035
6360,-0.250,-0.030
6361,-0.290,-0.055
6362,-0.310,-0.055
6363,-0.315,-0.060
6364,-0.305,-0.050
6365,-0.300,-0.030
6366,-0.280,-0.030
6367,-0.265,-0.060
6368,-0.275,-0.075
6369,-0.285,-0.070
6370,-0.280,-0.045
6371,-0.285,-0.030
6372,-0.285,-0.060
6373,-0.290,-0.065
6374,-0.305,-0.075
6375,-0.305,-0.070
6376,-0.300,-0.050
6377,-0.305,-0.040
6378,-0.310,-0.045
6379,-0.310,-0.055
6380,-0.320,-0.055
6381,-0.325,-0.055
6382,-0.305,-0.045
6383,-0.280,-0.020
6384,-0.275,-0.030
6385,-0.280,-0.035
6386,-0.260,-0.055
6387,-0.250,-0.060
6388,-0.260,-0.035
6389,-0.275,-0.010
6390,-0.305,-0.020
6391,-0.305,-0.040
6392,-0.290,-0.050
6393,-0.300,-0.050
6394,-0.315,-0.035
6395,-0.305,-0.015
6396,-0.280,-0.025
6397,-0.305,-0.030
6398,-0.315,-0.035
6399,-0.340,-0.040
6400,-0.330,-0.030
6401,-0.310,-0.010
6402,-0.285,-0.015
6403,-0.275,-0.010
6404,-0.255,-0.035
6405,-0.260,-0.040
6406,-0.290,-0.040
6407,-0.290,-0.045
6408,-0.280,-0.075
6409,-0.245,-0.085
6410,-0.255,-0.110
6411,-0.270,-0.130
6412,-0.260,-0.115
6413,-0.250,-0.090
6414,-0.255,-0.075
6415,-0.245,-0.065
6416,-0.220,-0.075
6417,-0.140,-0.055
6418,-0.045,-0.025
6419,0.055,0.015
6420,0.140,0.045
6421,0.205,0.075
6422,0.250,0.100
6423,0.285,0.155
6424,0.355,0.195
6425,0.450,0.205
6426,0.565,0.195
6427,0.715,0.160
6428,0.925,0.095
6429,1.090,0.055
6430,1.230,-0.010
6431,1.265,-0.110
6432,1.275,-0.180
6433,1.295,-0.240
6434,1.295,-0.280
6435,1.260,-0.350
6436,1.215,-0.405
6437,1.110,-0.485
6438,0.960,-0.550
6439,0.750,-0.580
6440,0.575,-0.595
6441,0.400,-0.570
6442,0.215,-0.500
6443,0.055,-0.410
6444,-0.085,-0.345
6445,-0.205,-0.310
6446,-0.345,-0.240
6447,-0.435,-0.180
6448,-0.450,-0.125
6449,-0.455,-0.080
6450,-0.465,-0.055
6451,-0.505,-0.030
6452,-0.520,-0.045
6453,-0.565,-0.030
6454,-0.585,-0.025
6455,-0.590,-0.005
6456,-0.565,0.010
6457,-0.555,-0.010
6458,-0.565,-0.020
6459,-0.605,-0.025
6460,-0.640,-0.020
6461,-0.660,-0.015
6462,-0.645,-0.010
6463,-0.650,-0.030
6464,-0.660,-0.055
6465,-0.695,-0.075
6466,-0.715,-0.065
6467,-0.705,-0.065
6468,-0.690,-0.060
6469,-0.710,-0.090
6470,-0.715,-0.110
6471,-0.715,-0.125
6472,-0.710,-0.115
6473,-0.725,-0.090
6474,-0.705,-0.090
6475,-0.695,-0.100
6476,-0.690,-0.125
6477,-0.690,-0.110
6478,-0.695,-0.105
6479,-0.695,-0.080
6480,-0.670,-0.085
6481,-0.655,-0.095
6482,-0.645,-0.090
6483,-0.660,-0.075
6484,-0.675,-0.065
6485,-0.655,-0.035
6486,-0.610,-0.010
6487,-0.555,-0.030
6488,-0.550,-0.050
6489,-0.555,-0.035
6490,-0.560,-0.015
6491,-0.540,0.000
6492,-0.520,0.005
6493,-0.530,0.000
6494,-0.535,-0.005
6495,-0.535,-0.005
6496,-0.505,0.005
6497,-0.460,0.030
6498,-0.460,0.030
6499,-0.465,0.035
6500,-0.495,0.035
6501,-0.540,0.050
6502,-0.525,0.075
6503,-0.495,0.105
6504,-0.435,0.095
6505,-0.415,0.085
6506,-0.435,0.065
6507,-0.450,0.085
6508,-0.430,0.120
6509,-0.380,0.140
6510,-0.370,0.125
6511,-0.385,0.110
6512,-0.415,0.095
6513,-0.395,0.105
6514,-0.360,0.125
6515,-0.325,0.140
6516,-0.295,0.130
6517,-0.285,0.120
6518,-0.320,0.105
6519,-0.330,0.120
6520,-0.315,0.120
6521,-0.325,0.135
6522,-0.315,0.135
6523,-0.305,0.105
6524,-0.305,0.060
6525,-0.295,0.035
6526,-0.295,0.025
6527,-0.305,0.025
6528,-0.325,0.000
6529,-0.335,-0.030
6530,-0.335,-0.060
6531,-0.320,-0.075
6532,-0.315,-0.080
6533,-0.310,-0.090
6534,-0.300,-0.110
6535,-0.295,-0.140
6536,-0.300,-0.155
6537,-0.305,-0.155
6538,-0.300,-0.140
6539,-0.265,-0.140
6540,-0.265,-0.125
6541,-0.270,-0.145
6542,-0.295,-0.125
6543,-0.275,-0.125
6544,-0.270,-0.100
6545,-0.265,-0.060
6546,-0.270,-0.050
6547,-0.265,-0.055
6548,-0.290,-0.065
6549,-0.300,-0.050
6550,-0.300,-0.025
6551,-0.285,-0.010
6552,-0.255,0.005
6553,-0.250,-0.020
6554,-0.275,-0.010
6555,-0.300,0.005
6556,-0.285,0.025
6557,-0.265,0.035
6558,-0.255,0.050
6559,-0.265,0.055
6560,-0.260,0.035
6561,-0.270,0.050
6562,-0.275,0.060
6563,-0.280,0.085
6564,-0.255,0.090
6565,-0.240,0.085
6566,-0.250,0.060
6567,-0.255,0.080
6568,-0.265,0.085
6569,-0.250,0.115
6570,-0.225,0.120
6571,-0.230,0.095
6572,-0.235,0.075
6573,-0.235,0.075
6574,-0.250,0.075
6575,-0.265,0.085
6576,-0.255,0.080
6577,-0.255,0.065
6578,-0.260,0.040
6579,-0.275,0.035
6580,-0.270,0.040
6581,-0.265,0.030
6582,-0.245,0.005
6583,-0.255,-0.045
6584,-0.260,-0.070
6585,-0.255,-0.115
6586,-0.245,-0.120
6587,-0.240,-0.125
6588,-0.245,-0.150
6589,-0.250,-0.195
6590,-0.285,-0.200
6591,-0.300,-0.220
6592,-0.290,-0.210
6593,-0.265,-0.200
6594,-0.255,-0.205
6595,-0.270,-0.225
6596,-0.290,-0.230
6597,-0.305,-0.225
6598,-0.300,-0.190
6599,-0.290,-0.160
6600,-0.275,-0.165
6601,-0.280,-0.145
6602,-0.280,-0.155
6603,-0.290,-0.145
6604,-0.305,-0.125
6605,-0.320,-0.110
6606,-0.310,-0.100
6607,-0.295,-0.085
6608,-0.295,-0.090
6609,-0.325,-0.080
6610,-0.310,-0.095
6611,-0.285,-0.050
6612,-0.265,-0.055
6613,-0.285,-0.055
6614,-0.300,-0.075
6615,-0.295,-0.060
6616,-0.285,-0.040
6617,-0.265,-0.020
6618,-0.250,-0.020
6619,-0.240,-0.020
6620,-0.250,-0.030
6621,-0.255,-0.040
6622,-0.265,-0.010
6623,-0.250,0.010
6624,-0.230,0.010
6625,-0.250,0.020
6626,-0.255,-0.005
6627,-0.280,0.010
6628,-0.280,0.030
6629,-0.260,0.050
6630,-0.270,0.050
6631,-0.300,0.050
6632,-0.325,0.050
6633,-0.355,0.065
6634,-0.355,0.075
6635,-0.360,0.095
6636,-0.355,0.100
6637,-0.350,0.070
6638,-0.330,0.050
