'sample interval','MLII','V1'
'0.00277778 sec','mV','mV'
0,-0.345,-0.160
1,-0.345,-0.160
2,-0.345,-0.160
3,-0.345,-0.160
4,-0.345,-0.160
5,-0.345,-0.160
6,-0.345,-0.160
7,-0.345,-0.160
8,-0.330,-0.150
9,-0.320,-0.145
10,-0.320,-0.170
11,-0.325,-0.180
12,-0.330,-0.170
13,-0.325,-0.150
14,-0.315,-0.160
15,-0.305,-0.170
16,-0.300,-0.185
17,-0.315,-0.195
18,-0.320,-0.185
19,-0.315,-0.185
20,-0.300,-0.175
21,-0.290,-0.200
22,-0.290,-0.190
23,-0.295,-0.205
24,-0.290,-0.195
25,-0.295,-0.175
26,-0.285,-0.175
27,-0.255,-0.190
28,-0.230,-0.200
29,-0.200,-0.215
30,-0.195,-0.210
31,-0.160,-0.210
32,-0.160,-0.190
33,-0.165,-0.220
34,-0.200,-0.225
35,-0.200,-0.245
36,-0.210,-0.235
37,-0.210,-0.215
38,-0.205,-0.225
39,-0.210,-0.235
40,-0.210,-0.240
41,-0.220,-0.245
42,-0.250,-0.225
43,-0.250,-0.215
44,-0.250,-0.205
45,-0.260,-0.205
46,-0.265,-0.205
47,-0.275,-0.195
48,-0.305,-0.190
49,-0.320,-0.175
50,-0.330,-0.180
51,-0.320,-0.180
52,-0.320,-0.200
53,-0.315,-0.200
54,-0.340,-0.185
55,-0.350,-0.180
56,-0.335,-0.175
57,-0.320,-0.200
58,-0.310,-0.200
59,-0.335,-0.205
60,-0.345,-0.205
61,-0.350,-0.200
62,-0.350,-0.195
63,-0.355,-0.215
64,-0.350,-0.215
65,-0.350,-0.220
66,-0.370,-0.215
67,-0.360,-0.220
68,-0.345,-0.220
69,-0.325,-0.220
70,-0.325,-0.220
71,-0.335,-0.230
72,-0.370,-0.245
73,-0.400,-0.235
74,-0.400,-0.230
75,-0.395,-0.230
76,-0.350,-0.240
77,-0.210,-0.240
78,-0.010,-0.240
79,0.245,-0.245
80,0.530,-0.250
81,0.850,-0.285
82,1.085,-0.315
83,1.065,-0.375
84,0.815,-0.400
85,0.480,-0.410
86,0.210,-0.365
87,-0.010,-0.295
88,-0.145,-0.230
89,-0.185,-0.200
90,-0.240,-0.200
91,-0.285,-0.215
92,-0.285,-0.205
93,-0.285,-0.195
94,-0.290,-0.180
95,-0.300,-0.190
96,-0.335,-0.200
97,-0.360,-0.200
98,-0.360,-0.185
99,-0.385,-0.180
100,-0.395,-0.195
101,-0.415,-0.210
102,-0.430,-0.230
103,-0.435,-0.225
104,-0.405,-0.200
105,-0.410,-0.205
106,-0.405,-0.210
107,-0.415,-0.225
108,-0.440,-0.225
109,-0.430,-0.210
110,-0.415,-0.190
111,-0.420,-0.190
112,-0.415,-0.225
113,-0.420,-0.230
114,-0.430,-0.245
115,-0.440,-0.235
116,-0.425,-0.225
117,-0.415,-0.225
118,-0.425,-0.240
119,-0.430,-0.250
120,-0.425,-0.250
121,-0.415,-0.230
122,-0.420,-0.220
123,-0.415,-0.230
124,-0.420,-0.235
125,-0.420,-0.240
126,-0.435,-0.225
127,-0.415,-0.210
128,-0.415,-0.200
129,-0.400,-0.185
130,-0.395,-0.190
131,-0.410,-0.210
132,-0.425,-0.195
133,-0.415,-0.180
134,-0.405,-0.175
135,-0.395,-0.180
136,-0.400,-0.195
137,-0.410,-0.200
138,-0.420,-0.185
139,-0.410,-0.195
140,-0.395,-0.195
141,-0.380,-0.210
142,-0.390,-0.215
143,-0.400,-0.220
144,-0.415,-0.210
145,-0.420,-0.205
146,-0.385,-0.210
147,-0.375,-0.220
148,-0.380,-0.205
149,-0.375,-0.215
150,-0.365,-0.210
151,-0.350,-0.210
152,-0.350,-0.215
153,-0.350,-0.220
154,-0.340,-0.235
155,-0.350,-0.245
156,-0.350,-0.250
157,-0.325,-0.255
158,-0.320,-0.240
159,-0.310,-0.250
160,-0.310,-0.245
161,-0.310,-0.240
162,-0.305,-0.240
163,-0.285,-0.250
164,-0.270,-0.240
165,-0.265,-0.245
166,-0.265,-0.230
167,-0.255,-0.235
168,-0.240,-0.230
169,-0.220,-0.225
170,-0.210,-0.210
171,-0.205,-0.205
172,-0.190,-0.205
173,-0.175,-0.200
174,-0.175,-0.205
175,-0.165,-0.210
176,-0.155,-0.200
177,-0.145,-0.200
178,-0.130,-0.200
179,-0.125,-0.215
180,-0.135,-0.225
181,-0.125,-0.225
182,-0.110,-0.215
183,-0.090,-0.215
184,-0.105,-0.225
185,-0.120,-0.240
186,-0.120,-0.260
187,-0.120,-0.255
188,-0.110,-0.235
189,-0.110,-0.230
190,-0.130,-0.230
191,-0.160,-0.245
192,-0.165,-0.255
193,-0.170,-0.240
194,-0.170,-0.225
195,-0.180,-0.215
196,-0.205,-0.235
197,-0.225,-0.260
198,-0.235,-0.265
199,-0.245,-0.250
200,-0.250,-0.240
201,-0.255,-0.235
202,-0.265,-0.235
203,-0.275,-0.250
204,-0.285,-0.260
205,-0.295,-0.245
206,-0.290,-0.215
207,-0.305,-0.215
208,-0.315,-0.225
209,-0.330,-0.250
210,-0.340,-0.225
211,-0.325,-0.220
212,-0.325,-0.190
213,-0.315,-0.185
214,-0.310,-0.185
215,-0.335,-0.200
216,-0.355,-0.205
217,-0.355,-0.190
218,-0.365,-0.175
219,-0.345,-0.175
220,-0.345,-0.190
221,-0.330,-0.205
222,-0.350,-0.205
223,-0.355,-0.185
224,-0.340,-0.180
225,-0.345,-0.195
226,-0.345,-0.210
227,-0.350,-0.225
228,-0.350,-0.225
229,-0.350,-0.200
230,-0.345,-0.190
231,-0.330,-0.205
232,-0.340,-0.215
233,-0.350,-0.220
234,-0.360,-0.210
235,-0.350,-0.190
236,-0.340,-0.190
237,-0.330,-0.215
238,-0.320,-0.235
239,-0.325,-0.235
240,-0.320,-0.235
241,-0.325,-0.205
242,-0.320,-0.205
243,-0.315,-0.225
244,-0.325,-0.230
245,-0.345,-0.240
246,-0.350,-0.235
247,-0.330,-0.215
248,-0.320,-0.200
249,-0.305,-0.220
250,-0.305,-0.210
251,-0.300,-0.220
252,-0.320,-0.210
253,-0.325,-0.195
254,-0.325,-0.185
255,-0.305,-0.185
256,-0.290,-0.185
257,-0.305,-0.200
258,-0.320,-0.190
259,-0.325,-0.175
260,-0.325,-0.170
261,-0.310,-0.185
262,-0.310,-0.180
263,-0.310,-0.185
264,-0.325,-0.190
265,-0.310,-0.175
266,-0.310,-0.175
267,-0.315,-0.185
268,-0.310,-0.195
269,-0.320,-0.210
270,-0.330,-0.200
271,-0.320,-0.200
272,-0.315,-0.195
273,-0.315,-0.215
274,-0.315,-0.215
275,-0.340,-0.210
276,-0.340,-0.210
277,-0.325,-0.200
278,-0.310,-0.200
279,-0.305,-0.200
280,-0.320,-0.205
281,-0.320,-0.220
282,-0.330,-0.225
283,-0.330,-0.240
284,-0.335,-0.240
285,-0.320,-0.235
286,-0.320,-0.240
287,-0.330,-0.245
288,-0.340,-0.245
289,-0.345,-0.235
290,-0.335,-0.225
291,-0.320,-0.235
292,-0.330,-0.235
293,-0.325,-0.225
294,-0.320,-0.220
295,-0.325,-0.210
296,-0.325,-0.205
297,-0.315,-0.210
298,-0.315,-0.185
299,-0.320,-0.195
300,-0.335,-0.195
301,-0.335,-0.190
302,-0.325,-0.180
303,-0.320,-0.180
304,-0.330,-0.165
305,-0.340,-0.180
306,-0.350,-0.190
307,-0.330,-0.190
308,-0.335,-0.185
309,-0.325,-0.200
310,-0.310,-0.205
311,-0.340,-0.205
312,-0.355,-0.220
313,-0.335,-0.210
314,-0.320,-0.215
315,-0.305,-0.205
316,-0.310,-0.210
317,-0.315,-0.200
318,-0.320,-0.210
319,-0.350,-0.225
320,-0.315,-0.200
321,-0.320,-0.195
322,-0.320,-0.205
323,-0.320,-0.215
324,-0.320,-0.220
325,-0.320,-0.250
326,-0.310,-0.220
327,-0.310,-0.225
328,-0.315,-0.235
329,-0.315,-0.225
330,-0.310,-0.230
331,-0.295,-0.225
332,-0.280,-0.225
333,-0.280,-0.235
334,-0.290,-0.230
335,-0.295,-0.225
336,-0.295,-0.235
337,-0.285,-0.220
338,-0.275,-0.215
339,-0.240,-0.210
340,-0.220,-0.205
341,-0.215,-0.205
342,-0.215,-0.185
343,-0.175,-0.180
344,-0.145,-0.180
345,-0.140,-0.185
346,-0.150,-0.175
347,-0.185,-0.185
348,-0.210,-0.190
349,-0.215,-0.185
350,-0.215,-0.190
351,-0.205,-0.190
352,-0.210,-0.200
353,-0.215,-0.200
354,-0.235,-0.215
355,-0.255,-0.210
356,-0.250,-0.205
357,-0.250,-0.215
358,-0.240,-0.210
359,-0.255,-0.225
360,-0.270,-0.215
361,-0.275,-0.220
362,-0.300,-0.220
363,-0.300,-0.220
364,-0.325,-0.220
365,-0.320,-0.225
366,-0.325,-0.225
367,-0.315,-0.230
368,-0.305,-0.240
369,-0.305,-0.245
370,-0.315,-0.230
371,-0.320,-0.240
372,-0.355,-0.260
373,-0.350,-0.250
374,-0.350,-0.250
375,-0.335,-0.255
376,-0.320,-0.240
377,-0.325,-0.255
378,-0.340,-0.245
379,-0.350,-0.245
380,-0.325,-0.225
381,-0.305,-0.220
382,-0.310,-0.195
383,-0.325,-0.220
384,-0.360,-0.215
385,-0.355,-0.220
386,-0.360,-0.190
387,-0.355,-0.175
388,-0.360,-0.165
389,-0.370,-0.190
390,-0.270,-0.185
391,-0.085,-0.185
392,0.135,-0.185
393,0.385,-0.185
394,0.690,-0.215
395,0.945,-0.265
396,1.020,-0.320
397,0.890,-0.370
398,0.605,-0.390
399,0.345,-0.355
400,0.115,-0.310
401,-0.055,-0.265
402,-0.140,-0.230
403,-0.185,-0.210
404,-0.235,-0.195
405,-0.240,-0.195
406,-0.250,-0.200
407,-0.270,-0.215
408,-0.300,-0.225
409,-0.315,-0.225
410,-0.340,-0.210
411,-0.370,-0.215
412,-0.380,-0.225
413,-0.405,-0.250
414,-0.395,-0.250
415,-0.385,-0.235
416,-0.375,-0.205
417,-0.365,-0.215
418,-0.375,-0.230
419,-0.395,-0.245
420,-0.415,-0.245
421,-0.420,-0.230
422,-0.405,-0.200
423,-0.390,-0.205
424,-0.410,-0.205
425,-0.400,-0.215
426,-0.410,-0.195
427,-0.390,-0.170
428,-0.395,-0.175
429,-0.390,-0.175
430,-0.395,-0.185
431,-0.415,-0.190
432,-0.425,-0.180
433,-0.420,-0.175
434,-0.395,-0.160
435,-0.390,-0.180
436,-0.400,-0.190
437,-0.405,-0.200
438,-0.405,-0.195
439,-0.395,-0.200
440,-0.385,-0.200
441,-0.385,-0.190
442,-0.385,-0.205
443,-0.400,-0.205
444,-0.405,-0.200
445,-0.405,-0.200
446,-0.400,-0.190
447,-0.390,-0.205
448,-0.385,-0.205
449,-0.400,-0.220
450,-0.415,-0.220
451,-0.405,-0.215
452,-0.390,-0.220
453,-0.375,-0.230
454,-0.370,-0.235
455,-0.385,-0.230
456,-0.400,-0.230
457,-0.385,-0.230
458,-0.370,-0.225
459,-0.360,-0.225
460,-0.365,-0.235
461,-0.365,-0.225
462,-0.375,-0.225
463,-0.380,-0.230
464,-0.355,-0.225
465,-0.340,-0.215
466,-0.340,-0.215
467,-0.335,-0.205
468,-0.345,-0.195
469,-0.335,-0.195
470,-0.320,-0.185
471,-0.315,-0.185
472,-0.330,-0.180
473,-0.315,-0.200
474,-0.330,-0.190
475,-0.315,-0.180
476,-0.300,-0.170
477,-0.275,-0.175
478,-0.255,-0.170
479,-0.240,-0.185
480,-0.255,-0.195
481,-0.245,-0.205
482,-0.235,-0.185
483,-0.220,-0.205
484,-0.210,-0.195
485,-0.210,-0.220
486,-0.215,-0.215
487,-0.205,-0.215
488,-0.185,-0.210
489,-0.170,-0.215
490,-0.150,-0.210
491,-0.140,-0.215
492,-0.145,-0.230
493,-0.140,-0.230
494,-0.115,-0.225
495,-0.120,-0.230
496,-0.125,-0.245
497,-0.115,-0.255
498,-0.130,-0.270
499,-0.120,-0.255
500,-0.120,-0.250
501,-0.125,-0.250
502,-0.115,-0.240
503,-0.130,-0.250
504,-0.125,-0.260
505,-0.125,-0.255
506,-0.130,-0.240
507,-0.140,-0.225
508,-0.160,-0.215
509,-0.170,-0.225
510,-0.190,-0.220
511,-0.195,-0.205
512,-0.190,-0.195
513,-0.180,-0.185
514,-0.195,-0.185
515,-0.225,-0.185
516,-0.235,-0.190
517,-0.240,-0.180
518,-0.235,-0.165
519,-0.235,-0.165
520,-0.240,-0.160
521,-0.270,-0.180
522,-0.275,-0.185
523,-0.280,-0.195
524,-0.275,-0.180
525,-0.275,-0.175
526,-0.280,-0.190
527,-0.300,-0.195
528,-0.310,-0.195
529,-0.310,-0.195
530,-0.305,-0.185
531,-0.295,-0.165
532,-0.295,-0.180
533,-0.310,-0.200
534,-0.320,-0.200
535,-0.305,-0.200
536,-0.300,-0.190
537,-0.295,-0.185
538,-0.315,-0.190
539,-0.315,-0.220
540,-0.320,-0.230
541,-0.305,-0.210
542,-0.305,-0.210
543,-0.295,-0.200
544,-0.310,-0.205
545,-0.305,-0.225
546,-0.300,-0.230
547,-0.305,-0.220
548,-0.300,-0.200
549,-0.310,-0.180
550,-0.295,-0.185
551,-0.295,-0.205
552,-0.295,-0.205
553,-0.290,-0.185
554,-0.285,-0.160
555,-0.280,-0.160
556,-0.275,-0.170
557,-0.275,-0.170
558,-0.285,-0.170
559,-0.290,-0.150
560,-0.275,-0.145
561,-0.280,-0.150
562,-0.270,-0.170
563,-0.285,-0.175
564,-0.295,-0.175
565,-0.295,-0.160
566,-0.275,-0.150
567,-0.270,-0.165
568,-0.265,-0.170
569,-0.265,-0.195
570,-0.270,-0.190
571,-0.265,-0.185
572,-0.270,-0.165
573,-0.260,-0.160
574,-0.260,-0.175
575,-0.265,-0.185
576,-0.285,-0.185
577,-0.285,-0.175
578,-0.275,-0.175
579,-0.260,-0.185
580,-0.265,-0.205
581,-0.280,-0.220
582,-0.285,-0.215
583,-0.280,-0.200
584,-0.265,-0.195
585,-0.265,-0.205
586,-0.265,-0.210
587,-0.265,-0.215
588,-0.265,-0.210
589,-0.270,-0.195
590,-0.270,-0.190
591,-0.255,-0.195
592,-0.265,-0.200
593,-0.280,-0.200
594,-0.290,-0.185
595,-0.280,-0.165
596,-0.270,-0.150
597,-0.270,-0.155
598,-0.265,-0.160
599,-0.265,-0.175
600,-0.295,-0.165
601,-0.280,-0.155
602,-0.285,-0.140
603,-0.265,-0.155
604,-0.265,-0.155
605,-0.280,-0.165
606,-0.285,-0.160
607,-0.285,-0.150
608,-0.275,-0.150
609,-0.275,-0.170
610,-0.275,-0.180
611,-0.275,-0.200
612,-0.285,-0.180
613,-0.285,-0.170
614,-0.270,-0.160
615,-0.265,-0.180
616,-0.270,-0.190
617,-0.275,-0.185
618,-0.285,-0.190
619,-0.280,-0.175
620,-0.265,-0.160
621,-0.265,-0.180
622,-0.275,-0.185
623,-0.270,-0.190
624,-0.275,-0.200
625,-0.275,-0.205
626,-0.275,-0.190
627,-0.260,-0.190
628,-0.265,-0.210
629,-0.275,-0.225
630,-0.285,-0.225
631,-0.280,-0.210
632,-0.280,-0.190
633,-0.260,-0.200
634,-0.270,-0.205
635,-0.275,-0.215
636,-0.280,-0.220
637,-0.280,-0.200
638,-0.270,-0.175
639,-0.255,-0.165
640,-0.225,-0.165
641,-0.235,-0.175
642,-0.245,-0.175
643,-0.240,-0.150
644,-0.220,-0.140
645,-0.210,-0.145
646,-0.215,-0.150
647,-0.220,-0.150
648,-0.225,-0.160
649,-0.235,-0.140
650,-0.230,-0.120
651,-0.220,-0.140
652,-0.190,-0.155
653,-0.180,-0.175
654,-0.185,-0.185
655,-0.150,-0.155
656,-0.115,-0.145
657,-0.105,-0.155
658,-0.100,-0.175
659,-0.125,-0.195
660,-0.150,-0.190
661,-0.155,-0.180
662,-0.150,-0.165
663,-0.160,-0.175
664,-0.175,-0.180
665,-0.185,-0.205
666,-0.200,-0.200
667,-0.190,-0.175
668,-0.190,-0.185
669,-0.180,-0.200
670,-0.195,-0.215
671,-0.210,-0.235
672,-0.225,-0.230
673,-0.220,-0.210
674,-0.225,-0.205
675,-0.240,-0.205
676,-0.240,-0.220
677,-0.260,-0.220
678,-0.290,-0.230
679,-0.285,-0.205
680,-0.280,-0.210
681,-0.265,-0.210
682,-0.275,-0.200
683,-0.295,-0.210
684,-0.305,-0.200
685,-0.295,-0.170
686,-0.290,-0.160
687,-0.275,-0.160
688,-0.285,-0.170
689,-0.295,-0.175
690,-0.305,-0.190
691,-0.320,-0.155
692,-0.305,-0.150
693,-0.295,-0.155
694,-0.300,-0.160
695,-0.305,-0.185
696,-0.305,-0.180
697,-0.295,-0.170
698,-0.285,-0.150
699,-0.290,-0.155
700,-0.310,-0.180
701,-0.340,-0.180
702,-0.370,-0.185
703,-0.365,-0.160
704,-0.290,-0.160
705,-0.150,-0.160
706,0.065,-0.165
707,0.295,-0.180
708,0.540,-0.190
709,0.840,-0.200
710,1.085,-0.215
711,1.165,-0.265
712,1.040,-0.335
713,0.765,-0.365
714,0.480,-0.350
715,0.220,-0.310
716,0.015,-0.240
717,-0.080,-0.200
718,-0.115,-0.190
719,-0.185,-0.210
720,-0.235,-0.220
721,-0.245,-0.200
722,-0.235,-0.190
723,-0.240,-0.180
724,-0.260,-0.180
725,-0.300,-0.190
726,-0.345,-0.185
727,-0.350,-0.160
728,-0.365,-0.150
729,-0.350,-0.155
730,-0.365,-0.150
731,-0.375,-0.155
732,-0.390,-0.145
733,-0.375,-0.130
734,-0.370,-0.130
735,-0.370,-0.135
736,-0.375,-0.140
737,-0.385,-0.150
738,-0.390,-0.150
739,-0.395,-0.135
740,-0.400,-0.130
741,-0.390,-0.145
742,-0.390,-0.160
743,-0.400,-0.155
744,-0.400,-0.155
745,-0.390,-0.165
746,-0.385,-0.150
747,-0.385,-0.160
748,-0.385,-0.155
749,-0.395,-0.160
750,-0.410,-0.155
751,-0.400,-0.160
752,-0.390,-0.150
753,-0.385,-0.160
754,-0.395,-0.160
755,-0.395,-0.170
756,-0.405,-0.185
757,-0.405,-0.180
758,-0.390,-0.180
759,-0.380,-0.180
760,-0.380,-0.190
761,-0.395,-0.190
762,-0.400,-0.185
763,-0.410,-0.185
764,-0.390,-0.175
765,-0.385,-0.170
766,-0.375,-0.170
767,-0.385,-0.180
768,-0.395,-0.165
769,-0.395,-0.155
770,-0.390,-0.155
771,-0.380,-0.150
772,-0.385,-0.135
773,-0.390,-0.130
774,-0.395,-0.135
775,-0.385,-0.125
776,-0.375,-0.125
777,-0.365,-0.115
778,-0.365,-0.120
779,-0.370,-0.130
780,-0.370,-0.130
781,-0.365,-0.130
782,-0.350,-0.120
783,-0.340,-0.130
784,-0.345,-0.125
785,-0.345,-0.145
786,-0.360,-0.155
787,-0.350,-0.155
788,-0.320,-0.145
789,-0.305,-0.130
790,-0.290,-0.140
791,-0.300,-0.150
792,-0.290,-0.160
793,-0.295,-0.155
794,-0.280,-0.145
795,-0.255,-0.130
796,-0.235,-0.150
797,-0.245,-0.175
798,-0.245,-0.185
799,-0.235,-0.185
800,-0.225,-0.170
801,-0.205,-0.160
802,-0.180,-0.165
803,-0.180,-0.180
804,-0.190,-0.185
805,-0.170,-0.185
806,-0.155,-0.155
807,-0.145,-0.160
808,-0.140,-0.170
809,-0.150,-0.180
810,-0.140,-0.190
811,-0.145,-0.165
812,-0.135,-0.155
813,-0.110,-0.140
814,-0.130,-0.130
815,-0.125,-0.150
816,-0.130,-0.150
817,-0.135,-0.145
818,-0.120,-0.140
819,-0.120,-0.140
820,-0.120,-0.125
821,-0.145,-0.145
822,-0.165,-0.150
823,-0.170,-0.140
824,-0.175,-0.120
825,-0.175,-0.120
826,-0.190,-0.130
827,-0.215,-0.150
828,-0.225,-0.155
829,-0.235,-0.150
830,-0.250,-0.135
831,-0.245,-0.135
832,-0.265,-0.150
833,-0.270,-0.155
834,-0.295,-0.150
835,-0.315,-0.130
836,-0.305,-0.120
837,-0.295,-0.120
838,-0.300,-0.125
839,-0.315,-0.145
840,-0.325,-0.155
841,-0.325,-0.150
842,-0.325,-0.135
843,-0.325,-0.145
844,-0.330,-0.160
845,-0.340,-0.165
846,-0.355,-0.170
847,-0.360,-0.160
848,-0.350,-0.145
849,-0.335,-0.135
850,-0.355,-0.155
851,-0.360,-0.165
852,-0.365,-0.160
853,-0.365,-0.145
854,-0.345,-0.125
855,-0.350,-0.120
856,-0.360,-0.110
857,-0.360,-0.125
858,-0.355,-0.115
859,-0.350,-0.115
860,-0.345,-0.095
861,-0.335,-0.095
862,-0.345,-0.100
863,-0.365,-0.115
864,-0.375,-0.115
865,-0.365,-0.090
866,-0.350,-0.085
867,-0.355,-0.090
868,-0.345,-0.105
869,-0.350,-0.125
870,-0.350,-0.125
871,-0.355,-0.105
872,-0.345,-0.110
873,-0.330,-0.120
874,-0.325,-0.125
875,-0.330,-0.140
876,-0.350,-0.145
877,-0.350,-0.125
878,-0.350,-0.110
879,-0.340,-0.120
880,-0.340,-0.120
881,-0.350,-0.125
882,-0.355,-0.145
883,-0.345,-0.135
884,-0.335,-0.130
885,-0.330,-0.145
886,-0.340,-0.140
887,-0.340,-0.175
888,-0.350,-0.180
889,-0.340,-0.150
890,-0.325,-0.135
891,-0.325,-0.135
892,-0.320,-0.145
893,-0.340,-0.165
894,-0.355,-0.165
895,-0.360,-0.160
896,-0.355,-0.135
897,-0.345,-0.120
898,-0.330,-0.135
899,-0.335,-0.140
900,-0.345,-0.140
901,-0.345,-0.125
902,-0.350,-0.120
903,-0.330,-0.100
904,-0.330,-0.095
905,-0.345,-0.100
906,-0.345,-0.115
907,-0.350,-0.105
908,-0.340,-0.085
909,-0.345,-0.070
910,-0.345,-0.080
911,-0.345,-0.115
912,-0.350,-0.125
913,-0.345,-0.115
914,-0.345,-0.095
915,-0.335,-0.105
916,-0.355,-0.110
917,-0.360,-0.110
918,-0.365,-0.140
919,-0.365,-0.140
920,-0.360,-0.120
921,-0.350,-0.105
922,-0.355,-0.110
923,-0.355,-0.115
924,-0.355,-0.125
925,-0.350,-0.130
926,-0.345,-0.105
927,-0.340,-0.115
928,-0.355,-0.115
929,-0.370,-0.135
930,-0.380,-0.145
931,-0.380,-0.140
932,-0.375,-0.130
933,-0.365,-0.130
934,-0.360,-0.140
935,-0.355,-0.155
936,-0.355,-0.165
937,-0.365,-0.160
938,-0.365,-0.135
939,-0.345,-0.115
940,-0.340,-0.120
941,-0.360,-0.145
942,-0.385,-0.150
943,-0.380,-0.150
944,-0.360,-0.110
945,-0.345,-0.105
946,-0.345,-0.105
947,-0.365,-0.105
948,-0.375,-0.110
949,-0.385,-0.110
950,-0.355,-0.090
951,-0.350,-0.070
952,-0.350,-0.080
953,-0.360,-0.100
954,-0.370,-0.105
955,-0.370,-0.100
956,-0.355,-0.075
957,-0.350,-0.075
958,-0.350,-0.095
959,-0.365,-0.105
960,-0.365,-0.115
961,-0.360,-0.110
962,-0.335,-0.105
963,-0.325,-0.090
964,-0.330,-0.105
965,-0.325,-0.105
966,-0.330,-0.110
967,-0.315,-0.115
968,-0.305,-0.095
969,-0.310,-0.085
970,-0.320,-0.100
971,-0.325,-0.125
972,-0.320,-0.130
973,-0.310,-0.130
974,-0.280,-0.105
975,-0.265,-0.120
976,-0.245,-0.125
977,-0.240,-0.145
978,-0.230,-0.155
979,-0.230,-0.145
980,-0.225,-0.115
981,-0.220,-0.115
982,-0.235,-0.125
983,-0.250,-0.140
984,-0.265,-0.165
985,-0.275,-0.150
986,-0.255,-0.130
987,-0.260,-0.110
988,-0.255,-0.110
989,-0.270,-0.120
990,-0.300,-0.110
991,-0.315,-0.100
992,-0.315,-0.095
993,-0.320,-0.085
994,-0.325,-0.080
995,-0.335,-0.090
996,-0.355,-0.100
997,-0.365,-0.095
998,-0.365,-0.085
999,-0.380,-0.090
1000,-0.390,-0.100
1001,-0.400,-0.105
1002,-0.395,-0.100
1003,-0.380,-0.100
1004,-0.375,-0.095
1005,-0.385,-0.100
1006,-0.415,-0.110
1007,-0.420,-0.115
1008,-0.420,-0.115
1009,-0.425,-0.105
1010,-0.415,-0.095
1011,-0.405,-0.095
1012,-0.410,-0.100
1013,-0.425,-0.115
1014,-0.430,-0.115
1015,-0.410,-0.110
1016,-0.395,-0.105
1017,-0.400,-0.115
1018,-0.420,-0.140
1019,-0.425,-0.140
1020,-0.435,-0.135
1021,-0.450,-0.125
1022,-0.455,-0.110
1023,-0.465,-0.105
1024,-0.450,-0.125
1025,-0.410,-0.135
1026,-0.265,-0.135
1027,-0.025,-0.105
1028,0.205,-0.100
1029,0.460,-0.110
1030,0.715,-0.135
1031,0.975,-0.170
1032,1.095,-0.190
1033,1.010,-0.205
1034,0.755,-0.210
1035,0.460,-0.215
1036,0.190,-0.210
1037,-0.050,-0.180
1038,-0.185,-0.135
1039,-0.225,-0.085
1040,-0.250,-0.060
1041,-0.280,-0.060
1042,-0.325,-0.075
1043,-0.350,-0.090
1044,-0.355,-0.090
1045,-0.350,-0.075
1046,-0.365,-0.075
1047,-0.385,-0.075
1048,-0.425,-0.080
1049,-0.445,-0.090
1050,-0.445,-0.090
1051,-0.455,-0.095
1052,-0.450,-0.090
1053,-0.455,-0.090
1054,-0.480,-0.090
1055,-0.495,-0.100
1056,-0.485,-0.100
1057,-0.475,-0.085
1058,-0.470,-0.085
1059,-0.470,-0.080
1060,-0.480,-0.095
1061,-0.505,-0.115
1062,-0.500,-0.130
1063,-0.490,-0.130
1064,-0.480,-0.130
1065,-0.495,-0.130
1066,-0.500,-0.130
1067,-0.490,-0.140
1068,-0.490,-0.135
1069,-0.475,-0.135
1070,-0.465,-0.130
1071,-0.475,-0.135
1072,-0.475,-0.140
1073,-0.485,-0.135
1074,-0.490,-0.135
1075,-0.480,-0.120
1076,-0.475,-0.115
1077,-0.465,-0.105
1078,-0.475,-0.095
1079,-0.490,-0.090
1080,-0.475,-0.085
1081,-0.465,-0.075
1082,-0.475,-0.075
1083,-0.485,-0.070
1084,-0.485,-0.075
1085,-0.485,-0.070
1086,-0.475,-0.075
1087,-0.470,-0.065
1088,-0.465,-0.070
1089,-0.475,-0.065
1090,-0.475,-0.075
1091,-0.480,-0.085
1092,-0.470,-0.085
1093,-0.475,-0.085
1094,-0.460,-0.105
1095,-0.460,-0.105
1096,-0.465,-0.105
1097,-0.485,-0.110
1098,-0.475,-0.100
1099,-0.470,-0.100
1100,-0.455,-0.100
1101,-0.465,-0.095
1102,-0.455,-0.100
1103,-0.460,-0.100
1104,-0.460,-0.100
1105,-0.455,-0.095
1106,-0.435,-0.105
1107,-0.435,-0.115
1108,-0.430,-0.135
1109,-0.435,-0.140
1110,-0.435,-0.140
1111,-0.415,-0.130
1112,-0.410,-0.130
1113,-0.400,-0.130
1114,-0.395,-0.130
1115,-0.410,-0.130
1116,-0.400,-0.140
1117,-0.380,-0.125
1118,-0.355,-0.130
1119,-0.355,-0.120
1120,-0.375,-0.120
1121,-0.355,-0.125
1122,-0.345,-0.115
1123,-0.320,-0.105
1124,-0.305,-0.100
1125,-0.290,-0.090
1126,-0.290,-0.090
1127,-0.280,-0.105
1128,-0.275,-0.095
1129,-0.255,-0.095
1130,-0.235,-0.090
1131,-0.235,-0.090
1132,-0.235,-0.095
1133,-0.245,-0.090
1134,-0.240,-0.095
1135,-0.210,-0.100
1136,-0.195,-0.115
1137,-0.180,-0.115
1138,-0.190,-0.120
1139,-0.195,-0.140
1140,-0.190,-0.135
1141,-0.185,-0.120
1142,-0.175,-0.120
1143,-0.170,-0.120
1144,-0.180,-0.120
1145,-0.185,-0.135
1146,-0.175,-0.135
1147,-0.190,-0.135
1148,-0.190,-0.130
1149,-0.195,-0.125
1150,-0.210,-0.140
1151,-0.235,-0.165
1152,-0.260,-0.155
1153,-0.255,-0.160
1154,-0.255,-0.145
1155,-0.270,-0.155
1156,-0.295,-0.160
1157,-0.320,-0.165
1158,-0.335,-0.160
1159,-0.345,-0.140
1160,-0.325,-0.130
1161,-0.330,-0.125
1162,-0.355,-0.140
1163,-0.370,-0.145
1164,-0.370,-0.135
1165,-0.375,-0.125
1166,-0.365,-0.100
1167,-0.375,-0.085
1168,-0.380,-0.100
1169,-0.390,-0.100
1170,-0.410,-0.100
1171,-0.405,-0.085
1172,-0.405,-0.085
1173,-0.395,-0.090
1174,-0.410,-0.090
1175,-0.420,-0.090
1176,-0.420,-0.090
1177,-0.410,-0.085
1178,-0.390,-0.090
1179,-0.395,-0.095
1180,-0.405,-0.090
1181,-0.415,-0.105
1182,-0.420,-0.105
1183,-0.415,-0.110
1184,-0.410,-0.115
1185,-0.415,-0.120
1186,-0.420,-0.110
1187,-0.425,-0.115
1188,-0.425,-0.110
1189,-0.425,-0.105
1190,-0.400,-0.105
1191,-0.405,-0.115
1192,-0.415,-0.110
1193,-0.425,-0.110
1194,-0.420,-0.110
1195,-0.420,-0.120
1196,-0.420,-0.130
1197,-0.430,-0.135
1198,-0.430,-0.145
1199,-0.430,-0.155
1200,-0.430,-0.140
1201,-0.405,-0.140
1202,-0.405,-0.145
1203,-0.405,-0.145
1204,-0.415,-0.150
1205,-0.430,-0.145
1206,-0.420,-0.130
1207,-0.415,-0.140
1208,-0.410,-0.145
1209,-0.400,-0.145
1210,-0.415,-0.135
1211,-0.415,-0.125
1212,-0.415,-0.115
1213,-0.410,-0.105
1214,-0.390,-0.105
1215,-0.390,-0.110
1216,-0.400,-0.100
1217,-0.410,-0.105
1218,-0.415,-0.095
1219,-0.395,-0.090
1220,-0.385,-0.100
1221,-0.390,-0.100
1222,-0.405,-0.095
1223,-0.395,-0.105
1224,-0.400,-0.105
1225,-0.385,-0.105
1226,-0.380,-0.115
1227,-0.390,-0.125
1228,-0.400,-0.125
1229,-0.415,-0.130
1230,-0.410,-0.130
1231,-0.400,-0.125
1232,-0.400,-0.130
1233,-0.410,-0.125
1234,-0.420,-0.130
1235,-0.405,-0.130
1236,-0.410,-0.125
1237,-0.400,-0.125
1238,-0.400,-0.125
1239,-0.395,-0.145
1240,-0.400,-0.145
1241,-0.415,-0.155
1242,-0.420,-0.150
1243,-0.415,-0.140
1244,-0.410,-0.145
1245,-0.420,-0.155
1246,-0.420,-0.155
1247,-0.420,-0.155
1248,-0.430,-0.145
1249,-0.415,-0.155
1250,-0.395,-0.155
1251,-0.400,-0.155
1252,-0.405,-0.135
1253,-0.420,-0.140
1254,-0.435,-0.125
1255,-0.425,-0.130
1256,-0.420,-0.110
1257,-0.415,-0.110
1258,-0.405,-0.115
1259,-0.410,-0.120
1260,-0.430,-0.100
1261,-0.430,-0.095
1262,-0.395,-0.100
1263,-0.410,-0.095
1264,-0.420,-0.105
1265,-0.425,-0.110
1266,-0.415,-0.125
1267,-0.405,-0.110
1268,-0.410,-0.105
1269,-0.405,-0.115
1270,-0.415,-0.115
1271,-0.415,-0.130
1272,-0.415,-0.135
1273,-0.405,-0.125
1274,-0.385,-0.125
1275,-0.410,-0.120
1276,-0.420,-0.130
1277,-0.430,-0.130
1278,-0.420,-0.135
1279,-0.410,-0.135
1280,-0.400,-0.115
1281,-0.405,-0.125
1282,-0.420,-0.130
1283,-0.420,-0.155
1284,-0.430,-0.150
1285,-0.415,-0.160
1286,-0.400,-0.155
1287,-0.410,-0.150
1288,-0.405,-0.160
1289,-0.405,-0.160
1290,-0.415,-0.160
1291,-0.400,-0.160
1292,-0.410,-0.150
1293,-0.410,-0.150
1294,-0.420,-0.160
1295,-0.410,-0.155
1296,-0.405,-0.150
1297,-0.390,-0.145
1298,-0.375,-0.135
1299,-0.375,-0.130
1300,-0.375,-0.125
1301,-0.375,-0.110
1302,-0.375,-0.110
1303,-0.365,-0.110
1304,-0.345,-0.095
1305,-0.345,-0.100
1306,-0.350,-0.100
1307,-0.375,-0.105
1308,-0.370,-0.115
1309,-0.335,-0.105
1310,-0.290,-0.095
1311,-0.270,-0.095
1312,-0.250,-0.105
1313,-0.235,-0.115
1314,-0.225,-0.125
1315,-0.225,-0.120
1316,-0.225,-0.125
1317,-0.245,-0.135
1318,-0.245,-0.130
1319,-0.260,-0.145
1320,-0.270,-0.145
1321,-0.275,-0.135
1322,-0.270,-0.130
1323,-0.275,-0.130
1324,-0.290,-0.140
1325,-0.310,-0.160
1326,-0.315,-0.170
1327,-0.320,-0.155
1328,-0.320,-0.160
1329,-0.330,-0.155
1330,-0.355,-0.175
1331,-0.380,-0.185
1332,-0.390,-0.175
1333,-0.395,-0.180
1334,-0.385,-0.175
1335,-0.400,-0.170
1336,-0.400,-0.180
1337,-0.420,-0.180
1338,-0.435,-0.180
1339,-0.425,-0.175
1340,-0.410,-0.170
1341,-0.420,-0.150
1342,-0.420,-0.155
1343,-0.430,-0.155
1344,-0.435,-0.150
1345,-0.430,-0.140
1346,-0.415,-0.130
1347,-0.425,-0.135
1348,-0.435,-0.130
1349,-0.440,-0.140
1350,-0.425,-0.130
1351,-0.430,-0.125
1352,-0.420,-0.120
1353,-0.410,-0.120
1354,-0.420,-0.120
1355,-0.430,-0.140
1356,-0.455,-0.135
1357,-0.460,-0.140
1358,-0.470,-0.140
1359,-0.490,-0.140
1360,-0.475,-0.145
1361,-0.415,-0.145
1362,-0.270,-0.145
1363,-0.045,-0.140
1364,0.180,-0.140
1365,0.430,-0.135
1366,0.720,-0.155
1367,0.980,-0.180
1368,1.100,-0.210
1369,1.040,-0.250
1370,0.790,-0.290
1371,0.480,-0.300
1372,0.175,-0.290
1373,-0.075,-0.260
1374,-0.230,-0.230
1375,-0.280,-0.180
1376,-0.305,-0.170
1377,-0.355,-0.180
1378,-0.380,-0.190
1379,-0.395,-0.180
1380,-0.395,-0.180
1381,-0.395,-0.170
1382,-0.400,-0.180
1383,-0.430,-0.190
1384,-0.455,-0.180
1385,-0.470,-0.175
1386,-0.485,-0.175
1387,-0.485,-0.165
1388,-0.485,-0.165
1389,-0.505,-0.160
1390,-0.510,-0.150
1391,-0.505,-0.145
1392,-0.515,-0.125
1393,-0.500,-0.130
1394,-0.490,-0.130
1395,-0.490,-0.135
1396,-0.495,-0.135
1397,-0.510,-0.130
1398,-0.525,-0.130
1399,-0.510,-0.115
1400,-0.490,-0.140
1401,-0.490,-0.145
1402,-0.485,-0.150
1403,-0.490,-0.140
1404,-0.505,-0.145
1405,-0.500,-0.150
1406,-0.485,-0.140
1407,-0.490,-0.145
1408,-0.490,-0.150
1409,-0.495,-0.165
1410,-0.485,-0.160
1411,-0.485,-0.145
1412,-0.485,-0.160
1413,-0.485,-0.160
1414,-0.490,-0.175
1415,-0.490,-0.160
1416,-0.485,-0.150
1417,-0.470,-0.155
1418,-0.470,-0.175
1419,-0.480,-0.180
1420,-0.475,-0.190
1421,-0.490,-0.190
1422,-0.490,-0.170
1423,-0.470,-0.160
1424,-0.455,-0.180
1425,-0.450,-0.185
1426,-0.455,-0.200
1427,-0.460,-0.185
1428,-0.470,-0.170
1429,-0.460,-0.170
1430,-0.455,-0.165
1431,-0.445,-0.175
1432,-0.465,-0.185
1433,-0.470,-0.170
1434,-0.460,-0.150
1435,-0.450,-0.145
1436,-0.430,-0.140
1437,-0.435,-0.155
1438,-0.425,-0.150
1439,-0.430,-0.145
1440,-0.435,-0.135
1441,-0.430,-0.125
1442,-0.420,-0.130
1443,-0.420,-0.150
1444,-0.420,-0.150
1445,-0.425,-0.150
1446,-0.410,-0.135
1447,-0.390,-0.145
1448,-0.375,-0.150
1449,-0.380,-0.160
1450,-0.370,-0.160
1451,-0.370,-0.170
1452,-0.380,-0.160
1453,-0.370,-0.160
1454,-0.355,-0.165
1455,-0.345,-0.165
1456,-0.355,-0.185
1457,-0.345,-0.175
1458,-0.340,-0.180
1459,-0.315,-0.175
1460,-0.300,-0.180
1461,-0.295,-0.195
1462,-0.280,-0.200
1463,-0.280,-0.210
1464,-0.270,-0.210
1465,-0.250,-0.195
1466,-0.245,-0.210
1467,-0.245,-0.225
1468,-0.235,-0.215
1469,-0.230,-0.220
1470,-0.235,-0.210
1471,-0.225,-0.190
1472,-0.205,-0.200
1473,-0.195,-0.200
1474,-0.195,-0.215
1475,-0.195,-0.215
1476,-0.200,-0.205
1477,-0.180,-0.185
1478,-0.170,-0.185
1479,-0.170,-0.190
1480,-0.170,-0.205
1481,-0.185,-0.200
1482,-0.185,-0.195
1483,-0.175,-0.155
1484,-0.165,-0.150
1485,-0.165,-0.155
1486,-0.180,-0.175
1487,-0.180,-0.195
1488,-0.185,-0.165
1489,-0.195,-0.155
1490,-0.205,-0.150
1491,-0.230,-0.145
1492,-0.240,-0.170
1493,-0.245,-0.190
1494,-0.265,-0.175
1495,-0.270,-0.155
1496,-0.270,-0.165
1497,-0.285,-0.170
1498,-0.305,-0.185
1499,-0.315,-0.185
1500,-0.315,-0.175
1501,-0.315,-0.155
1502,-0.310,-0.150
1503,-0.315,-0.160
1504,-0.320,-0.180
1505,-0.335,-0.185
1506,-0.340,-0.180
1507,-0.340,-0.160
1508,-0.335,-0.165
1509,-0.340,-0.180
1510,-0.345,-0.195
1511,-0.360,-0.220
1512,-0.365,-0.200
1513,-0.355,-0.185
1514,-0.350,-0.170
1515,-0.345,-0.180
1516,-0.360,-0.200
1517,-0.375,-0.210
1518,-0.370,-0.185
1519,-0.370,-0.180
1520,-0.365,-0.165
1521,-0.360,-0.170
1522,-0.365,-0.200
1523,-0.375,-0.185
1524,-0.365,-0.170
1525,-0.350,-0.160
1526,-0.330,-0.150
1527,-0.345,-0.145
1528,-0.350,-0.160
1529,-0.350,-0.165
1530,-0.350,-0.160
1531,-0.345,-0.135
1532,-0.330,-0.110
1533,-0.335,-0.125
1534,-0.340,-0.135
1535,-0.355,-0.150
1536,-0.365,-0.145
1537,-0.340,-0.130
1538,-0.330,-0.125
1539,-0.335,-0.135
1540,-0.340,-0.155
1541,-0.345,-0.180
1542,-0.345,-0.160
1543,-0.340,-0.155
1544,-0.320,-0.155
1545,-0.330,-0.155
1546,-0.340,-0.165
1547,-0.330,-0.170
1548,-0.335,-0.180
1549,-0.335,-0.165
1550,-0.330,-0.150
1551,-0.335,-0.150
1552,-0.335,-0.170
1553,-0.335,-0.180
1554,-0.335,-0.190
1555,-0.325,-0.190
1556,-0.310,-0.175
1557,-0.315,-0.185
1558,-0.325,-0.205
1559,-0.320,-0.200
1560,-0.335,-0.210
1561,-0.320,-0.195
1562,-0.310,-0.185
1563,-0.315,-0.180
1564,-0.320,-0.195
1565,-0.320,-0.210
1566,-0.320,-0.205
1567,-0.320,-0.200
1568,-0.310,-0.180
1569,-0.320,-0.165
1570,-0.320,-0.170
1571,-0.330,-0.160
1572,-0.340,-0.175
1573,-0.320,-0.145
1574,-0.310,-0.150
1575,-0.310,-0.150
1576,-0.325,-0.145
1577,-0.335,-0.165
1578,-0.335,-0.155
1579,-0.315,-0.145
1580,-0.315,-0.135
1581,-0.330,-0.145
1582,-0.330,-0.140
1583,-0.330,-0.150
1584,-0.330,-0.160
1585,-0.330,-0.160
1586,-0.310,-0.160
1587,-0.320,-0.165
1588,-0.330,-0.160
1589,-0.330,-0.170
1590,-0.330,-0.165
1591,-0.325,-0.160
1592,-0.315,-0.170
1593,-0.320,-0.160
1594,-0.325,-0.165
1595,-0.330,-0.170
1596,-0.335,-0.160
1597,-0.325,-0.155
1598,-0.305,-0.165
1599,-0.315,-0.165
1600,-0.320,-0.180
1601,-0.330,-0.185
1602,-0.330,-0.185
1603,-0.315,-0.185
1604,-0.315,-0.190
1605,-0.310,-0.195
1606,-0.325,-0.205
1607,-0.325,-0.195
1608,-0.325,-0.195
1609,-0.315,-0.175
1610,-0.310,-0.180
1611,-0.315,-0.190
1612,-0.320,-0.195
1613,-0.325,-0.185
1614,-0.320,-0.170
1615,-0.315,-0.165
1616,-0.315,-0.160
1617,-0.310,-0.155
1618,-0.325,-0.170
1619,-0.330,-0.145
1620,-0.325,-0.130
1621,-0.325,-0.125
1622,-0.310,-0.135
1623,-0.300,-0.140
1624,-0.320,-0.155
1625,-0.320,-0.150
1626,-0.330,-0.130
1627,-0.325,-0.120
1628,-0.310,-0.130
1629,-0.320,-0.140
1630,-0.315,-0.160
1631,-0.315,-0.160
1632,-0.320,-0.155
1633,-0.325,-0.140
1634,-0.310,-0.140
1635,-0.305,-0.150
1636,-0.310,-0.175
1637,-0.320,-0.185
1638,-0.330,-0.165
1639,-0.315,-0.155
1640,-0.295,-0.145
1641,-0.290,-0.150
1642,-0.290,-0.175
1643,-0.310,-0.170
1644,-0.300,-0.160
1645,-0.285,-0.145
1646,-0.280,-0.145
1647,-0.280,-0.165
1648,-0.275,-0.185
1649,-0.285,-0.185
1650,-0.275,-0.185
1651,-0.250,-0.170
1652,-0.220,-0.170
1653,-0.200,-0.170
1654,-0.200,-0.190
1655,-0.180,-0.195
1656,-0.155,-0.180
1657,-0.130,-0.150
1658,-0.125,-0.170
1659,-0.130,-0.155
1660,-0.165,-0.175
1661,-0.180,-0.190
1662,-0.190,-0.165
1663,-0.195,-0.155
1664,-0.190,-0.140
1665,-0.200,-0.140
1666,-0.215,-0.155
1667,-0.220,-0.155
1668,-0.225,-0.145
1669,-0.230,-0.125
1670,-0.215,-0.130
1671,-0.235,-0.125
1672,-0.255,-0.135
1673,-0.260,-0.145
1674,-0.285,-0.140
1675,-0.295,-0.125
1676,-0.310,-0.120
1677,-0.310,-0.125
1678,-0.325,-0.140
1679,-0.335,-0.145
1680,-0.355,-0.160
1681,-0.350,-0.155
1682,-0.350,-0.140
1683,-0.360,-0.130
1684,-0.360,-0.150
1685,-0.370,-0.170
1686,-0.375,-0.175
1687,-0.360,-0.150
1688,-0.350,-0.125
1689,-0.350,-0.135
1690,-0.370,-0.150
1691,-0.385,-0.170
1692,-0.385,-0.175
1693,-0.375,-0.175
1694,-0.360,-0.170
1695,-0.370,-0.175
1696,-0.370,-0.185
1697,-0.370,-0.195
1698,-0.375,-0.200
1699,-0.390,-0.185
1700,-0.385,-0.175
1701,-0.405,-0.160
1702,-0.430,-0.160
1703,-0.430,-0.175
1704,-0.415,-0.185
1705,-0.300,-0.170
1706,-0.135,-0.160
1707,0.075,-0.150
1708,0.275,-0.155
1709,0.515,-0.165
1710,0.785,-0.185
1711,0.975,-0.190
1712,1.000,-0.220
1713,0.820,-0.260
1714,0.530,-0.285
1715,0.265,-0.280
1716,0.000,-0.250
1717,-0.200,-0.205
1718,-0.270,-0.140
1719,-0.300,-0.110
1720,-0.335,-0.115
1721,-0.370,-0.125
1722,-0.370,-0.120
1723,-0.360,-0.140
1724,-0.365,-0.140
1725,-0.390,-0.135
1726,-0.415,-0.145
1727,-0.455,-0.150
1728,-0.480,-0.155
1729,-0.470,-0.150
1730,-0.465,-0.135
1731,-0.480,-0.130
1732,-0.475,-0.140
1733,-0.500,-0.145
1734,-0.495,-0.145
1735,-0.485,-0.155
1736,-0.490,-0.155
1737,-0.490,-0.145
1738,-0.500,-0.145
1739,-0.515,-0.160
1740,-0.515,-0.165
1741,-0.500,-0.180
1742,-0.485,-0.180
1743,-0.485,-0.160
1744,-0.490,-0.165
1745,-0.510,-0.170
1746,-0.520,-0.165
1747,-0.520,-0.165
1748,-0.510,-0.160
1749,-0.495,-0.175
1750,-0.490,-0.180
1751,-0.500,-0.175
1752,-0.500,-0.160
1753,-0.515,-0.155
1754,-0.515,-0.155
1755,-0.520,-0.150
1756,-0.520,-0.135
1757,-0.520,-0.140
1758,-0.525,-0.120
1759,-0.505,-0.120
1760,-0.500,-0.125
1761,-0.490,-0.135
1762,-0.515,-0.130
1763,-0.515,-0.140
1764,-0.535,-0.120
1765,-0.510,-0.105
1766,-0.515,-0.110
1767,-0.515,-0.120
1768,-0.540,-0.120
1769,-0.545,-0.125
1770,-0.520,-0.115
1771,-0.510,-0.115
1772,-0.485,-0.115
1773,-0.485,-0.125
1774,-0.495,-0.145
1775,-0.510,-0.155
1776,-0.525,-0.135
1777,-0.510,-0.125
1778,-0.500,-0.110
1779,-0.495,-0.130
1780,-0.510,-0.150
1781,-0.505,-0.145
1782,-0.500,-0.150
1783,-0.475,-0.130
1784,-0.490,-0.120
1785,-0.480,-0.145
1786,-0.485,-0.160
1787,-0.495,-0.185
1788,-0.495,-0.180
1789,-0.495,-0.160
1790,-0.495,-0.160
1791,-0.490,-0.155
1792,-0.495,-0.170
1793,-0.485,-0.190
1794,-0.470,-0.185
1795,-0.450,-0.160
1796,-0.440,-0.150
1797,-0.440,-0.155
1798,-0.450,-0.175
1799,-0.465,-0.185
1800,-0.455,-0.150
1801,-0.445,-0.150
1802,-0.415,-0.135
1803,-0.420,-0.125
1804,-0.410,-0.145
1805,-0.415,-0.145
1806,-0.410,-0.140
1807,-0.395,-0.110
1808,-0.370,-0.095
1809,-0.365,-0.100
1810,-0.355,-0.115
1811,-0.360,-0.135
1812,-0.370,-0.140
1813,-0.355,-0.120
1814,-0.320,-0.105
1815,-0.305,-0.115
1816,-0.320,-0.135
1817,-0.325,-0.155
1818,-0.330,-0.160
1819,-0.315,-0.145
1820,-0.295,-0.140
1821,-0.300,-0.140
1822,-0.280,-0.160
1823,-0.285,-0.175
1824,-0.280,-0.175
1825,-0.275,-0.145
1826,-0.265,-0.145
1827,-0.265,-0.150
1828,-0.270,-0.155
1829,-0.280,-0.170
1830,-0.290,-0.180
1831,-0.295,-0.170
1832,-0.295,-0.160
1833,-0.305,-0.160
1834,-0.320,-0.190
1835,-0.320,-0.195
1836,-0.335,-0.185
1837,-0.330,-0.170
1838,-0.335,-0.145
1839,-0.360,-0.160
1840,-0.355,-0.155
1841,-0.365,-0.180
1842,-0.380,-0.175
1843,-0.405,-0.140
1844,-0.405,-0.125
1845,-0.415,-0.125
1846,-0.440,-0.140
1847,-0.435,-0.150
1848,-0.445,-0.125
1849,-0.440,-0.110
1850,-0.420,-0.085
1851,-0.425,-0.090
1852,-0.445,-0.120
1853,-0.450,-0.120
1854,-0.460,-0.115
1855,-0.445,-0.095
1856,-0.450,-0.080
1857,-0.455,-0.085
1858,-0.465,-0.105
1859,-0.470,-0.105
1860,-0.465,-0.110
1861,-0.440,-0.105
1862,-0.440,-0.100
1863,-0.460,-0.110
1864,-0.465,-0.130
1865,-0.465,-0.140
1866,-0.455,-0.130
1867,-0.455,-0.110
1868,-0.480,-0.110
1869,-0.490,-0.105
1870,-0.480,-0.120
1871,-0.480,-0.135
1872,-0.505,-0.130
1873,-0.485,-0.110
1874,-0.460,-0.095
1875,-0.455,-0.115
1876,-0.465,-0.140
1877,-0.480,-0.160
1878,-0.490,-0.155
1879,-0.465,-0.135
1880,-0.435,-0.140
1881,-0.430,-0.130
1882,-0.455,-0.155
1883,-0.485,-0.170
1884,-0.490,-0.140
1885,-0.460,-0.125
1886,-0.445,-0.125
1887,-0.450,-0.125
1888,-0.470,-0.140
1889,-0.485,-0.130
1890,-0.470,-0.125
1891,-0.450,-0.090
1892,-0.445,-0.090
1893,-0.440,-0.085
1894,-0.425,-0.100
1895,-0.460,-0.100
1896,-0.460,-0.100
1897,-0.455,-0.080
1898,-0.455,-0.070
1899,-0.455,-0.090
1900,-0.450,-0.100
1901,-0.460,-0.105
1902,-0.455,-0.095
1903,-0.440,-0.075
1904,-0.430,-0.090
1905,-0.430,-0.110
1906,-0.445,-0.125
1907,-0.450,-0.125
1908,-0.450,-0.120
1909,-0.445,-0.095
1910,-0.445,-0.090
1911,-0.460,-0.105
1912,-0.470,-0.125
1913,-0.460,-0.120
1914,-0.465,-0.110
1915,-0.450,-0.090
1916,-0.445,-0.090
1917,-0.430,-0.105
1918,-0.445,-0.135
1919,-0.460,-0.140
1920,-0.460,-0.130
1921,-0.435,-0.125
1922,-0.440,-0.120
1923,-0.430,-0.135
1924,-0.425,-0.165
1925,-0.445,-0.135
1926,-0.455,-0.135
1927,-0.465,-0.110
1928,-0.465,-0.120
1929,-0.470,-0.135
1930,-0.460,-0.135
1931,-0.455,-0.125
1932,-0.445,-0.110
1933,-0.445,-0.100
1934,-0.455,-0.090
1935,-0.450,-0.095
1936,-0.445,-0.100
1937,-0.450,-0.100
1938,-0.470,-0.075
1939,-0.480,-0.065
1940,-0.455,-0.085
1941,-0.435,-0.090
1942,-0.440,-0.105
1943,-0.450,-0.095
1944,-0.470,-0.080
1945,-0.465,-0.070
1946,-0.445,-0.090
1947,-0.445,-0.110
1948,-0.465,-0.110
1949,-0.470,-0.115
1950,-0.465,-0.100
1951,-0.465,-0.095
1952,-0.465,-0.090
1953,-0.475,-0.115
1954,-0.480,-0.120
1955,-0.480,-0.120
1956,-0.475,-0.100
1957,-0.475,-0.100
1958,-0.455,-0.100
1959,-0.460,-0.115
1960,-0.470,-0.120
1961,-0.480,-0.115
1962,-0.480,-0.115
1963,-0.460,-0.110
1964,-0.460,-0.120
1965,-0.460,-0.120
1966,-0.460,-0.125
1967,-0.460,-0.140
1968,-0.470,-0.130
1969,-0.450,-0.120
1970,-0.440,-0.125
1971,-0.420,-0.125
1972,-0.415,-0.135
1973,-0.425,-0.125
1974,-0.425,-0.110
1975,-0.420,-0.100
1976,-0.405,-0.105
1977,-0.390,-0.100
1978,-0.400,-0.090
1979,-0.415,-0.090
1980,-0.400,-0.070
1981,-0.365,-0.070
1982,-0.320,-0.065
1983,-0.290,-0.075
1984,-0.305,-0.090
1985,-0.345,-0.075
1986,-0.385,-0.085
1987,-0.345,-0.080
1988,-0.340,-0.085
1989,-0.325,-0.080
1990,-0.350,-0.085
1991,-0.380,-0.100
1992,-0.400,-0.105
1993,-0.390,-0.110
1994,-0.380,-0.110
1995,-0.400,-0.105
1996,-0.405,-0.110
1997,-0.430,-0.110
1998,-0.450,-0.110
1999,-0.455,-0.105
2000,-0.450,-0.100
2001,-0.460,-0.100
2002,-0.470,-0.090
2003,-0.475,-0.120
2004,-0.490,-0.135
2005,-0.475,-0.130
2006,-0.470,-0.125
2007,-0.465,-0.125
2008,-0.465,-0.115
2009,-0.475,-0.130
2010,-0.470,-0.145
2011,-0.455,-0.135
2012,-0.460,-0.125
2013,-0.505,-0.140
2014,-0.550,-0.125
2015,-0.550,-0.140
2016,-0.535,-0.130
2017,-0.500,-0.115
2018,-0.465,-0.100
2019,-0.450,-0.090
2020,-0.475,-0.095
2021,-0.510,-0.105
2022,-0.535,-0.095
2023,-0.545,-0.085
2024,-0.520,-0.075
2025,-0.525,-0.055
2026,-0.525,-0.060
2027,-0.540,-0.080
2028,-0.535,-0.075
2029,-0.460,-0.065
2030,-0.310,-0.055
2031,-0.080,-0.055
2032,0.185,-0.065
2033,0.475,-0.095
2034,0.780,-0.120
2035,1.025,-0.135
2036,1.065,-0.155
2037,0.850,-0.180
2038,0.515,-0.190
2039,0.205,-0.185
2040,-0.095,-0.150
2041,-0.290,-0.095
2042,-0.380,-0.060
2043,-0.405,-0.050
2044,-0.465,-0.085
2045,-0.485,-0.110
2046,-0.505,-0.115
2047,-0.505,-0.100
2048,-0.505,-0.095
2049,-0.505,-0.105
2050,-0.540,-0.110
2051,-0.565,-0.135
2052,-0.590,-0.135
2053,-0.575,-0.120
2054,-0.555,-0.110
2055,-0.555,-0.105
2056,-0.560,-0.105
2057,-0.565,-0.140
2058,-0.585,-0.125
2059,-0.575,-0.125
2060,-0.565,-0.105
2061,-0.570,-0.120
2062,-0.560,-0.130
2063,-0.565,-0.120
2064,-0.570,-0.110
2065,-0.570,-0.090
2066,-0.560,-0.085
2067,-0.550,-0.090
2068,-0.570,-0.075
2069,-0.560,-0.080
2070,-0.580,-0.095
2071,-0.570,-0.070
2072,-0.575,-0.065
2073,-0.565,-0.055
2074,-0.575,-0.070
2075,-0.570,-0.085
2076,-0.570,-0.110
2077,-0.580,-0.095
2078,-0.570,-0.100
2079,-0.560,-0.095
2080,-0.565,-0.105
2081,-0.560,-0.115
2082,-0.565,-0.120
2083,-0.555,-0.120
2084,-0.555,-0.100
2085,-0.565,-0.095
2086,-0.555,-0.105
2087,-0.560,-0.110
2088,-0.575,-0.110
2089,-0.565,-0.080
2090,-0.550,-0.075
2091,-0.540,-0.105
2092,-0.530,-0.130
2093,-0.540,-0.145
2094,-0.570,-0.140
2095,-0.570,-0.125
2096,-0.565,-0.130
2097,-0.565,-0.120
2098,-0.555,-0.145
2099,-0.555,-0.155
2100,-0.555,-0.145
2101,-0.530,-0.125
2102,-0.520,-0.110
2103,-0.525,-0.105
2104,-0.525,-0.120
2105,-0.535,-0.135
2106,-0.530,-0.130
2107,-0.520,-0.095
2108,-0.500,-0.085
2109,-0.500,-0.080
2110,-0.515,-0.095
2111,-0.525,-0.105
2112,-0.525,-0.090
2113,-0.490,-0.075
2114,-0.475,-0.070
2115,-0.465,-0.070
2116,-0.480,-0.095
2117,-0.470,-0.115
2118,-0.470,-0.105
2119,-0.450,-0.090
2120,-0.445,-0.085
2121,-0.440,-0.095
2122,-0.435,-0.100
2123,-0.445,-0.120
2124,-0.445,-0.110
2125,-0.435,-0.095
2126,-0.435,-0.100
2127,-0.420,-0.100
2128,-0.395,-0.120
2129,-0.380,-0.140
2130,-0.355,-0.125
2131,-0.340,-0.125
2132,-0.330,-0.120
2133,-0.345,-0.135
2134,-0.340,-0.155
2135,-0.345,-0.170
2136,-0.345,-0.160
2137,-0.330,-0.150
2138,-0.310,-0.150
2139,-0.305,-0.165
2140,-0.295,-0.175
2141,-0.300,-0.190
2142,-0.315,-0.170
2143,-0.305,-0.155
2144,-0.280,-0.145
2145,-0.295,-0.155
2146,-0.300,-0.165
2147,-0.305,-0.175
2148,-0.310,-0.160
2149,-0.315,-0.140
2150,-0.325,-0.125
2151,-0.320,-0.120
2152,-0.320,-0.135
2153,-0.350,-0.135
2154,-0.360,-0.105
2155,-0.370,-0.090
2156,-0.370,-0.080
2157,-0.370,-0.090
2158,-0.385,-0.100
2159,-0.405,-0.105
2160,-0.410,-0.100
2161,-0.405,-0.090
2162,-0.410,-0.090
2163,-0.415,-0.090
2164,-0.435,-0.110
2165,-0.445,-0.120
2166,-0.470,-0.115
2167,-0.445,-0.105
2168,-0.445,-0.095
2169,-0.425,-0.115
2170,-0.455,-0.135
2171,-0.460,-0.125
2172,-0.465,-0.115
2173,-0.465,-0.090
2174,-0.465,-0.100
2175,-0.465,-0.120
2176,-0.455,-0.140
2177,-0.450,-0.145
2178,-0.460,-0.140
2179,-0.450,-0.130
2180,-0.445,-0.135
2181,-0.455,-0.140
2182,-0.465,-0.145
2183,-0.460,-0.155
2184,-0.465,-0.135
2185,-0.445,-0.130
2186,-0.430,-0.130
2187,-0.425,-0.130
2188,-0.445,-0.135
2189,-0.440,-0.130
2190,-0.450,-0.120
2191,-0.455,-0.115
2192,-0.435,-0.110
2193,-0.430,-0.105
2194,-0.430,-0.105
2195,-0.455,-0.095
2196,-0.465,-0.095
2197,-0.440,-0.090
2198,-0.425,-0.100
2199,-0.420,-0.105
2200,-0.440,-0.105
2201,-0.450,-0.100
2202,-0.435,-0.095
2203,-0.420,-0.080
2204,-0.400,-0.085
2205,-0.400,-0.095
2206,-0.410,-0.105
2207,-0.425,-0.115
2208,-0.425,-0.115
2209,-0.415,-0.120
2210,-0.415,-0.115
2211,-0.425,-0.115
2212,-0.415,-0.120
2213,-0.415,-0.125
2214,-0.415,-0.130
2215,-0.400,-0.120
2216,-0.400,-0.105
2217,-0.410,-0.110
2218,-0.425,-0.130
2219,-0.425,-0.150
2220,-0.420,-0.160
2221,-0.410,-0.155
2222,-0.400,-0.135
2223,-0.410,-0.135
2224,-0.425,-0.155
2225,-0.435,-0.170
2226,-0.440,-0.165
2227,-0.390,-0.135
2228,-0.385,-0.125
2229,-0.370,-0.125
2230,-0.360,-0.150
2231,-0.350,-0.160
2232,-0.355,-0.145
2233,-0.390,-0.130
2234,-0.410,-0.105
2235,-0.450,-0.110
2236,-0.460,-0.120
2237,-0.465,-0.125
2238,-0.465,-0.100
2239,-0.440,-0.100
2240,-0.390,-0.085
2241,-0.355,-0.105
2242,-0.305,-0.110
2243,-0.315,-0.130
2244,-0.370,-0.115
2245,-0.425,-0.100
2246,-0.435,-0.110
2247,-0.435,-0.120
2248,-0.420,-0.130
2249,-0.390,-0.130
2250,-0.370,-0.110
2251,-0.365,-0.095
2252,-0.350,-0.120
2253,-0.375,-0.130
2254,-0.390,-0.140
2255,-0.425,-0.130
2256,-0.420,-0.120
2257,-0.410,-0.130
2258,-0.405,-0.145
2259,-0.395,-0.140
2260,-0.395,-0.150
2261,-0.385,-0.145
2262,-0.390,-0.155
2263,-0.385,-0.155
2264,-0.380,-0.155
2265,-0.375,-0.150
2266,-0.365,-0.140
2267,-0.360,-0.165
2268,-0.355,-0.170
2269,-0.355,-0.155
2270,-0.350,-0.140
2271,-0.370,-0.130
2272,-0.375,-0.135
2273,-0.380,-0.145
2274,-0.385,-0.130
2275,-0.370,-0.120
2276,-0.355,-0.110
2277,-0.365,-0.105
2278,-0.370,-0.115
2279,-0.380,-0.120
2280,-0.380,-0.115
2281,-0.365,-0.095
2282,-0.340,-0.075
2283,-0.330,-0.090
2284,-0.335,-0.115
2285,-0.345,-0.135
2286,-0.350,-0.125
2287,-0.355,-0.115
2288,-0.325,-0.105
2289,-0.310,-0.105
2290,-0.320,-0.135
2291,-0.330,-0.130
2292,-0.320,-0.135
2293,-0.290,-0.110
2294,-0.255,-0.095
2295,-0.230,-0.095
2296,-0.190,-0.115
2297,-0.175,-0.130
2298,-0.185,-0.130
2299,-0.180,-0.125
2300,-0.200,-0.140
2301,-0.205,-0.150
2302,-0.220,-0.160
2303,-0.230,-0.165
2304,-0.235,-0.155
2305,-0.245,-0.135
2306,-0.250,-0.135
2307,-0.250,-0.150
2308,-0.255,-0.165
2309,-0.250,-0.165
2310,-0.250,-0.160
2311,-0.240,-0.135
2312,-0.255,-0.130
2313,-0.270,-0.145
2314,-0.275,-0.145
2315,-0.275,-0.135
2316,-0.285,-0.125
2317,-0.280,-0.110
2318,-0.305,-0.105
2319,-0.345,-0.115
2320,-0.365,-0.125
2321,-0.355,-0.120
2322,-0.365,-0.110
2323,-0.370,-0.090
2324,-0.355,-0.110
2325,-0.375,-0.105
2326,-0.365,-0.125
2327,-0.385,-0.130
2328,-0.380,-0.110
2329,-0.375,-0.095
2330,-0.360,-0.115
2331,-0.370,-0.125
2332,-0.375,-0.140
2333,-0.385,-0.145
2334,-0.375,-0.135
2335,-0.365,-0.130
2336,-0.345,-0.125
2337,-0.365,-0.140
2338,-0.385,-0.145
2339,-0.420,-0.140
2340,-0.440,-0.130
2341,-0.450,-0.120
2342,-0.380,-0.125
2343,-0.220,-0.135
2344,0.010,-0.150
2345,0.320,-0.155
2346,0.695,-0.155
2347,1.095,-0.155
2348,1.365,-0.170
2349,1.375,-0.210
2350,1.130,-0.220
2351,0.750,-0.235
2352,0.390,-0.230
2353,0.120,-0.185
2354,-0.015,-0.155
2355,-0.065,-0.135
2356,-0.100,-0.135
2357,-0.170,-0.135
2358,-0.200,-0.130
2359,-0.225,-0.110
2360,-0.235,-0.105
2361,-0.270,-0.100
2362,-0.305,-0.105
2363,-0.355,-0.110
2364,-0.375,-0.115
2365,-0.380,-0.105
2366,-0.395,-0.100
2367,-0.380,-0.095
2368,-0.395,-0.105
2369,-0.405,-0.115
2370,-0.425,-0.125
2371,-0.415,-0.120
2372,-0.410,-0.115
2373,-0.405,-0.115
2374,-0.400,-0.125
2375,-0.420,-0.130
2376,-0.430,-0.120
2377,-0.415,-0.120
2378,-0.415,-0.120
2379,-0.425,-0.105
2380,-0.435,-0.125
2381,-0.425,-0.145
2382,-0.430,-0.150
2383,-0.420,-0.140
2384,-0.410,-0.135
2385,-0.405,-0.130
2386,-0.415,-0.150
2387,-0.415,-0.170
2388,-0.425,-0.165
2389,-0.410,-0.155
2390,-0.400,-0.145
2391,-0.390,-0.140
2392,-0.405,-0.160
2393,-0.415,-0.160
2394,-0.420,-0.155
2395,-0.410,-0.140
2396,-0.390,-0.135
2397,-0.390,-0.140
2398,-0.395,-0.150
2399,-0.415,-0.155
2400,-0.420,-0.140
2401,-0.400,-0.120
2402,-0.395,-0.100
2403,-0.410,-0.105
2404,-0.420,-0.120
2405,-0.420,-0.125
2406,-0.415,-0.125
2407,-0.415,-0.110
2408,-0.390,-0.095
2409,-0.395,-0.110
2410,-0.390,-0.125
2411,-0.395,-0.145
2412,-0.390,-0.120
2413,-0.395,-0.120
2414,-0.390,-0.125
2415,-0.385,-0.135
2416,-0.385,-0.150
2417,-0.395,-0.155
2418,-0.385,-0.145
2419,-0.375,-0.130
2420,-0.360,-0.135
2421,-0.375,-0.140
2422,-0.370,-0.150
2423,-0.360,-0.145
2424,-0.355,-0.145
2425,-0.330,-0.130
2426,-0.320,-0.120
2427,-0.315,-0.145
2428,-0.320,-0.175
2429,-0.325,-0.180
2430,-0.320,-0.170
2431,-0.280,-0.160
2432,-0.260,-0.150
2433,-0.255,-0.165
2434,-0.260,-0.175
2435,-0.265,-0.190
2436,-0.260,-0.165
2437,-0.230,-0.155
2438,-0.205,-0.155
2439,-0.190,-0.165
2440,-0.190,-0.165
2441,-0.190,-0.160
2442,-0.185,-0.145
2443,-0.155,-0.120
2444,-0.135,-0.125
2445,-0.115,-0.130
2446,-0.125,-0.135
2447,-0.125,-0.150
2448,-0.110,-0.120
2449,-0.110,-0.115
2450,-0.105,-0.130
2451,-0.090,-0.120
2452,-0.090,-0.130
2453,-0.080,-0.140
2454,-0.080,-0.140
2455,-0.090,-0.135
2456,-0.065,-0.140
2457,-0.090,-0.150
2458,-0.090,-0.170
2459,-0.090,-0.165
2460,-0.100,-0.150
2461,-0.110,-0.150
2462,-0.125,-0.145
2463,-0.130,-0.150
2464,-0.145,-0.165
2465,-0.165,-0.155
2466,-0.190,-0.145
2467,-0.195,-0.140
2468,-0.200,-0.150
2469,-0.210,-0.165
2470,-0.230,-0.170
2471,-0.245,-0.180
2472,-0.260,-0.170
2473,-0.270,-0.165
2474,-0.265,-0.165
2475,-0.270,-0.175
2476,-0.280,-0.170
2477,-0.295,-0.170
2478,-0.325,-0.155
2479,-0.315,-0.155
2480,-0.310,-0.145
2481,-0.300,-0.155
2482,-0.290,-0.140
2483,-0.310,-0.140
2484,-0.320,-0.140
2485,-0.320,-0.125
2486,-0.305,-0.135
2487,-0.310,-0.140
2488,-0.330,-0.140
2489,-0.345,-0.125
2490,-0.355,-0.125
2491,-0.340,-0.125
2492,-0.330,-0.125
2493,-0.335,-0.120
2494,-0.325,-0.125
2495,-0.325,-0.135
2496,-0.330,-0.125
2497,-0.330,-0.130
2498,-0.320,-0.135
2499,-0.325,-0.140
2500,-0.330,-0.140
2501,-0.335,-0.145
2502,-0.335,-0.140
2503,-0.330,-0.140
2504,-0.315,-0.140
2505,-0.325,-0.140
2506,-0.320,-0.140
2507,-0.315,-0.140
2508,-0.325,-0.140
2509,-0.310,-0.135
2510,-0.315,-0.150
2511,-0.310,-0.145
2512,-0.295,-0.160
2513,-0.305,-0.165
2514,-0.315,-0.175
2515,-0.325,-0.180
2516,-0.310,-0.170
2517,-0.310,-0.160
2518,-0.305,-0.165
2519,-0.295,-0.180
2520,-0.310,-0.190
2521,-0.305,-0.170
2522,-0.295,-0.160
2523,-0.285,-0.155
2524,-0.285,-0.145
2525,-0.285,-0.175
2526,-0.300,-0.170
2527,-0.310,-0.145
2528,-0.300,-0.130
2529,-0.295,-0.125
2530,-0.280,-0.135
2531,-0.310,-0.135
2532,-0.310,-0.140
2533,-0.295,-0.115
2534,-0.275,-0.105
2535,-0.275,-0.105
2536,-0.290,-0.120
2537,-0.300,-0.125
2538,-0.310,-0.140
2539,-0.300,-0.115
2540,-0.275,-0.125
2541,-0.280,-0.130
2542,-0.285,-0.160
2543,-0.300,-0.180
2544,-0.310,-0.155
2545,-0.300,-0.140
2546,-0.280,-0.135
2547,-0.285,-0.145
2548,-0.300,-0.180
2549,-0.305,-0.170
2550,-0.310,-0.155
2551,-0.300,-0.140
2552,-0.295,-0.150
2553,-0.290,-0.175
2554,-0.285,-0.185
2555,-0.295,-0.180
2556,-0.295,-0.175
2557,-0.275,-0.165
2558,-0.280,-0.165
2559,-0.280,-0.175
2560,-0.300,-0.175
2561,-0.305,-0.185
2562,-0.300,-0.170
2563,-0.290,-0.160
2564,-0.285,-0.165
2565,-0.280,-0.160
2566,-0.285,-0.165
2567,-0.290,-0.160
2568,-0.300,-0.145
2569,-0.290,-0.130
2570,-0.295,-0.130
2571,-0.290,-0.135
2572,-0.290,-0.140
2573,-0.295,-0.130
2574,-0.300,-0.125
2575,-0.300,-0.120
2576,-0.295,-0.110
2577,-0.290,-0.115
2578,-0.295,-0.125
2579,-0.290,-0.130
2580,-0.310,-0.140
2581,-0.300,-0.140
2582,-0.290,-0.155
2583,-0.285,-0.145
2584,-0.285,-0.145
2585,-0.305,-0.150
2586,-0.300,-0.155
2587,-0.300,-0.155
2588,-0.295,-0.160
2589,-0.280,-0.155
2590,-0.285,-0.140
2591,-0.305,-0.150
2592,-0.300,-0.150
2593,-0.295,-0.160
2594,-0.270,-0.155
2595,-0.260,-0.170
2596,-0.260,-0.180
2597,-0.270,-0.180
2598,-0.285,-0.180
2599,-0.265,-0.185
2600,-0.250,-0.175
2601,-0.245,-0.175
2602,-0.255,-0.175
2603,-0.270,-0.190
2604,-0.270,-0.200
2605,-0.250,-0.175
2606,-0.230,-0.170
2607,-0.190,-0.155
2608,-0.150,-0.160
2609,-0.135,-0.155
2610,-0.135,-0.135
2611,-0.155,-0.135
2612,-0.150,-0.125
2613,-0.150,-0.135
2614,-0.150,-0.135
2615,-0.160,-0.155
2616,-0.185,-0.140
2617,-0.210,-0.145
2618,-0.205,-0.130
2619,-0.205,-0.125
2620,-0.215,-0.130
2621,-0.225,-0.135
2622,-0.230,-0.145
2623,-0.220,-0.140
2624,-0.210,-0.145
2625,-0.230,-0.145
2626,-0.250,-0.150
2627,-0.290,-0.165
2628,-0.300,-0.175
2629,-0.295,-0.160
2630,-0.305,-0.140
2631,-0.305,-0.145
2632,-0.330,-0.155
2633,-0.335,-0.170
2634,-0.335,-0.170
2635,-0.340,-0.180
2636,-0.335,-0.165
2637,-0.330,-0.155
2638,-0.320,-0.165
2639,-0.315,-0.195
2640,-0.340,-0.190
2641,-0.340,-0.200
2642,-0.315,-0.175
2643,-0.315,-0.175
2644,-0.335,-0.185
2645,-0.345,-0.210
2646,-0.350,-0.200
2647,-0.350,-0.195
2648,-0.335,-0.180
2649,-0.335,-0.170
2650,-0.330,-0.165
2651,-0.345,-0.180
2652,-0.355,-0.170
2653,-0.355,-0.150
2654,-0.365,-0.145
2655,-0.335,-0.140
2656,-0.205,-0.140
2657,0.015,-0.150
2658,0.320,-0.135
2659,0.695,-0.120
2660,1.075,-0.125
2661,1.325,-0.145
2662,1.305,-0.200
2663,1.045,-0.235
2664,0.690,-0.255
2665,0.360,-0.225
2666,0.105,-0.190
2667,-0.020,-0.160
2668,-0.055,-0.150
2669,-0.095,-0.165
2670,-0.145,-0.170
2671,-0.185,-0.160
2672,-0.205,-0.155
2673,-0.210,-0.150
2674,-0.235,-0.160
2675,-0.270,-0.170
2676,-0.285,-0.175
2677,-0.290,-0.145
2678,-0.300,-0.150
2679,-0.305,-0.155
2680,-0.320,-0.180
2681,-0.315,-0.200
2682,-0.305,-0.195
2683,-0.310,-0.190
2684,-0.360,-0.175
2685,-0.425,-0.185
2686,-0.470,-0.195
2687,-0.495,-0.200
2688,-0.495,-0.195
2689,-0.475,-0.185
2690,-0.455,-0.175
2691,-0.450,-0.170
2692,-0.450,-0.170
2693,-0.455,-0.180
2694,-0.450,-0.165
2695,-0.445,-0.155
2696,-0.425,-0.135
2697,-0.420,-0.130
2698,-0.420,-0.140
2699,-0.420,-0.145
2700,-0.420,-0.145
2701,-0.415,-0.125
2702,-0.415,-0.130
2703,-0.405,-0.130
2704,-0.415,-0.150
2705,-0.435,-0.155
2706,-0.435,-0.140
2707,-0.410,-0.125
2708,-0.400,-0.125
2709,-0.410,-0.130
2710,-0.410,-0.155
2711,-0.420,-0.170
2712,-0.415,-0.155
2713,-0.410,-0.140
2714,-0.415,-0.135
2715,-0.415,-0.145
2716,-0.420,-0.160
2717,-0.420,-0.170
2718,-0.435,-0.160
2719,-0.435,-0.145
2720,-0.430,-0.140
2721,-0.440,-0.150
2722,-0.435,-0.175
2723,-0.430,-0.180
2724,-0.430,-0.170
2725,-0.420,-0.160
2726,-0.405,-0.165
2727,-0.400,-0.165
2728,-0.420,-0.195
2729,-0.435,-0.200
2730,-0.445,-0.185
2731,-0.415,-0.170
2732,-0.405,-0.165
2733,-0.410,-0.180
2734,-0.415,-0.185
2735,-0.420,-0.200
2736,-0.435,-0.180
2737,-0.410,-0.155
2738,-0.400,-0.155
2739,-0.390,-0.160
2740,-0.390,-0.165
2741,-0.405,-0.175
2742,-0.395,-0.155
2743,-0.370,-0.130
2744,-0.365,-0.120
2745,-0.360,-0.125
2746,-0.360,-0.135
2747,-0.360,-0.140
2748,-0.330,-0.140
2749,-0.320,-0.115
2750,-0.315,-0.115
2751,-0.325,-0.120
2752,-0.330,-0.140
2753,-0.320,-0.150
2754,-0.320,-0.150
2755,-0.280,-0.140
2756,-0.250,-0.140
2757,-0.235,-0.130
2758,-0.210,-0.150
2759,-0.210,-0.170
2760,-0.225,-0.165
2761,-0.190,-0.155
2762,-0.165,-0.155
2763,-0.170,-0.155
2764,-0.180,-0.175
2765,-0.195,-0.180
2766,-0.210,-0.165
2767,-0.200,-0.145
2768,-0.175,-0.160
2769,-0.160,-0.190
2770,-0.175,-0.195
2771,-0.175,-0.215
2772,-0.180,-0.190
2773,-0.170,-0.180
2774,-0.165,-0.180
2775,-0.160,-0.180
2776,-0.175,-0.195
2777,-0.190,-0.195
2778,-0.195,-0.185
2779,-0.190,-0.175
2780,-0.220,-0.165
2781,-0.255,-0.170
2782,-0.300,-0.170
2783,-0.340,-0.165
2784,-0.335,-0.140
2785,-0.320,-0.125
2786,-0.315,-0.125
2787,-0.335,-0.140
2788,-0.345,-0.140
2789,-0.350,-0.150
2790,-0.350,-0.130
2791,-0.360,-0.110
2792,-0.365,-0.115
2793,-0.365,-0.110
2794,-0.365,-0.125
2795,-0.355,-0.140
2796,-0.370,-0.135
2797,-0.370,-0.115
2798,-0.365,-0.120
2799,-0.365,-0.140
2800,-0.375,-0.160
2801,-0.385,-0.155
2802,-0.385,-0.140
2803,-0.370,-0.135
2804,-0.380,-0.130
2805,-0.390,-0.150
2806,-0.405,-0.165
2807,-0.400,-0.160
2808,-0.405,-0.135
2809,-0.405,-0.140
2810,-0.385,-0.145
2811,-0.375,-0.165
2812,-0.385,-0.180
2813,-0.395,-0.185
2814,-0.415,-0.175
2815,-0.395,-0.175
2816,-0.375,-0.175
2817,-0.365,-0.165
2818,-0.370,-0.170
2819,-0.395,-0.175
2820,-0.390,-0.170
2821,-0.395,-0.160
2822,-0.380,-0.160
2823,-0.375,-0.155
2824,-0.370,-0.155
2825,-0.390,-0.145
2826,-0.405,-0.135
2827,-0.385,-0.115
2828,-0.370,-0.115
2829,-0.360,-0.120
2830,-0.360,-0.115
2831,-0.370,-0.115
2832,-0.375,-0.125
2833,-0.385,-0.110
2834,-0.365,-0.110
2835,-0.360,-0.105
2836,-0.360,-0.115
2837,-0.355,-0.120
2838,-0.355,-0.125
2839,-0.345,-0.125
2840,-0.345,-0.130
2841,-0.340,-0.140
2842,-0.340,-0.140
2843,-0.355,-0.140
2844,-0.370,-0.140
2845,-0.360,-0.135
2846,-0.355,-0.140
2847,-0.350,-0.120
2848,-0.335,-0.135
2849,-0.340,-0.140
2850,-0.335,-0.155
2851,-0.335,-0.145
2852,-0.340,-0.145
2853,-0.340,-0.140
2854,-0.365,-0.145
2855,-0.350,-0.175
2856,-0.335,-0.180
2857,-0.335,-0.170
2858,-0.325,-0.155
2859,-0.340,-0.155
2860,-0.355,-0.155
2861,-0.375,-0.165
2862,-0.375,-0.175
2863,-0.345,-0.170
2864,-0.325,-0.140
2865,-0.325,-0.140
2866,-0.340,-0.150
2867,-0.365,-0.145
2868,-0.370,-0.140
2869,-0.375,-0.125
2870,-0.355,-0.115
2871,-0.365,-0.100
2872,-0.370,-0.105
2873,-0.395,-0.130
2874,-0.385,-0.135
2875,-0.360,-0.110
2876,-0.345,-0.110
2877,-0.325,-0.100
2878,-0.315,-0.110
2879,-0.310,-0.125
2880,-0.305,-0.115
2881,-0.255,-0.115
2882,-0.210,-0.100
2883,-0.230,-0.105
2884,-0.290,-0.115
2885,-0.360,-0.150
2886,-0.405,-0.150
2887,-0.440,-0.145
2888,-0.455,-0.130
2889,-0.440,-0.140
2890,-0.420,-0.145
2891,-0.400,-0.145
2892,-0.385,-0.150
2893,-0.360,-0.125
2894,-0.330,-0.125
2895,-0.295,-0.135
2896,-0.300,-0.160
2897,-0.345,-0.170
2898,-0.400,-0.170
2899,-0.410,-0.165
2900,-0.380,-0.160
2901,-0.365,-0.165
2902,-0.370,-0.185
2903,-0.375,-0.175
2904,-0.380,-0.160
2905,-0.350,-0.140
2906,-0.340,-0.140
2907,-0.340,-0.140
2908,-0.330,-0.140
2909,-0.330,-0.140
2910,-0.330,-0.130
2911,-0.320,-0.110
2912,-0.320,-0.100
2913,-0.325,-0.115
2914,-0.340,-0.125
2915,-0.340,-0.125
2916,-0.315,-0.105
2917,-0.295,-0.095
2918,-0.250,-0.095
2919,-0.205,-0.095
2920,-0.175,-0.115
2921,-0.195,-0.115
2922,-0.215,-0.110
2923,-0.215,-0.120
2924,-0.215,-0.115
2925,-0.215,-0.140
2926,-0.220,-0.140
2927,-0.235,-0.145
2928,-0.250,-0.135
2929,-0.250,-0.135
2930,-0.250,-0.135
2931,-0.245,-0.145
2932,-0.250,-0.145
2933,-0.265,-0.150
2934,-0.285,-0.135
2935,-0.295,-0.150
2936,-0.305,-0.155
2937,-0.310,-0.165
2938,-0.345,-0.165
2939,-0.370,-0.175
2940,-0.375,-0.160
2941,-0.365,-0.170
2942,-0.355,-0.160
2943,-0.350,-0.160
2944,-0.350,-0.155
2945,-0.360,-0.165
2946,-0.380,-0.170
2947,-0.370,-0.170
2948,-0.360,-0.155
2949,-0.360,-0.140
2950,-0.365,-0.130
2951,-0.375,-0.145
2952,-0.390,-0.145
2953,-0.390,-0.135
2954,-0.365,-0.120
2955,-0.355,-0.105
2956,-0.360,-0.125
2957,-0.380,-0.140
2958,-0.380,-0.120
2959,-0.380,-0.110
2960,-0.385,-0.110
2961,-0.395,-0.115
2962,-0.410,-0.115
2963,-0.445,-0.135
2964,-0.440,-0.145
2965,-0.365,-0.135
2966,-0.175,-0.125
2967,0.080,-0.125
2968,0.350,-0.125
2969,0.655,-0.145
2970,0.975,-0.170
2971,1.210,-0.190
2972,1.220,-0.210
2973,0.995,-0.235
2974,0.670,-0.260
2975,0.335,-0.270
2976,0.045,-0.240
2977,-0.105,-0.185
2978,-0.125,-0.145
2979,-0.165,-0.140
2980,-0.220,-0.145
2981,-0.240,-0.175
2982,-0.270,-0.185
2983,-0.295,-0.175
2984,-0.330,-0.155
2985,-0.360,-0.145
2986,-0.385,-0.175
2987,-0.400,-0.180
2988,-0.405,-0.175
2989,-0.405,-0.170
2990,-0.410,-0.145
2991,-0.425,-0.155
2992,-0.450,-0.145
2993,-0.480,-0.160
2994,-0.485,-0.155
2995,-0.465,-0.135
2996,-0.450,-0.115
2997,-0.445,-0.125
2998,-0.435,-0.125
2999,-0.435,-0.135
3000,-0.445,-0.135
3001,-0.440,-0.125
3002,-0.440,-0.115
3003,-0.460,-0.105
3004,-0.465,-0.115
3005,-0.475,-0.125
3006,-0.475,-0.130
3007,-0.470,-0.145
3008,-0.450,-0.140
3009,-0.450,-0.120
3010,-0.450,-0.135
3011,-0.450,-0.155
3012,-0.450,-0.155
3013,-0.435,-0.140
3014,-0.430,-0.145
3015,-0.445,-0.130
3016,-0.455,-0.145
3017,-0.465,-0.150
3018,-0.475,-0.155
3019,-0.465,-0.145
3020,-0.455,-0.145
3021,-0.460,-0.125
3022,-0.455,-0.135
3023,-0.475,-0.155
3024,-0.475,-0.160
3025,-0.470,-0.175
3026,-0.450,-0.160
3027,-0.435,-0.155
3028,-0.440,-0.175
3029,-0.440,-0.175
3030,-0.455,-0.170
3031,-0.450,-0.170
3032,-0.440,-0.165
3033,-0.415,-0.175
3034,-0.430,-0.180
3035,-0.440,-0.175
3036,-0.445,-0.160
3037,-0.435,-0.165
3038,-0.425,-0.150
3039,-0.420,-0.140
3040,-0.415,-0.135
3041,-0.425,-0.135
3042,-0.425,-0.140
3043,-0.420,-0.135
3044,-0.410,-0.130
3045,-0.405,-0.120
3046,-0.405,-0.120
3047,-0.405,-0.130
3048,-0.405,-0.135
3049,-0.395,-0.125
3050,-0.380,-0.115
3051,-0.370,-0.110
3052,-0.360,-0.115
3053,-0.370,-0.135
3054,-0.370,-0.130
3055,-0.355,-0.130
3056,-0.330,-0.130
3057,-0.315,-0.135
3058,-0.320,-0.145
3059,-0.320,-0.140
3060,-0.325,-0.145
3061,-0.310,-0.135
3062,-0.295,-0.150
3063,-0.290,-0.145
3064,-0.285,-0.155
3065,-0.285,-0.150
3066,-0.290,-0.140
3067,-0.275,-0.135
3068,-0.255,-0.160
3069,-0.240,-0.155
3070,-0.220,-0.170
3071,-0.215,-0.185
3072,-0.215,-0.160
3073,-0.190,-0.170
3074,-0.175,-0.175
3075,-0.175,-0.180
3076,-0.195,-0.185
3077,-0.200,-0.190
3078,-0.195,-0.185
3079,-0.155,-0.170
3080,-0.130,-0.170
3081,-0.120,-0.160
3082,-0.110,-0.180
3083,-0.110,-0.165
3084,-0.110,-0.160
3085,-0.105,-0.140
3086,-0.125,-0.140
3087,-0.145,-0.140
3088,-0.160,-0.145
3089,-0.180,-0.140
3090,-0.185,-0.125
3091,-0.185,-0.120
3092,-0.175,-0.105
3093,-0.165,-0.130
3094,-0.170,-0.135
3095,-0.205,-0.135
3096,-0.245,-0.115
3097,-0.260,-0.115
3098,-0.270,-0.120
3099,-0.270,-0.130
3100,-0.280,-0.140
3101,-0.285,-0.135
3102,-0.300,-0.135
3103,-0.295,-0.125
3104,-0.300,-0.125
3105,-0.300,-0.130
3106,-0.315,-0.135
3107,-0.320,-0.150
3108,-0.330,-0.135
3109,-0.305,-0.115
3110,-0.300,-0.110
3111,-0.320,-0.130
3112,-0.320,-0.140
3113,-0.315,-0.160
3114,-0.330,-0.140
3115,-0.320,-0.130
3116,-0.310,-0.135
3117,-0.320,-0.160
3118,-0.330,-0.160
3119,-0.340,-0.175
3120,-0.335,-0.165
3121,-0.330,-0.150
3122,-0.315,-0.140
3123,-0.310,-0.155
3124,-0.310,-0.165
3125,-0.330,-0.160
3126,-0.335,-0.145
3127,-0.325,-0.120
3128,-0.320,-0.120
3129,-0.305,-0.125
3130,-0.330,-0.125
3131,-0.330,-0.120
3132,-0.330,-0.105
3133,-0.315,-0.095
3134,-0.295,-0.085
3135,-0.290,-0.105
3136,-0.300,-0.115
3137,-0.300,-0.125
3138,-0.325,-0.100
3139,-0.300,-0.090
3140,-0.295,-0.095
3141,-0.285,-0.100
3142,-0.300,-0.120
3143,-0.305,-0.125
3144,-0.295,-0.110
3145,-0.295,-0.105
3146,-0.280,-0.110
3147,-0.265,-0.115
3148,-0.275,-0.130
3149,-0.300,-0.130
3150,-0.305,-0.115
3151,-0.315,-0.110
3152,-0.315,-0.095
3153,-0.300,-0.120
3154,-0.310,-0.135
3155,-0.305,-0.145
3156,-0.290,-0.140
3157,-0.280,-0.120
3158,-0.265,-0.120
3159,-0.295,-0.130
3160,-0.285,-0.160
3161,-0.310,-0.170
3162,-0.290,-0.170
3163,-0.275,-0.145
3164,-0.270,-0.130
3165,-0.275,-0.145
3166,-0.270,-0.150
3167,-0.280,-0.165
3168,-0.310,-0.160
3169,-0.300,-0.145
3170,-0.290,-0.125
3171,-0.295,-0.130
3172,-0.280,-0.140
3173,-0.290,-0.145
3174,-0.295,-0.140
3175,-0.280,-0.105
3176,-0.265,-0.085
3177,-0.270,-0.090
3178,-0.295,-0.100
3179,-0.305,-0.110
3180,-0.310,-0.115
3181,-0.305,-0.100
3182,-0.280,-0.080
3183,-0.285,-0.080
3184,-0.290,-0.100
3185,-0.295,-0.110
3186,-0.300,-0.115
3187,-0.295,-0.080
3188,-0.290,-0.095
3189,-0.280,-0.105
3190,-0.270,-0.120
3191,-0.280,-0.125
3192,-0.285,-0.130
3193,-0.280,-0.120
3194,-0.270,-0.105
3195,-0.285,-0.110
3196,-0.295,-0.115
3197,-0.295,-0.125
3198,-0.300,-0.140
3199,-0.295,-0.115
3200,-0.285,-0.100
3201,-0.280,-0.110
3202,-0.285,-0.130
3203,-0.290,-0.150
3204,-0.290,-0.160
3205,-0.275,-0.150
3206,-0.275,-0.130
3207,-0.270,-0.130
3208,-0.295,-0.140
3209,-0.320,-0.165
3210,-0.330,-0.150
3211,-0.315,-0.145
3212,-0.310,-0.125
3213,-0.300,-0.130
3214,-0.305,-0.140
3215,-0.305,-0.155
3216,-0.305,-0.155
3217,-0.300,-0.130
3218,-0.280,-0.105
3219,-0.280,-0.100
3220,-0.290,-0.105
3221,-0.295,-0.115
3222,-0.310,-0.115
3223,-0.290,-0.100
3224,-0.290,-0.085
3225,-0.275,-0.085
3226,-0.270,-0.090
3227,-0.275,-0.105
3228,-0.285,-0.115
3229,-0.280,-0.090
3230,-0.270,-0.085
3231,-0.265,-0.085
3232,-0.270,-0.100
3233,-0.280,-0.125
3234,-0.275,-0.120
3235,-0.250,-0.110
3236,-0.245,-0.090
3237,-0.260,-0.105
3238,-0.265,-0.110
3239,-0.265,-0.120
3240,-0.250,-0.135
3241,-0.210,-0.120
3242,-0.175,-0.105
3243,-0.145,-0.095
3244,-0.120,-0.105
3245,-0.105,-0.115
3246,-0.115,-0.125
3247,-0.115,-0.125
3248,-0.130,-0.115
3249,-0.120,-0.120
3250,-0.135,-0.150
3251,-0.135,-0.150
3252,-0.165,-0.160
3253,-0.165,-0.150
3254,-0.180,-0.135
3255,-0.185,-0.140
3256,-0.205,-0.140
3257,-0.195,-0.150
3258,-0.210,-0.160
3259,-0.205,-0.160
3260,-0.210,-0.135
3261,-0.225,-0.125
3262,-0.240,-0.130
3263,-0.270,-0.125
3264,-0.290,-0.130
3265,-0.300,-0.120
3266,-0.305,-0.110
3267,-0.305,-0.105
3268,-0.320,-0.095
3269,-0.325,-0.090
3270,-0.335,-0.110
3271,-0.315,-0.100
3272,-0.310,-0.100
3273,-0.315,-0.100
3274,-0.320,-0.090
3275,-0.320,-0.095
3276,-0.340,-0.105
3277,-0.315,-0.100
3278,-0.310,-0.105
3279,-0.310,-0.110
3280,-0.325,-0.115
3281,-0.325,-0.125
3282,-0.335,-0.110
3283,-0.325,-0.125
3284,-0.300,-0.115
3285,-0.300,-0.125
3286,-0.315,-0.115
3287,-0.335,-0.115
3288,-0.335,-0.125
3289,-0.340,-0.115
3290,-0.355,-0.115
3291,-0.380,-0.110
3292,-0.385,-0.110
3293,-0.370,-0.120
3294,-0.300,-0.135
3295,-0.130,-0.130
3296,0.070,-0.120
3297,0.290,-0.130
3298,0.545,-0.150
3299,0.830,-0.160
3300,1.060,-0.180
3301,1.145,-0.220
3302,1.015,-0.255
3303,0.735,-0.285
3304,0.425,-0.275
3305,0.165,-0.260
3306,-0.040,-0.220
3307,-0.145,-0.155
3308,-0.155,-0.125
3309,-0.170,-0.125
3310,-0.185,-0.120
3311,-0.210,-0.120
3312,-0.245,-0.105
3313,-0.280,-0.095
3314,-0.290,-0.085
3315,-0.315,-0.105
3316,-0.345,-0.100
3317,-0.370,-0.110
3318,-0.395,-0.105
3319,-0.435,-0.085
3320,-0.430,-0.080
3321,-0.430,-0.090
3322,-0.420,-0.100
3323,-0.420,-0.100
3324,-0.445,-0.105
3325,-0.440,-0.090
3326,-0.435,-0.100
3327,-0.425,-0.120
3328,-0.430,-0.130
3329,-0.440,-0.140
3330,-0.440,-0.130
3331,-0.430,-0.110
3332,-0.430,-0.090
3333,-0.435,-0.115
3334,-0.440,-0.130
3335,-0.455,-0.135
3336,-0.455,-0.125
3337,-0.445,-0.105
3338,-0.435,-0.110
3339,-0.425,-0.115
3340,-0.420,-0.130
3341,-0.420,-0.145
3342,-0.430,-0.140
3343,-0.440,-0.125
3344,-0.415,-0.110
3345,-0.415,-0.130
3346,-0.430,-0.135
3347,-0.435,-0.145
3348,-0.440,-0.140
3349,-0.435,-0.135
3350,-0.430,-0.125
3351,-0.415,-0.135
3352,-0.420,-0.145
3353,-0.420,-0.155
3354,-0.430,-0.155
3355,-0.420,-0.130
3356,-0.410,-0.105
3357,-0.405,-0.095
3358,-0.410,-0.105
3359,-0.410,-0.115
3360,-0.425,-0.120
3361,-0.410,-0.105
3362,-0.390,-0.070
3363,-0.380,-0.080
3364,-0.385,-0.090
3365,-0.405,-0.115
3366,-0.415,-0.105
3367,-0.415,-0.095
3368,-0.410,-0.075
3369,-0.405,-0.080
3370,-0.400,-0.090
3371,-0.410,-0.110
3372,-0.420,-0.125
3373,-0.410,-0.115
3374,-0.410,-0.100
3375,-0.395,-0.105
3376,-0.395,-0.115
3377,-0.405,-0.125
3378,-0.400,-0.130
3379,-0.390,-0.120
3380,-0.380,-0.110
3381,-0.375,-0.115
3382,-0.375,-0.115
3383,-0.380,-0.115
3384,-0.375,-0.125
3385,-0.370,-0.125
3386,-0.365,-0.120
3387,-0.355,-0.135
3388,-0.350,-0.140
3389,-0.350,-0.145
3390,-0.355,-0.160
3391,-0.350,-0.155
3392,-0.335,-0.155
3393,-0.315,-0.140
3394,-0.305,-0.145
3395,-0.300,-0.150
3396,-0.300,-0.155
3397,-0.280,-0.150
3398,-0.265,-0.150
3399,-0.255,-0.150
3400,-0.265,-0.145
3401,-0.260,-0.140
3402,-0.265,-0.135
3403,-0.270,-0.135
3404,-0.245,-0.115
3405,-0.225,-0.125
3406,-0.235,-0.125
3407,-0.215,-0.115
3408,-0.215,-0.105
3409,-0.205,-0.110
3410,-0.190,-0.105
3411,-0.175,-0.110
3412,-0.175,-0.110
3413,-0.180,-0.120
3414,-0.175,-0.105
3415,-0.170,-0.110
3416,-0.150,-0.115
3417,-0.140,-0.120
3418,-0.145,-0.125
3419,-0.150,-0.140
3420,-0.160,-0.135
3421,-0.150,-0.125
3422,-0.170,-0.125
3423,-0.170,-0.145
3424,-0.175,-0.145
3425,-0.210,-0.145
3426,-0.240,-0.125
3427,-0.250,-0.115
3428,-0.250,-0.110
3429,-0.240,-0.115
3430,-0.245,-0.130
3431,-0.250,-0.130
3432,-0.275,-0.130
3433,-0.260,-0.120
3434,-0.275,-0.125
3435,-0.290,-0.135
3436,-0.305,-0.150
3437,-0.315,-0.145
3438,-0.330,-0.150
3439,-0.320,-0.125
3440,-0.330,-0.120
3441,-0.325,-0.145
3442,-0.305,-0.160
3443,-0.315,-0.155
3444,-0.325,-0.150
3445,-0.325,-0.135
3446,-0.325,-0.125
3447,-0.330,-0.130
3448,-0.320,-0.130
3449,-0.340,-0.140
3450,-0.365,-0.135
3451,-0.350,-0.110
3452,-0.355,-0.080
3453,-0.355,-0.085
3454,-0.350,-0.095
3455,-0.355,-0.110
3456,-0.360,-0.115
3457,-0.355,-0.095
3458,-0.325,-0.070
3459,-0.305,-0.080
3460,-0.320,-0.090
3461,-0.325,-0.095
3462,-0.340,-0.090
3463,-0.340,-0.100
3464,-0.335,-0.080
3465,-0.320,-0.075
3466,-0.330,-0.085
3467,-0.345,-0.105
3468,-0.345,-0.110
3469,-0.330,-0.110
3470,-0.310,-0.100
3471,-0.315,-0.090
3472,-0.325,-0.105
3473,-0.335,-0.100
3474,-0.345,-0.115
3475,-0.335,-0.100
3476,-0.320,-0.100
3477,-0.325,-0.100
3478,-0.335,-0.100
3479,-0.345,-0.125
3480,-0.350,-0.120
3481,-0.335,-0.130
3482,-0.335,-0.120
3483,-0.315,-0.130
3484,-0.320,-0.115
3485,-0.315,-0.130
3486,-0.325,-0.145
3487,-0.310,-0.135
3488,-0.310,-0.125
3489,-0.305,-0.140
3490,-0.305,-0.135
3491,-0.310,-0.135
3492,-0.330,-0.130
3493,-0.325,-0.125
3494,-0.315,-0.115
3495,-0.295,-0.120
3496,-0.295,-0.110
3497,-0.300,-0.105
3498,-0.310,-0.110
3499,-0.295,-0.100
3500,-0.290,-0.080
3501,-0.290,-0.080
3502,-0.315,-0.085
3503,-0.315,-0.085
3504,-0.310,-0.090
3505,-0.280,-0.090
3506,-0.280,-0.075
3507,-0.280,-0.080
3508,-0.305,-0.080
3509,-0.310,-0.080
3510,-0.325,-0.075
3511,-0.335,-0.095
3512,-0.335,-0.090
3513,-0.315,-0.100
3514,-0.320,-0.100
3515,-0.315,-0.115
3516,-0.320,-0.105
3517,-0.295,-0.105
3518,-0.285,-0.095
3519,-0.285,-0.115
3520,-0.290,-0.105
3521,-0.305,-0.105
3522,-0.310,-0.120
3523,-0.310,-0.100
3524,-0.295,-0.110
3525,-0.305,-0.125
3526,-0.310,-0.125
3527,-0.320,-0.125
3528,-0.320,-0.135
3529,-0.325,-0.125
3530,-0.320,-0.135
3531,-0.325,-0.135
3532,-0.315,-0.150
3533,-0.310,-0.145
3534,-0.310,-0.145
3535,-0.330,-0.135
3536,-0.315,-0.125
3537,-0.330,-0.135
3538,-0.315,-0.130
3539,-0.330,-0.130
3540,-0.325,-0.115
3541,-0.320,-0.120
3542,-0.305,-0.100
3543,-0.315,-0.105
3544,-0.315,-0.100
3545,-0.315,-0.090
3546,-0.335,-0.100
3547,-0.325,-0.090
3548,-0.325,-0.085
3549,-0.320,-0.090
3550,-0.310,-0.090
3551,-0.315,-0.080
3552,-0.320,-0.090
3553,-0.320,-0.085
3554,-0.310,-0.090
3555,-0.300,-0.100
3556,-0.295,-0.105
3557,-0.320,-0.100
3558,-0.335,-0.105
3559,-0.305,-0.100
3560,-0.275,-0.100
3561,-0.270,-0.105
3562,-0.270,-0.115
3563,-0.280,-0.110
3564,-0.305,-0.095
3565,-0.305,-0.090
3566,-0.275,-0.095
3567,-0.275,-0.100
3568,-0.275,-0.095
3569,-0.285,-0.110
3570,-0.290,-0.120
3571,-0.270,-0.120
3572,-0.215,-0.130
3573,-0.200,-0.140
3574,-0.185,-0.130
3575,-0.155,-0.120
3576,-0.135,-0.120
3577,-0.145,-0.130
3578,-0.175,-0.125
3579,-0.195,-0.140
3580,-0.215,-0.140
3581,-0.230,-0.145
3582,-0.245,-0.135
3583,-0.240,-0.130
3584,-0.240,-0.125
3585,-0.230,-0.125
3586,-0.230,-0.120
3587,-0.240,-0.115
3588,-0.255,-0.095
3589,-0.255,-0.095
3590,-0.270,-0.095
3591,-0.280,-0.095
3592,-0.285,-0.095
3593,-0.300,-0.090
3594,-0.315,-0.095
3595,-0.340,-0.085
3596,-0.340,-0.085
3597,-0.340,-0.095
3598,-0.330,-0.105
3599,-0.340,-0.100
3600,-0.360,-0.100
3601,-0.350,-0.110
3602,-0.335,-0.105
3603,-0.320,-0.105
3604,-0.345,-0.115
3605,-0.360,-0.120
3606,-0.370,-0.115
3607,-0.375,-0.105
3608,-0.385,-0.110
3609,-0.370,-0.110
3610,-0.355,-0.120
3611,-0.360,-0.125
3612,-0.375,-0.115
3613,-0.385,-0.105
3614,-0.360,-0.100
3615,-0.330,-0.110
3616,-0.330,-0.130
3617,-0.345,-0.145
3618,-0.385,-0.145
3619,-0.400,-0.125
3620,-0.415,-0.130
3621,-0.415,-0.140
3622,-0.420,-0.135
3623,-0.385,-0.140
3624,-0.280,-0.135
3625,-0.080,-0.120
3626,0.155,-0.110
3627,0.425,-0.120
3628,0.745,-0.140
3629,1.030,-0.160
3630,1.165,-0.155
3631,1.085,-0.170
3632,0.850,-0.195
3633,0.570,-0.205
3634,0.300,-0.200
3635,0.030,-0.165
3636,-0.145,-0.120
3637,-0.195,-0.060
3638,-0.220,-0.050
3639,-0.265,-0.055
3640,-0.305,-0.075
3641,-0.330,-0.090
3642,-0.335,-0.090
3643,-0.355,-0.070
3644,-0.380,-0.075
3645,-0.420,-0.090
3646,-0.445,-0.110
3647,-0.450,-0.105
3648,-0.460,-0.110
3649,-0.445,-0.110
3650,-0.435,-0.085
3651,-0.450,-0.110
3652,-0.450,-0.120
3653,-0.465,-0.130
3654,-0.475,-0.115
3655,-0.475,-0.105
3656,-0.475,-0.100
3657,-0.480,-0.115
3658,-0.470,-0.125
3659,-0.460,-0.145
3660,-0.465,-0.135
3661,-0.460,-0.130
3662,-0.440,-0.130
3663,-0.430,-0.140
3664,-0.430,-0.145
3665,-0.440,-0.150
3666,-0.450,-0.150
3667,-0.465,-0.135
3668,-0.480,-0.125
3669,-0.485,-0.135
3670,-0.485,-0.150
3671,-0.475,-0.135
3672,-0.480,-0.130
3673,-0.475,-0.120
3674,-0.465,-0.105
3675,-0.440,-0.115
3676,-0.450,-0.110
3677,-0.455,-0.115
3678,-0.455,-0.115
3679,-0.465,-0.090
3680,-0.450,-0.075
3681,-0.450,-0.080
3682,-0.465,-0.090
3683,-0.485,-0.095
3684,-0.485,-0.090
3685,-0.475,-0.075
3686,-0.470,-0.070
3687,-0.465,-0.085
3688,-0.465,-0.095
3689,-0.470,-0.115
3690,-0.470,-0.110
3691,-0.455,-0.105
3692,-0.450,-0.100
3693,-0.440,-0.115
3694,-0.440,-0.115
3695,-0.460,-0.125
3696,-0.475,-0.125
3697,-0.445,-0.115
3698,-0.445,-0.105
3699,-0.420,-0.110
3700,-0.420,-0.120
3701,-0.420,-0.130
3702,-0.430,-0.135
3703,-0.435,-0.110
3704,-0.420,-0.120
3705,-0.410,-0.135
3706,-0.410,-0.140
3707,-0.405,-0.160
3708,-0.405,-0.145
3709,-0.395,-0.130
3710,-0.385,-0.120
3711,-0.375,-0.145
3712,-0.365,-0.150
3713,-0.380,-0.150
3714,-0.385,-0.135
3715,-0.365,-0.130
3716,-0.350,-0.125
3717,-0.345,-0.140
3718,-0.335,-0.145
3719,-0.335,-0.140
3720,-0.330,-0.120
3721,-0.310,-0.105
3722,-0.305,-0.075
3723,-0.285,-0.085
3724,-0.275,-0.100
3725,-0.275,-0.110
3726,-0.280,-0.110
3727,-0.265,-0.095
3728,-0.255,-0.090
3729,-0.235,-0.100
3730,-0.200,-0.110
3731,-0.220,-0.105
3732,-0.230,-0.110
3733,-0.230,-0.100
3734,-0.225,-0.090
3735,-0.200,-0.115
3736,-0.190,-0.135
3737,-0.185,-0.145
3738,-0.200,-0.150
3739,-0.195,-0.120
3740,-0.185,-0.115
3741,-0.175,-0.120
3742,-0.180,-0.130
3743,-0.180,-0.135
3744,-0.185,-0.140
3745,-0.190,-0.140
3746,-0.175,-0.115
3747,-0.185,-0.130
3748,-0.200,-0.140
3749,-0.225,-0.160
3750,-0.245,-0.160
3751,-0.250,-0.145
3752,-0.245,-0.125
3753,-0.235,-0.135
3754,-0.245,-0.150
3755,-0.275,-0.160
3756,-0.290,-0.155
3757,-0.300,-0.135
3758,-0.295,-0.125
3759,-0.305,-0.115
3760,-0.305,-0.120
3761,-0.315,-0.155
3762,-0.335,-0.135
3763,-0.335,-0.125
3764,-0.340,-0.105
3765,-0.325,-0.090
3766,-0.335,-0.090
3767,-0.355,-0.105
3768,-0.365,-0.100
3769,-0.365,-0.095
3770,-0.355,-0.070
3771,-0.340,-0.065
3772,-0.355,-0.065
3773,-0.350,-0.095
3774,-0.360,-0.085
3775,-0.360,-0.060
3776,-0.350,-0.060
3777,-0.365,-0.050
3778,-0.370,-0.075
3779,-0.370,-0.095
3780,-0.370,-0.105
3781,-0.365,-0.100
3782,-0.350,-0.090
3783,-0.345,-0.085
3784,-0.355,-0.095
3785,-0.375,-0.110
3786,-0.385,-0.110
3787,-0.390,-0.095
3788,-0.365,-0.075
3789,-0.345,-0.075
3790,-0.340,-0.085
3791,-0.350,-0.100
3792,-0.360,-0.110
3793,-0.350,-0.110
3794,-0.345,-0.095
3795,-0.330,-0.105
3796,-0.340,-0.110
3797,-0.345,-0.130
3798,-0.365,-0.145
3799,-0.350,-0.135
3800,-0.330,-0.125
3801,-0.315,-0.110
3802,-0.325,-0.105
3803,-0.330,-0.130
3804,-0.345,-0.130
3805,-0.335,-0.125
3806,-0.330,-0.115
3807,-0.320,-0.110
3808,-0.315,-0.115
3809,-0.335,-0.120
3810,-0.330,-0.105
3811,-0.335,-0.100
3812,-0.320,-0.090
3813,-0.320,-0.085
3814,-0.315,-0.070
3815,-0.320,-0.085
3816,-0.320,-0.090
3817,-0.325,-0.090
3818,-0.325,-0.060
3819,-0.325,-0.060
3820,-0.320,-0.050
3821,-0.325,-0.075
3822,-0.335,-0.075
3823,-0.325,-0.085
3824,-0.320,-0.075
3825,-0.310,-0.095
3826,-0.315,-0.070
3827,-0.320,-0.100
3828,-0.340,-0.115
3829,-0.320,-0.105
3830,-0.320,-0.090
3831,-0.305,-0.090
3832,-0.310,-0.080
3833,-0.315,-0.095
3834,-0.340,-0.105
3835,-0.345,-0.100
3836,-0.320,-0.095
3837,-0.330,-0.095
3838,-0.315,-0.100
3839,-0.315,-0.125
3840,-0.330,-0.140
3841,-0.330,-0.145
3842,-0.330,-0.120
3843,-0.335,-0.110
3844,-0.335,-0.120
3845,-0.320,-0.125
3846,-0.330,-0.130
3847,-0.325,-0.125
3848,-0.320,-0.115
3849,-0.315,-0.110
3850,-0.325,-0.115
3851,-0.320,-0.115
3852,-0.340,-0.120
3853,-0.330,-0.115
3854,-0.330,-0.100
3855,-0.320,-0.085
3856,-0.330,-0.080
3857,-0.345,-0.085
3858,-0.335,-0.100
3859,-0.340,-0.085
3860,-0.325,-0.070
3861,-0.320,-0.065
3862,-0.315,-0.060
3863,-0.310,-0.075
3864,-0.330,-0.080
3865,-0.325,-0.080
3866,-0.320,-0.070
3867,-0.320,-0.060
3868,-0.325,-0.070
3869,-0.330,-0.085
3870,-0.345,-0.095
3871,-0.340,-0.095
3872,-0.325,-0.090
3873,-0.320,-0.085
3874,-0.335,-0.085
3875,-0.330,-0.100
3876,-0.345,-0.105
3877,-0.335,-0.095
3878,-0.325,-0.080
3879,-0.310,-0.085
3880,-0.315,-0.070
3881,-0.320,-0.100
3882,-0.335,-0.130
3883,-0.340,-0.125
3884,-0.320,-0.110
3885,-0.320,-0.110
3886,-0.320,-0.110
3887,-0.310,-0.115
3888,-0.310,-0.135
3889,-0.300,-0.135
3890,-0.300,-0.120
3891,-0.310,-0.105
3892,-0.315,-0.105
3893,-0.325,-0.130
3894,-0.320,-0.130
3895,-0.310,-0.115
3896,-0.285,-0.095
3897,-0.270,-0.080
3898,-0.285,-0.080
3899,-0.285,-0.090
3900,-0.300,-0.095
3901,-0.290,-0.075
3902,-0.260,-0.065
3903,-0.235,-0.045
3904,-0.215,-0.055
3905,-0.190,-0.080
3906,-0.170,-0.075
3907,-0.140,-0.070
3908,-0.135,-0.060
3909,-0.140,-0.045
3910,-0.170,-0.055
3911,-0.165,-0.085
3912,-0.175,-0.095
3913,-0.185,-0.090
3914,-0.195,-0.085
3915,-0.200,-0.085
3916,-0.205,-0.095
3917,-0.225,-0.115
3918,-0.225,-0.105
3919,-0.220,-0.110
3920,-0.215,-0.095
3921,-0.225,-0.085
3922,-0.235,-0.090
3923,-0.260,-0.115
3924,-0.280,-0.115
3925,-0.280,-0.120
3926,-0.295,-0.100
3927,-0.295,-0.105
3928,-0.305,-0.115
3929,-0.315,-0.130
3930,-0.325,-0.140
3931,-0.330,-0.140
3932,-0.315,-0.110
3933,-0.305,-0.105
3934,-0.300,-0.105
3935,-0.315,-0.130
3936,-0.335,-0.130
3937,-0.340,-0.120
3938,-0.330,-0.095
3939,-0.315,-0.095
3940,-0.320,-0.100
3941,-0.335,-0.115
3942,-0.340,-0.095
3943,-0.345,-0.085
3944,-0.340,-0.070
3945,-0.325,-0.055
3946,-0.335,-0.075
3947,-0.355,-0.085
3948,-0.365,-0.085
3949,-0.375,-0.075
3950,-0.385,-0.055
3951,-0.390,-0.040
3952,-0.395,-0.050
3953,-0.360,-0.075
3954,-0.245,-0.085
3955,-0.040,-0.080
3956,0.190,-0.065
3957,0.480,-0.055
3958,0.810,-0.090
3959,1.095,-0.130
3960,1.190,-0.165
3961,1.035,-0.200
3962,0.735,-0.210
3963,0.450,-0.190
3964,0.180,-0.175
3965,-0.015,-0.155
3966,-0.095,-0.120
3967,-0.110,-0.080
3968,-0.135,-0.070
3969,-0.165,-0.090
3970,-0.190,-0.110
3971,-0.225,-0.140
3972,-0.245,-0.125
3973,-0.270,-0.115
3974,-0.305,-0.105
3975,-0.325,-0.100
3976,-0.365,-0.125
3977,-0.380,-0.130
3978,-0.395,-0.125
3979,-0.390,-0.120
3980,-0.385,-0.100
3981,-0.375,-0.105
3982,-0.385,-0.115
3983,-0.395,-0.125
3984,-0.410,-0.115
3985,-0.405,-0.085
3986,-0.400,-0.065
3987,-0.395,-0.070
3988,-0.400,-0.090
3989,-0.420,-0.075
3990,-0.420,-0.090
3991,-0.410,-0.070
3992,-0.405,-0.050
3993,-0.405,-0.050
3994,-0.405,-0.070
3995,-0.405,-0.105
3996,-0.400,-0.090
3997,-0.390,-0.060
3998,-0.385,-0.065
3999,-0.400,-0.075
4000,-0.405,-0.085
4001,-0.400,-0.100
4002,-0.415,-0.090
4003,-0.400,-0.085
4004,-0.420,-0.080
4005,-0.385,-0.080
4006,-0.390,-0.090
4007,-0.385,-0.115
4008,-0.400,-0.100
4009,-0.385,-0.085
4010,-0.390,-0.065
4011,-0.395,-0.080
4012,-0.410,-0.115
4013,-0.415,-0.140
4014,-0.415,-0.120
4015,-0.415,-0.120
4016,-0.395,-0.105
4017,-0.390,-0.115
4018,-0.380,-0.125
4019,-0.380,-0.120
4020,-0.395,-0.120
4021,-0.390,-0.105
4022,-0.375,-0.105
4023,-0.370,-0.125
4024,-0.365,-0.120
4025,-0.390,-0.125
4026,-0.400,-0.110
4027,-0.395,-0.085
4028,-0.380,-0.070
4029,-0.365,-0.085
4030,-0.365,-0.080
4031,-0.365,-0.100
4032,-0.370,-0.090
4033,-0.355,-0.070
4034,-0.345,-0.050
4035,-0.345,-0.070
4036,-0.340,-0.070
4037,-0.345,-0.085
4038,-0.350,-0.080
4039,-0.335,-0.075
4040,-0.320,-0.060
4041,-0.305,-0.070
4042,-0.295,-0.095
4043,-0.295,-0.095
4044,-0.310,-0.095
4045,-0.280,-0.105
4046,-0.265,-0.090
4047,-0.245,-0.090
4048,-0.235,-0.115
4049,-0.245,-0.115
4050,-0.250,-0.105
4051,-0.240,-0.085
4052,-0.205,-0.100
4053,-0.190,-0.100
4054,-0.180,-0.115
4055,-0.165,-0.125
4056,-0.155,-0.125
4057,-0.160,-0.130
4058,-0.145,-0.125
4059,-0.140,-0.135
4060,-0.145,-0.145
4061,-0.135,-0.140
4062,-0.155,-0.135
4063,-0.155,-0.125
4064,-0.125,-0.140
4065,-0.115,-0.140
4066,-0.105,-0.140
4067,-0.105,-0.140
4068,-0.115,-0.130
4069,-0.115,-0.125
4070,-0.100,-0.110
4071,-0.105,-0.105
4072,-0.130,-0.110
4073,-0.145,-0.105
4074,-0.175,-0.105
4075,-0.170,-0.085
4076,-0.175,-0.090
4077,-0.170,-0.090
4078,-0.190,-0.080
4079,-0.215,-0.085
4080,-0.220,-0.090
4081,-0.230,-0.090
4082,-0.235,-0.085
4083,-0.240,-0.090
4084,-0.260,-0.075
4085,-0.280,-0.080
4086,-0.290,-0.090
4087,-0.300,-0.105
4088,-0.280,-0.085
4089,-0.285,-0.090
4090,-0.300,-0.085
4091,-0.310,-0.095
4092,-0.330,-0.095
4093,-0.335,-0.100
4094,-0.320,-0.095
4095,-0.310,-0.090
4096,-0.325,-0.090
4097,-0.325,-0.110
4098,-0.340,-0.140
4099,-0.340,-0.125
4100,-0.325,-0.110
4101,-0.310,-0.110
4102,-0.310,-0.100
4103,-0.330,-0.115
4104,-0.345,-0.130
4105,-0.340,-0.135
4106,-0.335,-0.105
4107,-0.335,-0.100
4108,-0.315,-0.105
4109,-0.325,-0.125
4110,-0.335,-0.125
4111,-0.340,-0.090
4112,-0.325,-0.085
4113,-0.300,-0.070
4114,-0.300,-0.065
4115,-0.320,-0.075
4116,-0.335,-0.085
4117,-0.320,-0.065
4118,-0.305,-0.060
4119,-0.305,-0.055
4120,-0.310,-0.055
4121,-0.315,-0.080
4122,-0.320,-0.090
4123,-0.315,-0.080
4124,-0.305,-0.060
4125,-0.300,-0.060
4126,-0.290,-0.065
4127,-0.295,-0.075
4128,-0.305,-0.095
4129,-0.285,-0.080
4130,-0.280,-0.080
4131,-0.280,-0.080
4132,-0.295,-0.080
4133,-0.315,-0.090
4134,-0.325,-0.105
4135,-0.315,-0.100
4136,-0.295,-0.080
4137,-0.285,-0.075
4138,-0.270,-0.080
4139,-0.280,-0.090
4140,-0.300,-0.100
4141,-0.295,-0.095
4142,-0.280,-0.090
4143,-0.270,-0.095
4144,-0.270,-0.105
4145,-0.285,-0.135
4146,-0.300,-0.130
4147,-0.295,-0.130
4148,-0.280,-0.100
4149,-0.275,-0.105
4150,-0.275,-0.120
4151,-0.280,-0.125
4152,-0.290,-0.125
4153,-0.275,-0.105
4154,-0.270,-0.090
4155,-0.265,-0.075
4156,-0.275,-0.075
4157,-0.290,-0.080
4158,-0.295,-0.090
4159,-0.295,-0.065
4160,-0.285,-0.055
4161,-0.270,-0.055
4162,-0.280,-0.060
4163,-0.290,-0.080
4164,-0.300,-0.080
4165,-0.285,-0.070
4166,-0.275,-0.040
4167,-0.275,-0.045
4168,-0.275,-0.065
4169,-0.285,-0.080
4170,-0.285,-0.100
4171,-0.295,-0.090
4172,-0.285,-0.075
4173,-0.275,-0.080
4174,-0.280,-0.080
4175,-0.280,-0.115
4176,-0.300,-0.105
4177,-0.290,-0.090
4178,-0.290,-0.085
4179,-0.280,-0.080
4180,-0.275,-0.090
4181,-0.290,-0.100
4182,-0.305,-0.095
4183,-0.275,-0.105
4184,-0.265,-0.095
4185,-0.260,-0.095
4186,-0.260,-0.105
4187,-0.275,-0.125
4188,-0.295,-0.140
4189,-0.285,-0.120
4190,-0.280,-0.100
4191,-0.265,-0.100
4192,-0.275,-0.105
4193,-0.295,-0.120
4194,-0.300,-0.125
4195,-0.285,-0.110
4196,-0.285,-0.080
4197,-0.275,-0.090
4198,-0.275,-0.095
4199,-0.280,-0.100
4200,-0.285,-0.100
4201,-0.285,-0.070
4202,-0.280,-0.055
4203,-0.290,-0.060
4204,-0.270,-0.070
4205,-0.285,-0.075
4206,-0.285,-0.075
4207,-0.285,-0.055
4208,-0.280,-0.050
4209,-0.275,-0.050
4210,-0.270,-0.060
4211,-0.285,-0.080
4212,-0.290,-0.090
4213,-0.280,-0.085
4214,-0.280,-0.075
4215,-0.260,-0.075
4216,-0.255,-0.075
4217,-0.270,-0.095
4218,-0.280,-0.095
4219,-0.270,-0.080
4220,-0.255,-0.065
4221,-0.250,-0.060
4222,-0.250,-0.075
4223,-0.250,-0.095
4224,-0.245,-0.095
4225,-0.245,-0.075
4226,-0.225,-0.060
4227,-0.200,-0.080
4228,-0.180,-0.100
4229,-0.170,-0.110
4230,-0.150,-0.125
4231,-0.120,-0.095
4232,-0.090,-0.090
4233,-0.090,-0.080
4234,-0.105,-0.095
4235,-0.120,-0.125
4236,-0.145,-0.120
4237,-0.155,-0.110
4238,-0.165,-0.090
4239,-0.160,-0.090
4240,-0.160,-0.105
4241,-0.160,-0.105
4242,-0.165,-0.100
4243,-0.160,-0.080
4244,-0.165,-0.065
4245,-0.190,-0.060
4246,-0.205,-0.070
4247,-0.230,-0.075
4248,-0.250,-0.065
4249,-0.260,-0.060
4250,-0.285,-0.055
4251,-0.270,-0.070
4252,-0.265,-0.065
4253,-0.265,-0.070
4254,-0.270,-0.070
4255,-0.260,-0.065
4256,-0.255,-0.065
4257,-0.265,-0.090
4258,-0.265,-0.075
4259,-0.290,-0.085
4260,-0.300,-0.090
4261,-0.290,-0.080
4262,-0.280,-0.085
4263,-0.275,-0.085
4264,-0.270,-0.090
4265,-0.280,-0.085
4266,-0.285,-0.085
4267,-0.295,-0.080
4268,-0.290,-0.080
4269,-0.275,-0.100
4270,-0.275,-0.105
4271,-0.295,-0.105
4272,-0.325,-0.110
4273,-0.340,-0.095
4274,-0.355,-0.095
4275,-0.320,-0.105
4276,-0.260,-0.090
4277,-0.130,-0.100
4278,0.030,-0.100
4279,0.285,-0.095
4280,0.600,-0.090
4281,0.950,-0.120
4282,1.190,-0.150
4283,1.215,-0.180
4284,0.995,-0.210
4285,0.670,-0.210
4286,0.375,-0.195
4287,0.170,-0.160
4288,0.055,-0.105
4289,0.020,-0.065
4290,0.005,-0.050
4291,-0.025,-0.050
4292,-0.050,-0.065
4293,-0.070,-0.060
4294,-0.105,-0.060
4295,-0.145,-0.065
4296,-0.210,-0.065
4297,-0.245,-0.065
4298,-0.275,-0.060
4299,-0.280,-0.065
4300,-0.285,-0.070
4301,-0.300,-0.075
4302,-0.320,-0.080
4303,-0.320,-0.085
4304,-0.330,-0.080
4305,-0.315,-0.075
4306,-0.320,-0.070
4307,-0.330,-0.085
4308,-0.345,-0.095
4309,-0.340,-0.080
4310,-0.335,-0.080
4311,-0.345,-0.090
4312,-0.340,-0.080
4313,-0.340,-0.105
4314,-0.355,-0.090
4315,-0.350,-0.100
4316,-0.355,-0.105
4317,-0.345,-0.110
4318,-0.350,-0.125
4319,-0.365,-0.115
4320,-0.360,-0.115
4321,-0.365,-0.105
4322,-0.345,-0.105
4323,-0.345,-0.110
4324,-0.340,-0.115
4325,-0.350,-0.115
4326,-0.365,-0.090
4327,-0.350,-0.105
4328,-0.350,-0.085
4329,-0.330,-0.090
4330,-0.330,-0.075
4331,-0.340,-0.080
4332,-0.350,-0.070
4333,-0.345,-0.070
4334,-0.350,-0.055
4335,-0.325,-0.065
4336,-0.320,-0.060
4337,-0.315,-0.065
4338,-0.345,-0.065
4339,-0.350,-0.065
4340,-0.340,-0.050
4341,-0.330,-0.070
4342,-0.330,-0.065
4343,-0.335,-0.080
4344,-0.335,-0.095
4345,-0.330,-0.095
4346,-0.330,-0.080
4347,-0.315,-0.085
4348,-0.315,-0.080
4349,-0.315,-0.090
4350,-0.315,-0.100
4351,-0.315,-0.085
4352,-0.295,-0.095
4353,-0.290,-0.085
4354,-0.305,-0.080
4355,-0.310,-0.085
4356,-0.315,-0.090
4357,-0.290,-0.100
4358,-0.270,-0.120
4359,-0.255,-0.125
4360,-0.260,-0.115
4361,-0.270,-0.115
4362,-0.290,-0.120
4363,-0.285,-0.130
4364,-0.260,-0.120
4365,-0.250,-0.110
4366,-0.250,-0.105
4367,-0.235,-0.105
4368,-0.245,-0.110
4369,-0.225,-0.120
4370,-0.215,-0.105
4371,-0.185,-0.100
4372,-0.185,-0.090
4373,-0.190,-0.080
4374,-0.200,-0.090
4375,-0.210,-0.080
4376,-0.190,-0.085
4377,-0.170,-0.075
4378,-0.175,-0.075
4379,-0.155,-0.080
4380,-0.150,-0.085
4381,-0.135,-0.085
4382,-0.120,-0.075
4383,-0.100,-0.065
4384,-0.085,-0.065
4385,-0.085,-0.085
4386,-0.090,-0.120
4387,-0.090,-0.110
4388,-0.075,-0.100
4389,-0.060,-0.110
4390,-0.050,-0.100
4391,-0.065,-0.125
4392,-0.085,-0.130
4393,-0.070,-0.115
4394,-0.055,-0.115
4395,-0.070,-0.100
4396,-0.075,-0.105
4397,-0.090,-0.115
4398,-0.105,-0.140
4399,-0.115,-0.135
4400,-0.115,-0.130
4401,-0.125,-0.120
4402,-0.130,-0.125
4403,-0.155,-0.150
4404,-0.170,-0.145
4405,-0.165,-0.145
4406,-0.175,-0.130
4407,-0.175,-0.115
4408,-0.195,-0.110
4409,-0.210,-0.130
4410,-0.225,-0.140
4411,-0.235,-0.140
4412,-0.230,-0.120
4413,-0.240,-0.095
4414,-0.220,-0.085
4415,-0.230,-0.090
4416,-0.235,-0.085
4417,-0.245,-0.085
4418,-0.230,-0.085
4419,-0.235,-0.075
4420,-0.235,-0.075
4421,-0.245,-0.085
4422,-0.265,-0.075
4423,-0.260,-0.065
4424,-0.250,-0.060
4425,-0.245,-0.055
4426,-0.260,-0.065
4427,-0.275,-0.080
4428,-0.285,-0.090
4429,-0.275,-0.090
4430,-0.260,-0.075
4431,-0.255,-0.085
4432,-0.250,-0.075
4433,-0.250,-0.100
4434,-0.250,-0.105
4435,-0.240,-0.095
4436,-0.240,-0.075
4437,-0.245,-0.070
4438,-0.265,-0.080
4439,-0.275,-0.090
4440,-0.285,-0.110
4441,-0.275,-0.085
4442,-0.265,-0.085
4443,-0.260,-0.100
4444,-0.260,-0.105
4445,-0.260,-0.120
4446,-0.265,-0.130
4447,-0.255,-0.120
4448,-0.250,-0.105
4449,-0.240,-0.090
4450,-0.250,-0.105
4451,-0.250,-0.120
4452,-0.245,-0.130
4453,-0.245,-0.110
4454,-0.235,-0.085
4455,-0.225,-0.095
4456,-0.220,-0.095
4457,-0.235,-0.115
4458,-0.260,-0.110
4459,-0.245,-0.085
4460,-0.235,-0.055
4461,-0.230,-0.060
4462,-0.225,-0.065
4463,-0.230,-0.070
4464,-0.235,-0.075
4465,-0.240,-0.070
4466,-0.225,-0.045
4467,-0.215,-0.050
4468,-0.220,-0.055
4469,-0.220,-0.070
4470,-0.240,-0.070
4471,-0.240,-0.080
4472,-0.250,-0.060
4473,-0.240,-0.070
4474,-0.250,-0.080
4475,-0.245,-0.105
4476,-0.255,-0.110
4477,-0.235,-0.100
4478,-0.240,-0.075
4479,-0.240,-0.075
4480,-0.240,-0.085
4481,-0.235,-0.095
4482,-0.240,-0.105
4483,-0.225,-0.085
4484,-0.215,-0.075
4485,-0.225,-0.075
4486,-0.235,-0.100
4487,-0.245,-0.115
4488,-0.255,-0.135
4489,-0.245,-0.115
4490,-0.230,-0.110
4491,-0.225,-0.100
4492,-0.215,-0.105
4493,-0.235,-0.140
4494,-0.240,-0.130
4495,-0.255,-0.125
4496,-0.245,-0.100
4497,-0.240,-0.095
4498,-0.245,-0.105
4499,-0.240,-0.110
4500,-0.250,-0.120
4501,-0.250,-0.115
4502,-0.240,-0.080
4503,-0.245,-0.075
4504,-0.245,-0.080
4505,-0.240,-0.085
4506,-0.250,-0.095
4507,-0.250,-0.075
4508,-0.250,-0.060
4509,-0.240,-0.050
4510,-0.235,-0.055
4511,-0.240,-0.070
4512,-0.240,-0.075
4513,-0.240,-0.070
4514,-0.235,-0.055
4515,-0.225,-0.060
4516,-0.215,-0.070
4517,-0.240,-0.090
4518,-0.235,-0.100
4519,-0.250,-0.085
4520,-0.245,-0.075
4521,-0.230,-0.070
4522,-0.235,-0.065
4523,-0.235,-0.095
4524,-0.245,-0.100
4525,-0.255,-0.090
4526,-0.240,-0.080
4527,-0.240,-0.070
4528,-0.215,-0.080
4529,-0.225,-0.095
4530,-0.245,-0.115
4531,-0.245,-0.120
4532,-0.235,-0.100
4533,-0.225,-0.115
4534,-0.225,-0.115
4535,-0.235,-0.140
4536,-0.250,-0.135
4537,-0.245,-0.120
4538,-0.240,-0.105
4539,-0.230,-0.105
4540,-0.215,-0.105
4541,-0.225,-0.115
4542,-0.220,-0.120
4543,-0.220,-0.110
4544,-0.210,-0.085
4545,-0.185,-0.075
4546,-0.180,-0.075
4547,-0.190,-0.085
4548,-0.190,-0.085
4549,-0.195,-0.070
4550,-0.195,-0.050
4551,-0.175,-0.050
4552,-0.175,-0.080
4553,-0.155,-0.095
4554,-0.140,-0.085
4555,-0.100,-0.055
4556,-0.060,-0.040
4557,-0.040,-0.055
4558,-0.060,-0.070
4559,-0.080,-0.095
4560,-0.095,-0.085
4561,-0.090,-0.090
4562,-0.085,-0.080
4563,-0.090,-0.085
4564,-0.110,-0.100
4565,-0.125,-0.110
4566,-0.125,-0.110
4567,-0.135,-0.095
4568,-0.135,-0.085
4569,-0.125,-0.095
4570,-0.140,-0.095
4571,-0.160,-0.115
4572,-0.175,-0.110
4573,-0.185,-0.110
4574,-0.205,-0.105
4575,-0.225,-0.125
4576,-0.230,-0.130
4577,-0.230,-0.135
4578,-0.245,-0.145
4579,-0.250,-0.115
4580,-0.255,-0.115
4581,-0.240,-0.130
4582,-0.240,-0.125
4583,-0.245,-0.135
4584,-0.265,-0.115
4585,-0.250,-0.115
4586,-0.250,-0.100
4587,-0.245,-0.105
4588,-0.245,-0.100
4589,-0.270,-0.105
4590,-0.280,-0.105
4591,-0.255,-0.075
4592,-0.270,-0.075
4593,-0.250,-0.070
4594,-0.255,-0.090
4595,-0.260,-0.090
4596,-0.265,-0.085
4597,-0.275,-0.065
4598,-0.290,-0.065
4599,-0.305,-0.065
4600,-0.325,-0.080
4601,-0.330,-0.085
4602,-0.315,-0.080
4603,-0.225,-0.060
4604,-0.045,-0.065
4605,0.185,-0.075
4606,0.465,-0.095
4607,0.795,-0.120
4608,1.085,-0.150
4609,1.155,-0.175
4610,0.995,-0.225
4611,0.705,-0.245
4612,0.395,-0.235
4613,0.150,-0.195
4614,0.050,-0.155
4615,0.055,-0.105
4616,0.035,-0.090
4617,0.000,-0.125
4618,-0.060,-0.125
4619,-0.115,-0.115
4620,-0.170,-0.120
4621,-0.225,-0.120
4622,-0.255,-0.125
4623,-0.270,-0.125
4624,-0.275,-0.125
4625,-0.305,-0.135
4626,-0.330,-0.130
4627,-0.350,-0.125
4628,-0.345,-0.110
4629,-0.345,-0.100
4630,-0.345,-0.095
4631,-0.345,-0.080
4632,-0.360,-0.095
4633,-0.355,-0.090
4634,-0.360,-0.090
4635,-0.340,-0.075
4636,-0.345,-0.060
4637,-0.350,-0.075
4638,-0.355,-0.075
4639,-0.375,-0.090
4640,-0.365,-0.075
4641,-0.355,-0.070
4642,-0.355,-0.065
4643,-0.360,-0.090
4644,-0.380,-0.100
4645,-0.380,-0.105
4646,-0.345,-0.090
4647,-0.345,-0.080
4648,-0.355,-0.090
4649,-0.360,-0.100
4650,-0.380,-0.110
4651,-0.370,-0.105
4652,-0.355,-0.090
4653,-0.345,-0.080
4654,-0.360,-0.090
4655,-0.365,-0.090
4656,-0.360,-0.115
4657,-0.360,-0.120
4658,-0.355,-0.100
4659,-0.335,-0.105
4660,-0.350,-0.110
4661,-0.365,-0.130
4662,-0.360,-0.135
4663,-0.360,-0.125
4664,-0.340,-0.105
4665,-0.330,-0.105
4666,-0.340,-0.120
4667,-0.350,-0.125
4668,-0.370,-0.125
4669,-0.360,-0.115
4670,-0.340,-0.095
4671,-0.315,-0.095
4672,-0.320,-0.080
4673,-0.335,-0.095
4674,-0.345,-0.100
4675,-0.340,-0.080
4676,-0.320,-0.065
4677,-0.315,-0.065
4678,-0.295,-0.065
4679,-0.305,-0.080
4680,-0.310,-0.080
4681,-0.310,-0.065
4682,-0.295,-0.055
4683,-0.290,-0.065
4684,-0.290,-0.080
4685,-0.285,-0.095
4686,-0.295,-0.110
4687,-0.285,-0.090
4688,-0.285,-0.095
4689,-0.265,-0.090
4690,-0.250,-0.090
4691,-0.230,-0.105
4692,-0.230,-0.095
4693,-0.220,-0.075
4694,-0.210,-0.075
4695,-0.195,-0.090
4696,-0.210,-0.110
4697,-0.200,-0.110
4698,-0.205,-0.110
4699,-0.190,-0.115
4700,-0.175,-0.105
4701,-0.165,-0.125
4702,-0.150,-0.130
4703,-0.145,-0.140
4704,-0.150,-0.135
4705,-0.145,-0.145
4706,-0.130,-0.140
4707,-0.100,-0.150
4708,-0.100,-0.145
4709,-0.105,-0.140
4710,-0.105,-0.145
4711,-0.105,-0.140
4712,-0.100,-0.125
4713,-0.085,-0.130
4714,-0.080,-0.130
4715,-0.090,-0.125
4716,-0.100,-0.110
4717,-0.115,-0.100
4718,-0.110,-0.095
4719,-0.105,-0.105
4720,-0.125,-0.100
4721,-0.140,-0.100
4722,-0.160,-0.105
4723,-0.175,-0.100
4724,-0.170,-0.105
4725,-0.175,-0.090
4726,-0.180,-0.085
4727,-0.180,-0.110
4728,-0.200,-0.100
4729,-0.220,-0.095
4730,-0.225,-0.100
4731,-0.220,-0.100
4732,-0.220,-0.100
4733,-0.220,-0.110
4734,-0.235,-0.120
4735,-0.255,-0.115
4736,-0.255,-0.115
4737,-0.255,-0.110
4738,-0.255,-0.105
4739,-0.260,-0.115
4740,-0.255,-0.125
4741,-0.275,-0.115
4742,-0.290,-0.120
4743,-0.290,-0.115
4744,-0.285,-0.125
4745,-0.280,-0.130
4746,-0.295,-0.150
4747,-0.295,-0.140
4748,-0.285,-0.120
4749,-0.265,-0.125
4750,-0.275,-0.115
4751,-0.275,-0.135
4752,-0.290,-0.140
4753,-0.305,-0.135
4754,-0.300,-0.105
4755,-0.265,-0.095
4756,-0.240,-0.085
4757,-0.260,-0.105
4758,-0.265,-0.095
4759,-0.275,-0.105
4760,-0.260,-0.075
4761,-0.255,-0.070
4762,-0.265,-0.065
4763,-0.260,-0.080
4764,-0.255,-0.080
4765,-0.265,-0.085
4766,-0.260,-0.065
4767,-0.235,-0.070
4768,-0.240,-0.080
4769,-0.245,-0.105
4770,-0.265,-0.120
4771,-0.250,-0.105
4772,-0.245,-0.100
4773,-0.245,-0.085
4774,-0.245,-0.105
4775,-0.245,-0.115
4776,-0.255,-0.130
4777,-0.245,-0.115
4778,-0.235,-0.085
4779,-0.225,-0.085
4780,-0.230,-0.090
4781,-0.240,-0.125
4782,-0.240,-0.130
4783,-0.245,-0.125
4784,-0.240,-0.135
4785,-0.230,-0.125
4786,-0.240,-0.140
4787,-0.235,-0.160
4788,-0.230,-0.160
4789,-0.255,-0.140
4790,-0.255,-0.120
4791,-0.220,-0.130
4792,-0.225,-0.140
4793,-0.235,-0.155
4794,-0.245,-0.150
4795,-0.255,-0.125
4796,-0.265,-0.100
4797,-0.245,-0.110
4798,-0.245,-0.110
4799,-0.245,-0.105
4800,-0.250,-0.105
4801,-0.240,-0.095
4802,-0.245,-0.090
4803,-0.255,-0.080
4804,-0.265,-0.090
4805,-0.250,-0.110
4806,-0.250,-0.095
4807,-0.255,-0.085
4808,-0.245,-0.085
4809,-0.240,-0.095
4810,-0.245,-0.100
4811,-0.245,-0.110
4812,-0.255,-0.120
4813,-0.265,-0.110
4814,-0.240,-0.105
4815,-0.230,-0.115
4816,-0.230,-0.115
4817,-0.245,-0.130
4818,-0.250,-0.120
4819,-0.255,-0.115
4820,-0.250,-0.110
4821,-0.235,-0.120
4822,-0.255,-0.110
4823,-0.260,-0.115
4824,-0.265,-0.125
4825,-0.275,-0.120
4826,-0.265,-0.135
4827,-0.260,-0.160
4828,-0.250,-0.135
4829,-0.255,-0.135
4830,-0.270,-0.125
4831,-0.290,-0.140
4832,-0.265,-0.135
4833,-0.255,-0.135
4834,-0.250,-0.150
4835,-0.270,-0.125
4836,-0.270,-0.125
4837,-0.265,-0.125
4838,-0.245,-0.105
4839,-0.240,-0.110
4840,-0.250,-0.095
4841,-0.265,-0.105
4842,-0.275,-0.095
4843,-0.280,-0.080
4844,-0.265,-0.090
4845,-0.250,-0.075
4846,-0.245,-0.085
4847,-0.245,-0.080
4848,-0.265,-0.075
4849,-0.270,-0.080
4850,-0.255,-0.085
4851,-0.245,-0.080
4852,-0.250,-0.095
4853,-0.260,-0.085
4854,-0.280,-0.085
4855,-0.285,-0.090
4856,-0.275,-0.090
4857,-0.265,-0.105
4858,-0.270,-0.105
4859,-0.265,-0.105
4860,-0.285,-0.100
4861,-0.265,-0.095
4862,-0.240,-0.075
4863,-0.245,-0.090
4864,-0.260,-0.080
4865,-0.275,-0.095
4866,-0.275,-0.100
4867,-0.280,-0.110
4868,-0.265,-0.115
4869,-0.255,-0.120
4870,-0.255,-0.120
4871,-0.240,-0.130
4872,-0.220,-0.120
4873,-0.190,-0.105
4874,-0.140,-0.100
4875,-0.100,-0.110
4876,-0.105,-0.120
4877,-0.120,-0.130
4878,-0.145,-0.120
4879,-0.160,-0.115
4880,-0.155,-0.100
4881,-0.160,-0.110
4882,-0.185,-0.105
4883,-0.190,-0.120
4884,-0.200,-0.110
4885,-0.210,-0.090
4886,-0.195,-0.095
4887,-0.180,-0.090
4888,-0.185,-0.090
4889,-0.195,-0.085
4890,-0.220,-0.080
4891,-0.250,-0.075
4892,-0.265,-0.070
4893,-0.260,-0.075
4894,-0.285,-0.075
4895,-0.300,-0.070
4896,-0.320,-0.075
4897,-0.330,-0.085
4898,-0.320,-0.085
4899,-0.305,-0.100
4900,-0.305,-0.100
4901,-0.305,-0.100
4902,-0.315,-0.100
4903,-0.325,-0.095
4904,-0.335,-0.090
4905,-0.335,-0.090
4906,-0.330,-0.090
4907,-0.340,-0.090
4908,-0.340,-0.100
4909,-0.360,-0.085
4910,-0.345,-0.090
4911,-0.345,-0.105
4912,-0.340,-0.090
4913,-0.355,-0.110
4914,-0.350,-0.115
4915,-0.355,-0.120
4916,-0.355,-0.120
4917,-0.360,-0.110
4918,-0.385,-0.105
4919,-0.385,-0.105
4920,-0.395,-0.100
4921,-0.355,-0.105
4922,-0.255,-0.090
4923,-0.075,-0.105
4924,0.105,-0.090
4925,0.335,-0.100
4926,0.635,-0.130
4927,0.895,-0.150
4928,0.950,-0.190
4929,0.755,-0.220
4930,0.430,-0.235
4931,0.150,-0.215
4932,-0.045,-0.180
4933,-0.160,-0.115
4934,-0.185,-0.075
4935,-0.185,-0.045
4936,-0.225,-0.055
4937,-0.240,-0.065
4938,-0.255,-0.070
4939,-0.305,-0.070
4940,-0.320,-0.070
4941,-0.360,-0.070
4942,-0.400,-0.065
4943,-0.420,-0.075
4944,-0.435,-0.095
4945,-0.440,-0.090
4946,-0.445,-0.080
4947,-0.445,-0.075
4948,-0.455,-0.065
4949,-0.485,-0.080
4950,-0.505,-0.100
4951,-0.500,-0.095
4952,-0.470,-0.090
4953,-0.465,-0.080
4954,-0.460,-0.065
4955,-0.480,-0.080
4956,-0.480,-0.105
4957,-0.475,-0.115
4958,-0.465,-0.100
4959,-0.460,-0.090
4960,-0.475,-0.095
4961,-0.490,-0.115
4962,-0.505,-0.125
4963,-0.505,-0.110
4964,-0.495,-0.095
4965,-0.480,-0.095
4966,-0.475,-0.090
4967,-0.510,-0.105
4968,-0.530,-0.105
4969,-0.520,-0.085
4970,-0.505,-0.070
4971,-0.500,-0.050
4972,-0.500,-0.060
4973,-0.510,-0.070
4974,-0.520,-0.080
4975,-0.515,-0.060
4976,-0.520,-0.045
4977,-0.535,-0.040
4978,-0.525,-0.060
4979,-0.520,-0.075
4980,-0.520,-0.085
4981,-0.525,-0.065
4982,-0.505,-0.050
4983,-0.485,-0.055
4984,-0.510,-0.075
4985,-0.550,-0.090
4986,-0.565,-0.095
4987,-0.550,-0.075
4988,-0.525,-0.060
4989,-0.500,-0.080
4990,-0.515,-0.085
4991,-0.525,-0.085
4992,-0.525,-0.075
4993,-0.520,-0.065
4994,-0.505,-0.060
4995,-0.480,-0.080
4996,-0.480,-0.090
4997,-0.495,-0.105
4998,-0.505,-0.105
4999,-0.500,-0.095
5000,-0.490,-0.090
5001,-0.475,-0.095
5002,-0.485,-0.105
5003,-0.500,-0.115
5004,-0.505,-0.105
5005,-0.485,-0.100
5006,-0.480,-0.095
5007,-0.470,-0.100
5008,-0.460,-0.095
5009,-0.460,-0.100
5010,-0.460,-0.090
5011,-0.450,-0.065
5012,-0.435,-0.060
5013,-0.425,-0.050
5014,-0.420,-0.050
5015,-0.405,-0.055
5016,-0.405,-0.055
5017,-0.385,-0.045
5018,-0.365,-0.040
5019,-0.355,-0.050
5020,-0.360,-0.055
5021,-0.360,-0.060
5022,-0.365,-0.065
5023,-0.365,-0.065
5024,-0.345,-0.055
5025,-0.320,-0.070
5026,-0.315,-0.065
5027,-0.330,-0.085
5028,-0.335,-0.085
5029,-0.350,-0.080
5030,-0.335,-0.080
5031,-0.305,-0.080
5032,-0.295,-0.095
5033,-0.295,-0.085
5034,-0.310,-0.090
5035,-0.310,-0.080
5036,-0.320,-0.090
5037,-0.320,-0.095
5038,-0.345,-0.090
5039,-0.345,-0.100
5040,-0.365,-0.115
5041,-0.370,-0.110
5042,-0.370,-0.105
5043,-0.375,-0.100
5044,-0.380,-0.105
5045,-0.390,-0.110
5046,-0.400,-0.110
5047,-0.425,-0.105
5048,-0.425,-0.110
5049,-0.420,-0.105
5050,-0.430,-0.080
5051,-0.435,-0.085
5052,-0.435,-0.070
5053,-0.445,-0.060
5054,-0.445,-0.050
5055,-0.450,-0.040
5056,-0.455,-0.035
5057,-0.465,-0.040
5058,-0.480,-0.050
5059,-0.485,-0.045
5060,-0.485,-0.025
5061,-0.470,-0.010
5062,-0.465,-0.015
5063,-0.475,-0.025
5064,-0.485,-0.050
5065,-0.485,-0.040
5066,-0.475,-0.035
5067,-0.470,-0.030
5068,-0.475,-0.025
5069,-0.465,-0.060
5070,-0.485,-0.065
5071,-0.485,-0.060
5072,-0.470,-0.040
5073,-0.455,-0.040
5074,-0.460,-0.030
5075,-0.465,-0.040
5076,-0.465,-0.060
5077,-0.475,-0.055
5078,-0.460,-0.040
5079,-0.440,-0.035
5080,-0.435,-0.045
5081,-0.450,-0.070
5082,-0.450,-0.100
5083,-0.440,-0.090
5084,-0.450,-0.065
5085,-0.435,-0.070
5086,-0.455,-0.075
5087,-0.440,-0.090
5088,-0.445,-0.075
5089,-0.440,-0.065
5090,-0.425,-0.045
5091,-0.420,-0.050
5092,-0.415,-0.055
5093,-0.420,-0.060
5094,-0.415,-0.060
5095,-0.405,-0.035
5096,-0.400,-0.015
5097,-0.395,-0.020
5098,-0.390,-0.025
5099,-0.405,-0.030
5100,-0.405,-0.025
5101,-0.400,-0.015
5102,-0.380,0.000
5103,-0.370,0.000
5104,-0.385,-0.005
5105,-0.370,-0.025
5106,-0.375,-0.025
5107,-0.375,-0.020
5108,-0.365,-0.020
5109,-0.350,-0.025
5110,-0.355,-0.035
5111,-0.345,-0.030
5112,-0.360,-0.040
5113,-0.365,-0.040
5114,-0.360,-0.030
5115,-0.340,-0.035
5116,-0.345,-0.040
5117,-0.340,-0.035
5118,-0.345,-0.035
5119,-0.360,-0.040
5120,-0.350,-0.030
5121,-0.345,-0.050
5122,-0.345,-0.055
5123,-0.335,-0.060
5124,-0.350,-0.050
5125,-0.355,-0.065
5126,-0.335,-0.060
5127,-0.335,-0.050
5128,-0.325,-0.050
5129,-0.320,-0.070
5130,-0.330,-0.055
5131,-0.325,-0.045
5132,-0.315,-0.040
5133,-0.305,-0.040
5134,-0.310,-0.050
5135,-0.310,-0.045
5136,-0.340,-0.020
5137,-0.350,-0.015
5138,-0.325,-0.015
5139,-0.315,-0.015
5140,-0.315,-0.015
5141,-0.340,-0.010
5142,-0.330,-0.010
5143,-0.330,0.000
5144,-0.310,0.005
5145,-0.310,0.000
5146,-0.315,0.000
5147,-0.330,-0.005
5148,-0.325,0.005
5149,-0.315,0.010
5150,-0.300,0.010
5151,-0.300,-0.010
5152,-0.290,-0.020
5153,-0.305,-0.015
5154,-0.320,-0.025
5155,-0.320,-0.010
5156,-0.300,-0.010
5157,-0.280,-0.025
5158,-0.285,-0.025
5159,-0.295,-0.025
5160,-0.295,-0.020
5161,-0.285,-0.020
5162,-0.285,-0.025
5163,-0.275,-0.020
5164,-0.285,-0.025
5165,-0.295,-0.045
5166,-0.290,-0.045
5167,-0.295,-0.045
5168,-0.275,-0.040
5169,-0.265,-0.045
5170,-0.265,-0.040
5171,-0.260,-0.045
5172,-0.280,-0.040
5173,-0.265,-0.030
5174,-0.260,-0.030
5175,-0.250,-0.035
5176,-0.240,-0.045
5177,-0.240,-0.035
5178,-0.255,-0.035
5179,-0.260,-0.025
5180,-0.245,0.000
5181,-0.220,0.000
5182,-0.185,-0.015
5183,-0.165,0.000
5184,-0.125,0.005
5185,-0.110,0.015
5186,-0.090,0.020
5187,-0.095,0.020
5188,-0.115,0.015
5189,-0.120,0.020
5190,-0.125,0.020
5191,-0.125,0.025
5192,-0.130,0.025
5193,-0.130,0.015
5194,-0.145,0.010
5195,-0.160,-0.005
5196,-0.175,-0.005
5197,-0.185,-0.005
5198,-0.170,-0.005
5199,-0.145,-0.010
5200,-0.160,-0.015
5201,-0.180,-0.010
5202,-0.205,-0.025
5203,-0.225,0.005
5204,-0.225,-0.005
5205,-0.220,-0.010
5206,-0.230,-0.015
5207,-0.225,-0.020
5208,-0.250,-0.015
5209,-0.265,-0.010
5210,-0.255,-0.020
5211,-0.245,-0.030
5212,-0.255,-0.045
5213,-0.265,-0.035
5214,-0.275,-0.050
5215,-0.255,-0.040
5216,-0.255,-0.030
5217,-0.240,-0.040
5218,-0.240,-0.030
5219,-0.255,-0.040
5220,-0.275,-0.035
5221,-0.270,-0.035
5222,-0.260,-0.025
5223,-0.240,-0.025
5224,-0.250,-0.025
5225,-0.260,-0.020
5226,-0.265,-0.010
5227,-0.255,0.000
5228,-0.255,0.020
5229,-0.285,0.015
5230,-0.320,0.010
5231,-0.350,-0.005
5232,-0.365,0.025
5233,-0.320,0.025
5234,-0.195,0.035
5235,-0.015,0.035
5236,0.220,0.020
5237,0.490,0.015
5238,0.810,-0.005
5239,1.100,-0.025
5240,1.250,-0.045
5241,1.155,-0.085
5242,0.890,-0.115
5243,0.605,-0.150
5244,0.345,-0.130
5245,0.130,-0.080
5246,0.045,-0.015
5247,0.040,0.000
5248,0.010,-0.010
5249,-0.040,-0.015
5250,-0.085,-0.025
5251,-0.095,0.000
5252,-0.115,0.005
5253,-0.150,-0.005
5254,-0.190,-0.025
5255,-0.220,-0.035
5256,-0.250,-0.040
5257,-0.270,-0.030
5258,-0.260,-0.020
5259,-0.260,-0.015
5260,-0.285,-0.040
5261,-0.300,-0.045
5262,-0.330,-0.035
5263,-0.340,-0.035
5264,-0.325,-0.025
5265,-0.310,-0.030
5266,-0.330,-0.030
5267,-0.325,-0.030
5268,-0.340,-0.025
5269,-0.330,0.000
5270,-0.325,0.000
5271,-0.320,-0.005
5272,-0.320,0.010
5273,-0.325,0.015
5274,-0.325,0.005
5275,-0.325,0.020
5276,-0.315,0.030
5277,-0.320,0.015
5278,-0.325,0.025
5279,-0.320,0.015
5280,-0.335,0.020
5281,-0.335,0.030
5282,-0.330,0.030
5283,-0.320,0.015
5284,-0.315,0.010
5285,-0.330,0.005
5286,-0.335,0.000
5287,-0.345,0.005
5288,-0.320,0.000
5289,-0.305,0.000
5290,-0.320,-0.005
5291,-0.330,-0.005
5292,-0.340,-0.005
5293,-0.335,0.005
5294,-0.335,0.000
5295,-0.310,0.000
5296,-0.310,0.010
5297,-0.320,-0.005
5298,-0.335,-0.015
5299,-0.330,-0.025
5300,-0.315,-0.020
5301,-0.305,-0.020
5302,-0.300,-0.015
5303,-0.305,-0.025
5304,-0.315,-0.030
5305,-0.315,-0.025
5306,-0.310,-0.020
5307,-0.295,-0.020
5308,-0.280,-0.015
5309,-0.280,-0.010
5310,-0.290,-0.030
5311,-0.285,-0.020
5312,-0.265,-0.025
5313,-0.255,-0.005
5314,-0.260,0.000
5315,-0.260,0.010
5316,-0.265,0.010
5317,-0.260,0.005
5318,-0.245,0.020
5319,-0.230,0.015
5320,-0.230,0.025
5321,-0.235,0.025
5322,-0.225,0.020
5323,-0.215,0.010
5324,-0.195,0.015
5325,-0.165,0.025
5326,-0.170,0.020
5327,-0.180,0.005
5328,-0.190,0.000
5329,-0.200,0.005
5330,-0.180,0.005
5331,-0.140,0.010
5332,-0.120,0.015
5333,-0.110,-0.005
5334,-0.115,-0.010
5335,-0.115,-0.020
5336,-0.095,-0.005
5337,-0.085,0.010
5338,-0.080,0.005
5339,-0.070,-0.005
5340,-0.065,-0.015
5341,-0.070,-0.035
5342,-0.070,-0.040
5343,-0.070,-0.020
5344,-0.065,-0.035
5345,-0.070,-0.055
5346,-0.060,-0.060
5347,-0.050,-0.065
5348,-0.040,-0.060
5349,-0.040,-0.040
5350,-0.070,-0.035
5351,-0.075,-0.050
5352,-0.080,-0.050
5353,-0.070,-0.050
5354,-0.075,-0.025
5355,-0.090,-0.020
5356,-0.125,-0.005
5357,-0.140,-0.010
5358,-0.160,-0.015
5359,-0.180,-0.005
5360,-0.170,0.015
5361,-0.170,0.025
5362,-0.165,0.030
5363,-0.185,0.015
5364,-0.200,0.010
5365,-0.210,0.015
5366,-0.205,0.030
5367,-0.210,0.030
5368,-0.220,0.035
5369,-0.225,0.025
5370,-0.235,0.010
5371,-0.245,-0.005
5372,-0.245,0.015
5373,-0.250,0.020
5374,-0.245,0.020
5375,-0.255,0.000
5376,-0.270,-0.010
5377,-0.275,-0.015
5378,-0.265,0.010
5379,-0.255,0.025
5380,-0.265,0.025
5381,-0.270,0.010
5382,-0.280,0.000
5383,-0.295,-0.010
5384,-0.280,-0.010
5385,-0.275,0.000
5386,-0.275,-0.010
5387,-0.270,-0.010
5388,-0.270,-0.025
5389,-0.285,-0.025
5390,-0.270,-0.015
5391,-0.260,-0.020
5392,-0.265,0.000
5393,-0.275,-0.005
5394,-0.285,-0.015
5395,-0.275,-0.035
5396,-0.250,-0.015
5397,-0.245,-0.005
5398,-0.245,0.005
5399,-0.250,0.000
5400,-0.260,0.000
5401,-0.270,0.000
5402,-0.260,0.010
5403,-0.250,0.025
5404,-0.260,0.035
5405,-0.265,0.035
5406,-0.270,0.030
5407,-0.260,0.015
5408,-0.255,0.025
5409,-0.250,0.045
5410,-0.255,0.035
5411,-0.260,0.030
5412,-0.260,0.015
5413,-0.255,0.015
5414,-0.235,0.020
5415,-0.235,0.020
5416,-0.235,0.020
5417,-0.240,0.020
5418,-0.245,0.000
5419,-0.265,0.000
5420,-0.245,-0.005
5421,-0.245,0.005
5422,-0.235,0.010
5423,-0.240,0.005
5424,-0.245,0.000
5425,-0.265,0.005
5426,-0.250,0.010
5427,-0.240,0.005
5428,-0.250,0.005
5429,-0.240,0.000
5430,-0.240,-0.010
5431,-0.240,-0.005
5432,-0.225,-0.010
5433,-0.215,-0.025
5434,-0.215,-0.015
5435,-0.225,-0.025
5436,-0.240,-0.025
5437,-0.255,-0.020
5438,-0.230,-0.015
5439,-0.210,-0.010
5440,-0.210,-0.010
5441,-0.230,-0.020
5442,-0.245,-0.020
5443,-0.240,-0.005
5444,-0.235,0.000
5445,-0.220,-0.005
5446,-0.225,-0.010
5447,-0.230,0.000
5448,-0.245,-0.005
5449,-0.260,0.020
5450,-0.245,0.025
5451,-0.240,0.025
5452,-0.235,0.015
5453,-0.240,0.015
5454,-0.245,0.020
5455,-0.240,0.035
5456,-0.230,0.050
5457,-0.225,0.040
5458,-0.220,0.030
5459,-0.230,0.015
5460,-0.255,0.015
5461,-0.240,0.030
5462,-0.230,0.030
5463,-0.220,0.015
5464,-0.240,0.005
5465,-0.250,-0.005
5466,-0.245,0.005
5467,-0.255,0.010
5468,-0.250,0.025
5469,-0.240,0.020
5470,-0.235,0.010
5471,-0.245,0.005
5472,-0.245,0.000
5473,-0.250,0.020
5474,-0.245,0.020
5475,-0.230,0.005
5476,-0.240,-0.010
5477,-0.245,-0.025
5478,-0.250,-0.040
5479,-0.255,-0.020
5480,-0.245,0.000
5481,-0.215,-0.005
5482,-0.230,-0.005
5483,-0.235,-0.030
5484,-0.250,-0.030
5485,-0.245,-0.010
5486,-0.240,0.000
5487,-0.230,0.000
5488,-0.235,-0.020
5489,-0.250,-0.030
5490,-0.275,-0.020
5491,-0.270,0.005
5492,-0.265,0.025
5493,-0.235,0.030
5494,-0.240,0.025
5495,-0.245,0.015
5496,-0.245,0.020
5497,-0.235,0.015
5498,-0.230,0.025
5499,-0.225,0.030
5500,-0.230,0.025
5501,-0.250,0.030
5502,-0.240,0.030
5503,-0.235,0.030
5504,-0.230,0.035
5505,-0.235,0.040
5506,-0.225,0.020
5507,-0.225,0.015
5508,-0.225,-0.005
5509,-0.205,0.005
5510,-0.165,0.025
5511,-0.115,0.025
5512,-0.090,0.010
5513,-0.085,0.000
5514,-0.100,0.000
5515,-0.125,-0.005
5516,-0.125,0.015
5517,-0.120,0.015
5518,-0.120,0.005
5519,-0.130,-0.025
5520,-0.150,-0.035
5521,-0.160,-0.035
5522,-0.155,-0.030
5523,-0.150,-0.025
5524,-0.155,-0.025
5525,-0.160,-0.040
5526,-0.175,-0.040
5527,-0.195,-0.045
5528,-0.190,-0.020
5529,-0.185,-0.015
5530,-0.190,-0.020
5531,-0.225,-0.045
5532,-0.250,-0.050
5533,-0.260,-0.035
5534,-0.260,-0.030
5535,-0.255,-0.010
5536,-0.265,-0.010
5537,-0.260,-0.020
5538,-0.265,-0.020
5539,-0.270,-0.010
5540,-0.275,0.010
5541,-0.280,0.015
5542,-0.285,0.025
5543,-0.285,0.000
5544,-0.290,-0.015
5545,-0.295,0.000
5546,-0.285,0.015
5547,-0.280,0.025
5548,-0.285,0.015
5549,-0.285,0.010
5550,-0.300,-0.015
5551,-0.315,-0.015
5552,-0.300,-0.010
5553,-0.280,0.010
5554,-0.280,0.010
5555,-0.305,-0.015
5556,-0.325,-0.030
5557,-0.360,-0.020
5558,-0.385,-0.010
5559,-0.400,0.010
5560,-0.405,0.010
5561,-0.340,-0.015
5562,-0.210,-0.020
5563,-0.015,-0.025
5564,0.230,0.005
5565,0.495,-0.005
5566,0.810,-0.040
5567,1.070,-0.065
5568,1.180,-0.115
5569,1.040,-0.165
5570,0.775,-0.175
5571,0.505,-0.160
5572,0.265,-0.150
5573,0.075,-0.115
5574,0.010,-0.100
5575,0.000,-0.065
5576,-0.025,-0.040
5577,-0.060,-0.045
5578,-0.100,-0.040
5579,-0.120,-0.040
5580,-0.165,-0.045
5581,-0.225,-0.035
5582,-0.265,-0.015
5583,-0.290,-0.010
5584,-0.325,-0.005
5585,-0.360,0.000
5586,-0.375,-0.025
5587,-0.375,-0.015
5588,-0.385,-0.005
5589,-0.385,0.015
5590,-0.390,0.010
5591,-0.390,0.010
5592,-0.405,0.000
5593,-0.415,0.000
5594,-0.420,-0.010
5595,-0.400,0.005
5596,-0.395,0.010
5597,-0.410,0.000
5598,-0.410,-0.020
5599,-0.420,-0.020
5600,-0.410,-0.015
5601,-0.400,-0.020
5602,-0.395,-0.005
5603,-0.420,-0.010
5604,-0.420,-0.030
5605,-0.420,-0.025
5606,-0.395,-0.025
5607,-0.400,-0.015
5608,-0.390,-0.015
5609,-0.400,-0.030
5610,-0.410,-0.030
5611,-0.400,-0.040
5612,-0.390,-0.045
5613,-0.380,-0.050
5614,-0.370,-0.060
5615,-0.390,-0.050
5616,-0.405,-0.045
5617,-0.410,-0.060
5618,-0.415,-0.065
5619,-0.395,-0.065
5620,-0.400,-0.070
5621,-0.410,-0.065
5622,-0.395,-0.060
5623,-0.410,-0.050
5624,-0.400,-0.060
5625,-0.405,-0.050
5626,-0.405,-0.040
5627,-0.405,-0.040
5628,-0.405,-0.045
5629,-0.405,-0.045
5630,-0.390,-0.020
5631,-0.365,-0.005
5632,-0.365,-0.010
5633,-0.380,-0.015
5634,-0.370,-0.015
5635,-0.390,-0.030
5636,-0.400,-0.005
5637,-0.370,0.000
5638,-0.375,0.000
5639,-0.370,-0.015
5640,-0.365,-0.025
5641,-0.370,-0.040
5642,-0.370,-0.030
5643,-0.370,-0.035
5644,-0.340,-0.020
5645,-0.345,-0.035
5646,-0.340,-0.040
5647,-0.335,-0.055
5648,-0.320,-0.040
5649,-0.310,-0.030
5650,-0.305,-0.025
5651,-0.295,-0.035
5652,-0.295,-0.055
5653,-0.290,-0.045
5654,-0.285,-0.045
5655,-0.270,-0.055
5656,-0.255,-0.040
5657,-0.260,-0.055
5658,-0.260,-0.080
5659,-0.260,-0.085
5660,-0.250,-0.065
5661,-0.235,-0.055
5662,-0.225,-0.055
5663,-0.225,-0.075
5664,-0.210,-0.085
5665,-0.195,-0.090
5666,-0.170,-0.075
5667,-0.155,-0.075
5668,-0.150,-0.065
5669,-0.150,-0.070
5670,-0.160,-0.085
5671,-0.155,-0.060
5672,-0.145,-0.045
5673,-0.140,-0.025
5674,-0.125,-0.035
5675,-0.125,-0.040
5676,-0.125,-0.065
5677,-0.125,-0.055
5678,-0.130,-0.035
5679,-0.125,-0.025
5680,-0.110,-0.030
5681,-0.120,-0.055
5682,-0.145,-0.065
5683,-0.160,-0.060
5684,-0.145,-0.055
5685,-0.160,-0.040
5686,-0.165,-0.045
5687,-0.195,-0.065
5688,-0.205,-0.070
5689,-0.220,-0.070
5690,-0.220,-0.050
5691,-0.230,-0.040
5692,-0.225,-0.045
5693,-0.235,-0.060
5694,-0.255,-0.065
5695,-0.270,-0.060
5696,-0.285,-0.035
5697,-0.265,-0.035
5698,-0.285,-0.050
5699,-0.300,-0.075
5700,-0.315,-0.100
5701,-0.310,-0.085
5702,-0.310,-0.075
5703,-0.305,-0.055
5704,-0.310,-0.070
5705,-0.310,-0.080
5706,-0.330,-0.085
5707,-0.345,-0.085
5708,-0.330,-0.060
5709,-0.325,-0.055
5710,-0.330,-0.075
5711,-0.325,-0.080
5712,-0.330,-0.085
5713,-0.325,-0.065
5714,-0.320,-0.035
5715,-0.315,-0.030
5716,-0.310,-0.030
5717,-0.325,-0.035
5718,-0.325,-0.045
5719,-0.330,-0.045
5720,-0.310,-0.025
5721,-0.310,0.000
5722,-0.310,-0.005
5723,-0.330,-0.020
5724,-0.330,-0.045
5725,-0.335,-0.040
5726,-0.330,-0.030
5727,-0.315,-0.030
5728,-0.320,-0.025
5729,-0.325,-0.040
5730,-0.335,-0.060
5731,-0.335,-0.075
5732,-0.320,-0.055
5733,-0.315,-0.035
5734,-0.305,-0.030
5735,-0.315,-0.040
5736,-0.320,-0.070
5737,-0.330,-0.065
5738,-0.330,-0.055
5739,-0.310,-0.040
5740,-0.300,-0.035
5741,-0.305,-0.060
5742,-0.320,-0.075
5743,-0.320,-0.080
5744,-0.310,-0.070
5745,-0.290,-0.065
5746,-0.285,-0.065
5747,-0.295,-0.080
5748,-0.315,-0.105
5749,-0.325,-0.095
5750,-0.320,-0.080
5751,-0.305,-0.080
5752,-0.305,-0.070
5753,-0.310,-0.090
5754,-0.320,-0.100
5755,-0.315,-0.095
5756,-0.320,-0.085
5757,-0.300,-0.065
5758,-0.285,-0.065
5759,-0.295,-0.045
5760,-0.310,-0.075
5761,-0.325,-0.060
5762,-0.320,-0.045
5763,-0.305,-0.040
5764,-0.295,-0.030
5765,-0.295,-0.030
5766,-0.305,-0.055
5767,-0.310,-0.065
5768,-0.310,-0.050
5769,-0.305,-0.035
5770,-0.315,-0.025
5771,-0.330,-0.035
5772,-0.330,-0.055
5773,-0.320,-0.070
5774,-0.305,-0.050
5775,-0.310,-0.035
5776,-0.305,-0.040
5777,-0.315,-0.055
5778,-0.340,-0.070
5779,-0.345,-0.080
5780,-0.310,-0.065
5781,-0.310,-0.060
5782,-0.310,-0.040
5783,-0.310,-0.045
5784,-0.320,-0.070
5785,-0.330,-0.080
5786,-0.315,-0.065
5787,-0.315,-0.060
5788,-0.310,-0.065
5789,-0.325,-0.080
5790,-0.320,-0.105
5791,-0.330,-0.100
5792,-0.340,-0.080
5793,-0.330,-0.085
5794,-0.325,-0.085
5795,-0.330,-0.095
5796,-0.335,-0.105
5797,-0.345,-0.110
5798,-0.330,-0.090
5799,-0.325,-0.090
5800,-0.335,-0.080
5801,-0.320,-0.085
5802,-0.345,-0.085
5803,-0.340,-0.075
5804,-0.325,-0.075
5805,-0.305,-0.075
5806,-0.310,-0.055
5807,-0.320,-0.065
5808,-0.335,-0.055
5809,-0.345,-0.060
5810,-0.340,-0.050
5811,-0.335,-0.035
5812,-0.310,-0.035
5813,-0.320,-0.035
5814,-0.335,-0.060
5815,-0.345,-0.050
5816,-0.340,-0.045
5817,-0.320,-0.030
5818,-0.315,-0.045
5819,-0.320,-0.055
5820,-0.320,-0.065
5821,-0.330,-0.065
5822,-0.315,-0.060
5823,-0.310,-0.070
5824,-0.300,-0.065
5825,-0.305,-0.080
5826,-0.305,-0.075
5827,-0.305,-0.070
5828,-0.290,-0.060
5829,-0.270,-0.080
5830,-0.270,-0.065
5831,-0.280,-0.065
5832,-0.275,-0.075
5833,-0.280,-0.080
5834,-0.255,-0.080
5835,-0.245,-0.080
5836,-0.240,-0.095
5837,-0.235,-0.100
5838,-0.200,-0.095
5839,-0.185,-0.095
5840,-0.145,-0.085
5841,-0.110,-0.075
5842,-0.105,-0.090
5843,-0.115,-0.090
5844,-0.140,-0.100
5845,-0.175,-0.095
5846,-0.185,-0.090
5847,-0.175,-0.080
5848,-0.180,-0.100
5849,-0.195,-0.095
5850,-0.215,-0.090
5851,-0.220,-0.070
5852,-0.220,-0.065
5853,-0.215,-0.065
5854,-0.220,-0.070
5855,-0.235,-0.075
5856,-0.250,-0.070
5857,-0.265,-0.070
5858,-0.265,-0.050
5859,-0.265,-0.055
5860,-0.275,-0.065
5861,-0.325,-0.070
5862,-0.355,-0.075
5863,-0.355,-0.070
5864,-0.345,-0.070
5865,-0.320,-0.060
5866,-0.330,-0.070
5867,-0.365,-0.100
5868,-0.385,-0.105
5869,-0.385,-0.105
5870,-0.370,-0.075
5871,-0.365,-0.085
5872,-0.360,-0.090
5873,-0.365,-0.115
5874,-0.370,-0.130
5875,-0.385,-0.105
5876,-0.385,-0.090
5877,-0.395,-0.080
5878,-0.405,-0.090
5879,-0.410,-0.115
5880,-0.400,-0.125
5881,-0.395,-0.120
5882,-0.405,-0.115
5883,-0.395,-0.105
5884,-0.405,-0.105
5885,-0.435,-0.135
5886,-0.440,-0.140
5887,-0.435,-0.140
5888,-0.435,-0.110
5889,-0.425,-0.100
5890,-0.430,-0.105
5891,-0.405,-0.100
5892,-0.285,-0.125
5893,-0.110,-0.120
5894,0.075,-0.105
5895,0.315,-0.095
5896,0.620,-0.100
5897,0.865,-0.135
5898,0.940,-0.200
5899,0.785,-0.225
5900,0.540,-0.235
5901,0.300,-0.215
5902,0.090,-0.185
5903,-0.100,-0.155
5904,-0.180,-0.125
5905,-0.175,-0.085
5906,-0.180,-0.055
5907,-0.210,-0.050
5908,-0.235,-0.050
5909,-0.275,-0.065
5910,-0.320,-0.085
5911,-0.370,-0.095
5912,-0.400,-0.090
5913,-0.430,-0.090
5914,-0.475,-0.090
5915,-0.500,-0.100
5916,-0.530,-0.100
5917,-0.535,-0.110
5918,-0.515,-0.100
5919,-0.505,-0.100
5920,-0.515,-0.105
5921,-0.535,-0.110
5922,-0.560,-0.105
5923,-0.550,-0.095
5924,-0.535,-0.095
5925,-0.515,-0.095
5926,-0.530,-0.100
5927,-0.545,-0.110
5928,-0.555,-0.135
5929,-0.555,-0.125
5930,-0.540,-0.135
5931,-0.545,-0.135
5932,-0.535,-0.130
5933,-0.535,-0.130
5934,-0.540,-0.135
5935,-0.555,-0.140
5936,-0.540,-0.140
5937,-0.540,-0.135
5938,-0.520,-0.130
5939,-0.525,-0.125
5940,-0.550,-0.135
5941,-0.555,-0.120
5942,-0.550,-0.120
5943,-0.530,-0.105
5944,-0.520,-0.100
5945,-0.505,-0.085
5946,-0.520,-0.095
5947,-0.550,-0.095
5948,-0.560,-0.090
5949,-0.545,-0.090
5950,-0.530,-0.080
5951,-0.535,-0.070
5952,-0.535,-0.080
5953,-0.550,-0.100
5954,-0.555,-0.085
5955,-0.540,-0.080
5956,-0.540,-0.095
5957,-0.540,-0.095
5958,-0.545,-0.115
5959,-0.550,-0.105
5960,-0.535,-0.110
5961,-0.530,-0.100
5962,-0.525,-0.105
5963,-0.505,-0.110
5964,-0.505,-0.105
5965,-0.525,-0.120
5966,-0.555,-0.105
5967,-0.540,-0.105
5968,-0.510,-0.100
5969,-0.495,-0.115
5970,-0.525,-0.105
5971,-0.520,-0.110
5972,-0.515,-0.125
5973,-0.500,-0.125
5974,-0.485,-0.140
5975,-0.490,-0.145
5976,-0.495,-0.145
5977,-0.495,-0.135
5978,-0.485,-0.130
5979,-0.470,-0.125
5980,-0.465,-0.140
5981,-0.475,-0.135
5982,-0.470,-0.145
5983,-0.470,-0.135
5984,-0.445,-0.140
5985,-0.435,-0.150
5986,-0.445,-0.145
5987,-0.460,-0.130
5988,-0.465,-0.125
5989,-0.440,-0.120
5990,-0.425,-0.100
5991,-0.400,-0.110
5992,-0.395,-0.110
5993,-0.395,-0.100
5994,-0.385,-0.090
5995,-0.400,-0.085
5996,-0.375,-0.090
5997,-0.360,-0.090
5998,-0.345,-0.095
5999,-0.345,-0.105
6000,-0.350,-0.100
6001,-0.350,-0.095
6002,-0.340,-0.110
6003,-0.325,-0.110
6004,-0.315,-0.125
6005,-0.315,-0.135
6006,-0.305,-0.130
6007,-0.320,-0.110
6008,-0.305,-0.115
6009,-0.300,-0.115
6010,-0.280,-0.130
6011,-0.280,-0.150
6012,-0.290,-0.150
6013,-0.305,-0.135
6014,-0.295,-0.135
6015,-0.290,-0.140
6016,-0.295,-0.150
6017,-0.310,-0.170
6018,-0.320,-0.160
6019,-0.330,-0.160
6020,-0.325,-0.150
6021,-0.330,-0.155
6022,-0.345,-0.160
6023,-0.365,-0.160
6024,-0.385,-0.155
6025,-0.400,-0.155
6026,-0.390,-0.135
6027,-0.385,-0.135
6028,-0.385,-0.140
6029,-0.395,-0.150
6030,-0.415,-0.145
6031,-0.430,-0.120
6032,-0.435,-0.110
6033,-0.430,-0.105
6034,-0.440,-0.115
6035,-0.430,-0.105
6036,-0.445,-0.105
6037,-0.455,-0.095
6038,-0.440,-0.075
6039,-0.425,-0.085
6040,-0.440,-0.090
6041,-0.455,-0.095
6042,-0.465,-0.090
6043,-0.470,-0.080
6044,-0.465,-0.070
6045,-0.445,-0.070
6046,-0.455,-0.085
6047,-0.450,-0.105
6048,-0.450,-0.110
6049,-0.450,-0.110
6050,-0.425,-0.095
6051,-0.430,-0.100
6052,-0.430,-0.105
6053,-0.425,-0.105
6054,-0.440,-0.100
6055,-0.450,-0.100
6056,-0.445,-0.090
6057,-0.440,-0.100
6058,-0.425,-0.100
6059,-0.420,-0.105
6060,-0.410,-0.120
6061,-0.420,-0.105
6062,-0.430,-0.110
6063,-0.410,-0.120
6064,-0.410,-0.140
6065,-0.405,-0.150
6066,-0.400,-0.150
6067,-0.405,-0.130
6068,-0.380,-0.120
6069,-0.385,-0.130
6070,-0.390,-0.130
6071,-0.390,-0.135
6072,-0.385,-0.140
6073,-0.385,-0.125
6074,-0.365,-0.115
6075,-0.365,-0.125
6076,-0.365,-0.105
6077,-0.380,-0.105
6078,-0.370,-0.095
6079,-0.365,-0.090
6080,-0.360,-0.090
6081,-0.365,-0.080
6082,-0.360,-0.085
6083,-0.365,-0.100
6084,-0.365,-0.095
6085,-0.360,-0.085
6086,-0.365,-0.070
6087,-0.345,-0.070
6088,-0.345,-0.080
6089,-0.360,-0.105
6090,-0.360,-0.095
6091,-0.355,-0.100
6092,-0.355,-0.100
6093,-0.345,-0.100
6094,-0.330,-0.110
6095,-0.330,-0.120
6096,-0.335,-0.110
6097,-0.345,-0.115
6098,-0.340,-0.095
6099,-0.335,-0.100
6100,-0.350,-0.110
6101,-0.355,-0.125
6102,-0.360,-0.130
6103,-0.350,-0.115
6104,-0.335,-0.110
6105,-0.345,-0.115
6106,-0.345,-0.130
6107,-0.355,-0.135
6108,-0.360,-0.155
6109,-0.360,-0.135
6110,-0.345,-0.125
6111,-0.345,-0.125
6112,-0.340,-0.135
6113,-0.350,-0.150
6114,-0.355,-0.145
6115,-0.360,-0.140
6116,-0.355,-0.130
6117,-0.340,-0.125
6118,-0.345,-0.135
6119,-0.340,-0.140
6120,-0.355,-0.150
6121,-0.345,-0.130
6122,-0.345,-0.100
6123,-0.325,-0.090
6124,-0.340,-0.090
6125,-0.350,-0.100
6126,-0.365,-0.110
6127,-0.355,-0.105
6128,-0.345,-0.075
6129,-0.335,-0.080
6130,-0.325,-0.080
6131,-0.335,-0.095
6132,-0.350,-0.110
6133,-0.365,-0.090
6134,-0.355,-0.085
6135,-0.340,-0.080
6136,-0.330,-0.095
6137,-0.330,-0.110
6138,-0.335,-0.135
6139,-0.345,-0.120
6140,-0.360,-0.095
6141,-0.345,-0.090
6142,-0.330,-0.090
6143,-0.325,-0.105
6144,-0.350,-0.130
6145,-0.345,-0.110
6146,-0.330,-0.100
6147,-0.320,-0.085
6148,-0.335,-0.090
6149,-0.325,-0.110
6150,-0.325,-0.125
6151,-0.330,-0.130
6152,-0.315,-0.130
6153,-0.305,-0.115
6154,-0.305,-0.125
6155,-0.295,-0.130
6156,-0.305,-0.150
6157,-0.305,-0.155
6158,-0.290,-0.130
6159,-0.280,-0.130
6160,-0.285,-0.120
6161,-0.285,-0.125
6162,-0.275,-0.140
6163,-0.250,-0.145
6164,-0.225,-0.125
6165,-0.200,-0.110
6166,-0.180,-0.095
6167,-0.135,-0.090
6168,-0.130,-0.115
6169,-0.160,-0.115
6170,-0.160,-0.100
6171,-0.170,-0.085
6172,-0.155,-0.070
6173,-0.165,-0.085
6174,-0.180,-0.100
6175,-0.200,-0.090
6176,-0.205,-0.090
6177,-0.200,-0.085
6178,-0.200,-0.080
6179,-0.210,-0.085
6180,-0.205,-0.105
6181,-0.210,-0.095
6182,-0.220,-0.090
6183,-0.225,-0.085
6184,-0.230,-0.085
6185,-0.250,-0.095
6186,-0.270,-0.110
6187,-0.290,-0.115
6188,-0.300,-0.110
6189,-0.295,-0.105
6190,-0.290,-0.100
6191,-0.295,-0.100
6192,-0.305,-0.115
6193,-0.315,-0.110
6194,-0.310,-0.105
6195,-0.305,-0.105
6196,-0.300,-0.110
6197,-0.310,-0.120
6198,-0.320,-0.140
6199,-0.320,-0.135
6200,-0.330,-0.140
6201,-0.290,-0.135
6202,-0.305,-0.125
6203,-0.315,-0.135
6204,-0.320,-0.140
6205,-0.320,-0.135
6206,-0.300,-0.135
6207,-0.300,-0.135
6208,-0.295,-0.125
6209,-0.300,-0.130
6210,-0.325,-0.125
6211,-0.350,-0.115
6212,-0.365,-0.115
6213,-0.385,-0.095
6214,-0.390,-0.085
6215,-0.360,-0.080
6216,-0.295,-0.075
6217,-0.120,-0.070
6218,0.100,-0.055
6219,0.335,-0.065
6220,0.630,-0.070
6221,0.940,-0.090
6222,1.135,-0.120
6223,1.110,-0.150
6224,0.900,-0.180
6225,0.630,-0.195
6226,0.385,-0.180
6227,0.160,-0.155
6228,0.020,-0.110
6229,-0.015,-0.095
6230,-0.030,-0.075
6231,-0.075,-0.075
6232,-0.105,-0.085
6233,-0.130,-0.090
6234,-0.170,-0.085
6235,-0.205,-0.110
6236,-0.220,-0.090
6237,-0.255,-0.095
6238,-0.285,-0.100
6239,-0.325,-0.105
6240,-0.310,-0.105
6241,-0.325,-0.095
6242,-0.330,-0.110
6243,-0.320,-0.115
6244,-0.335,-0.105
6245,-0.330,-0.115
6246,-0.340,-0.130
6247,-0.360,-0.125
6248,-0.350,-0.125
6249,-0.345,-0.115
6250,-0.335,-0.115
6251,-0.335,-0.115
6252,-0.335,-0.115
6253,-0.330,-0.115
6254,-0.335,-0.110
6255,-0.335,-0.100
6256,-0.335,-0.090
6257,-0.335,-0.090
6258,-0.340,-0.100
6259,-0.340,-0.085
6260,-0.355,-0.075
6261,-0.350,-0.065
6262,-0.330,-0.060
6263,-0.330,-0.065
6264,-0.325,-0.075
6265,-0.330,-0.080
6266,-0.340,-0.065
6267,-0.325,-0.060
6268,-0.325,-0.045
6269,-0.325,-0.065
6270,-0.345,-0.070
6271,-0.360,-0.090
6272,-0.340,-0.090
6273,-0.325,-0.070
6274,-0.320,-0.075
6275,-0.320,-0.075
6276,-0.320,-0.100
6277,-0.320,-0.105
6278,-0.325,-0.095
6279,-0.320,-0.070
6280,-0.315,-0.075
6281,-0.310,-0.080
6282,-0.315,-0.100
6283,-0.330,-0.095
6284,-0.325,-0.105
6285,-0.305,-0.095
6286,-0.295,-0.100
6287,-0.300,-0.115
6288,-0.315,-0.120
6289,-0.315,-0.135
6290,-0.295,-0.125
6291,-0.285,-0.105
6292,-0.290,-0.110
6293,-0.295,-0.115
6294,-0.290,-0.125
6295,-0.295,-0.135
6296,-0.280,-0.120
6297,-0.250,-0.120
6298,-0.250,-0.090
6299,-0.250,-0.085
6300,-0.265,-0.105
6301,-0.260,-0.090
6302,-0.235,-0.090
6303,-0.230,-0.070
6304,-0.220,-0.060
6305,-0.205,-0.070
6306,-0.215,-0.080
6307,-0.205,-0.075
6308,-0.200,-0.065
6309,-0.185,-0.055
6310,-0.180,-0.055
6311,-0.165,-0.055
6312,-0.155,-0.070
6313,-0.160,-0.080
6314,-0.135,-0.095
6315,-0.140,-0.085
6316,-0.130,-0.080
6317,-0.120,-0.090
6318,-0.115,-0.110
6319,-0.120,-0.115
6320,-0.090,-0.105
6321,-0.075,-0.085
6322,-0.060,-0.090
6323,-0.050,-0.095
6324,-0.070,-0.115
6325,-0.065,-0.125
6326,-0.055,-0.100
6327,-0.045,-0.090
6328,-0.030,-0.105
6329,-0.030,-0.120
6330,-0.035,-0.145
6331,-0.040,-0.150
6332,-0.030,-0.120
6333,-0.030,-0.110
6334,-0.030,-0.110
6335,-0.035,-0.125
6336,-0.065,-0.140
6337,-0.065,-0.135
6338,-0.060,-0.115
6339,-0.045,-0.090
6340,-0.050,-0.100
6341,-0.075,-0.115
6342,-0.100,-0.115
6343,-0.125,-0.100
6344,-0.125,-0.090
6345,-0.125,-0.065
6346,-0.110,-0.065
6347,-0.115,-0.075
6348,-0.135,-0.080
6349,-0.165,-0.075
6350,-0.200,-0.050
6351,-0.225,-0.025
6352,-0.245,-0.035
6353,-0.235,-0.055
6354,-0.225,-0.070
6355,-0.220,-0.070
6356,-0.225,-0.065
6357,-0.225,-0.045
6358,-0.220,-0.055
6359,-0.225,-0.080
6360,-0.215,-0.080
6361,-0.230,-0.075
6362,-0.220,-0.070
6363,-0.215,-0.070
6364,-0.215,-0.080
6365,-0.225,-0.085
6366,-0.225,-0.090
6367,-0.225,-0.090
6368,-0.220,-0.060
6369,-0.220,-0.075
6370,-0.225,-0.090
6371,-0.230,-0.120
6372,-0.230,-0.110
6373,-0.230,-0.105
6374,-0.225,-0.090
6375,-0.220,-0.095
6376,-0.210,-0.100
6377,-0.220,-0.110
6378,-0.220,-0.110
6379,-0.225,-0.100
6380,-0.200,-0.090
6381,-0.195,-0.095
6382,-0.180,-0.105
6383,-0.190,-0.095
6384,-0.215,-0.090
6385,-0.220,-0.080
6386,-0.215,-0.060
6387,-0.195,-0.065
6388,-0.200,-0.070
6389,-0.195,-0.060
6390,-0.200,-0.055
6391,-0.195,-0.060
6392,-0.205,-0.065
