'sample interval','MLII','V1'
'0.00277778 sec','mV','mV'
0,-0.155,-0.095
1,-0.155,-0.095
2,-0.155,-0.095
3,-0.155,-0.095
4,-0.155,-0.095
5,-0.155,-0.095
6,-0.155,-0.095
7,-0.155,-0.095
8,-0.170,-0.105
9,-0.175,-0.130
10,-0.195,-0.140
11,-0.220,-0.125
12,-0.210,-0.085
13,-0.215,-0.055
14,-0.240,-0.030
15,-0.260,-0.030
16,-0.265,-0.035
17,-0.270,-0.055
18,-0.280,-0.065
19,-0.290,-0.070
20,-0.285,-0.060
21,-0.300,-0.045
22,-0.305,-0.050
23,-0.320,-0.060
24,-0.345,-0.015
25,-0.340,0.015
26,-0.325,0.060
27,-0.305,0.075
28,-0.305,0.050
29,-0.310,0.015
30,-0.320,0.000
31,-0.320,0.040
32,-0.310,0.080
33,-0.315,0.100
34,-0.340,0.095
35,-0.360,0.060
36,-0.375,0.070
37,-0.355,0.080
38,-0.350,0.100
39,-0.335,0.095
40,-0.345,0.060
41,-0.365,0.045
42,-0.400,0.050
43,-0.400,0.075
44,-0.365,0.070
45,-0.370,0.055
46,-0.340,0.045
47,-0.355,0.045
48,-0.350,0.045
49,-0.355,0.040
50,-0.370,0.035
51,-0.370,0.025
52,-0.355,0.020
53,-0.350,0.000
54,-0.355,0.000
55,-0.355,0.005
56,-0.375,0.005
57,-0.385,0.020
58,-0.405,0.015
59,-0.435,0.025
60,-0.415,0.005
61,-0.355,-0.005
62,-0.300,-0.010
63,-0.275,-0.005
64,-0.275,-0.005
65,-0.270,0.010
66,-0.270,0.035
67,-0.265,0.075
68,-0.265,0.085
69,-0.260,0.085
70,-0.250,0.065
71,-0.235,0.025
72,-0.210,0.015
73,-0.180,0.010
74,-0.165,0.030
75,-0.180,0.055
76,-0.190,0.070
77,-0.190,0.065
78,-0.175,0.055
79,-0.165,0.035
80,-0.160,-0.015
81,-0.180,-0.105
82,-0.230,-0.170
83,-0.280,-0.180
84,-0.310,-0.145
85,-0.330,-0.125
86,-0.325,-0.125
87,-0.330,-0.125
88,-0.335,-0.170
89,-0.340,-0.195
90,-0.345,-0.215
91,-0.330,-0.220
92,-0.350,-0.210
93,-0.355,-0.200
94,-0.385,-0.220
95,-0.405,-0.210
96,-0.430,-0.195
97,-0.430,-0.160
98,-0.400,-0.145
99,-0.400,-0.170
100,-0.390,-0.185
101,-0.380,-0.200
102,-0.370,-0.210
103,-0.355,-0.230
104,-0.365,-0.215
105,-0.345,-0.195
106,-0.345,-0.230
107,-0.390,-0.270
108,-0.410,-0.290
109,-0.415,-0.275
110,-0.425,-0.255
111,-0.390,-0.240
112,-0.385,-0.245
113,-0.395,-0.240
114,-0.410,-0.250
115,-0.405,-0.255
116,-0.435,-0.240
117,-0.435,-0.240
118,-0.410,-0.215
119,-0.380,-0.200
120,-0.370,-0.175
121,-0.360,-0.155
122,-0.360,-0.130
123,-0.390,-0.130
124,-0.390,-0.125
125,-0.375,-0.095
126,-0.345,-0.070
127,-0.325,-0.070
128,-0.330,-0.075
129,-0.335,-0.090
130,-0.335,-0.115
131,-0.360,-0.085
132,-0.370,-0.065
133,-0.350,-0.040
134,-0.290,-0.050
135,-0.230,-0.080
136,-0.185,-0.075
137,-0.205,-0.085
138,-0.265,-0.055
139,-0.285,-0.015
140,-0.270,-0.005
141,-0.280,-0.030
142,-0.315,-0.060
143,-0.365,-0.070
144,-0.405,-0.070
145,-0.430,-0.185
146,-0.445,-0.480
147,-0.450,-0.865
148,-0.415,-1.255
149,-0.375,-1.690
150,-0.290,-2.160
151,-0.225,-2.570
152,-0.165,-2.850
153,-0.140,-2.945
154,-0.130,-2.940
155,-0.115,-2.830
156,-0.040,-2.520
157,0.175,-1.925
158,0.425,-1.290
159,0.565,-0.655
160,0.550,-0.080
161,0.440,0.020
162,0.330,0.040
163,0.225,0.065
164,0.105,0.090
165,-0.005,0.120
166,-0.085,0.150
167,-0.175,0.170
168,-0.210,0.180
169,-0.225,0.195
170,-0.220,0.160
171,-0.235,0.130
172,-0.235,0.135
173,-0.235,0.165
174,-0.210,0.235
175,-0.180,0.275
176,-0.200,0.250
177,-0.185,0.220
178,-0.225,0.200
179,-0.245,0.185
180,-0.255,0.190
181,-0.260,0.210
182,-0.245,0.215
183,-0.235,0.220
184,-0.230,0.210
185,-0.225,0.190
186,-0.225,0.180
187,-0.240,0.190
188,-0.225,0.175
189,-0.210,0.175
190,-0.210,0.205
191,-0.200,0.225
192,-0.190,0.220
193,-0.165,0.215
194,-0.150,0.200
195,-0.170,0.185
196,-0.195,0.175
197,-0.200,0.155
198,-0.205,0.165
199,-0.175,0.190
200,-0.150,0.195
201,-0.130,0.200
202,-0.120,0.200
203,-0.120,0.205
204,-0.145,0.205
205,-0.140,0.210
206,-0.115,0.210
207,-0.115,0.200
208,-0.105,0.180
209,-0.110,0.160
210,-0.110,0.180
211,-0.100,0.175
212,-0.100,0.160
213,-0.115,0.150
214,-0.115,0.130
215,-0.105,0.135
216,-0.075,0.135
217,-0.045,0.140
218,-0.030,0.100
219,-0.020,0.080
220,-0.025,0.035
221,-0.060,-0.005
222,-0.075,-0.030
223,-0.065,-0.005
224,-0.060,-0.020
225,-0.055,-0.015
226,-0.010,-0.035
227,0.010,-0.030
228,0.005,-0.025
229,-0.010,-0.020
230,-0.005,-0.035
231,-0.015,-0.050
232,-0.010,-0.075
233,-0.020,-0.120
234,-0.005,-0.150
235,0.010,-0.150
236,-0.010,-0.145
237,-0.010,-0.160
238,0.000,-0.180
239,-0.025,-0.210
240,-0.045,-0.190
241,-0.055,-0.175
242,-0.025,-0.185
243,0.000,-0.205
244,0.010,-0.225
245,0.000,-0.235
246,-0.035,-0.240
247,-0.045,-0.235
248,-0.075,-0.200
249,-0.130,-0.195
250,-0.135,-0.195
251,-0.110,-0.215
252,-0.105,-0.205
253,-0.095,-0.190
254,-0.130,-0.165
255,-0.175,-0.170
256,-0.200,-0.185
257,-0.220,-0.220
258,-0.245,-0.205
259,-0.240,-0.170
260,-0.225,-0.145
261,-0.230,-0.135
262,-0.235,-0.135
263,-0.245,-0.145
264,-0.265,-0.135
265,-0.290,-0.130
266,-0.310,-0.105
267,-0.305,-0.105
268,-0.320,-0.110
269,-0.310,-0.095
270,-0.295,-0.075
271,-0.275,-0.045
272,-0.290,-0.025
273,-0.320,-0.030
274,-0.350,-0.060
275,-0.350,-0.075
276,-0.355,-0.060
277,-0.340,-0.035
278,-0.345,-0.005
279,-0.320,-0.005
280,-0.340,-0.010
281,-0.375,-0.015
282,-0.375,-0.005
283,-0.375,0.030
284,-0.345,0.040
285,-0.340,0.040
286,-0.340,0.035
287,-0.365,0.025
288,-0.380,0.030
289,-0.405,0.060
290,-0.415,0.075
291,-0.410,0.090
292,-0.410,0.065
293,-0.435,0.035
294,-0.435,0.040
295,-0.415,0.080
296,-0.400,0.105
297,-0.385,0.120
298,-0.400,0.105
299,-0.420,0.065
300,-0.450,0.030
301,-0.455,0.050
302,-0.465,0.075
303,-0.460,0.095
304,-0.450,0.070
305,-0.425,0.045
306,-0.415,0.055
307,-0.400,0.070
308,-0.395,0.080
309,-0.410,0.075
310,-0.425,0.040
311,-0.450,0.020
312,-0.455,0.025
313,-0.440,0.025
314,-0.425,0.020
315,-0.415,0.020
316,-0.400,0.010
317,-0.430,0.015
318,-0.430,0.025
319,-0.430,0.035
320,-0.420,0.040
321,-0.420,0.035
322,-0.420,0.000
323,-0.395,-0.025
324,-0.385,-0.005
325,-0.345,-0.005
326,-0.320,-0.015
327,-0.310,-0.030
328,-0.310,-0.020
329,-0.315,-0.035
330,-0.325,-0.005
331,-0.345,0.030
332,-0.340,0.070
333,-0.315,0.070
334,-0.280,0.075
335,-0.305,0.075
336,-0.330,0.080
337,-0.385,0.095
338,-0.395,0.115
339,-0.385,0.110
340,-0.360,0.060
341,-0.355,-0.015
342,-0.370,-0.045
343,-0.375,-0.065
344,-0.395,-0.090
345,-0.390,-0.115
346,-0.390,-0.155
347,-0.405,-0.185
348,-0.415,-0.175
349,-0.435,-0.155
350,-0.420,-0.150
351,-0.440,-0.155
352,-0.470,-0.180
353,-0.505,-0.195
354,-0.530,-0.195
355,-0.505,-0.175
356,-0.480,-0.170
357,-0.490,-0.175
358,-0.490,-0.190
359,-0.510,-0.220
360,-0.520,-0.225
361,-0.510,-0.230
362,-0.500,-0.200
363,-0.505,-0.190
364,-0.515,-0.190
365,-0.530,-0.215
366,-0.520,-0.225
367,-0.510,-0.225
368,-0.515,-0.215
369,-0.505,-0.220
370,-0.505,-0.240
371,-0.525,-0.280
372,-0.550,-0.290
373,-0.555,-0.290
374,-0.555,-0.280
375,-0.535,-0.285
376,-0.555,-0.300
377,-0.550,-0.280
378,-0.550,-0.275
379,-0.555,-0.260
380,-0.550,-0.245
381,-0.540,-0.250
382,-0.530,-0.255
383,-0.545,-0.270
384,-0.525,-0.265
385,-0.515,-0.245
386,-0.485,-0.240
387,-0.475,-0.205
388,-0.450,-0.180
389,-0.455,-0.155
390,-0.465,-0.140
391,-0.470,-0.130
392,-0.460,-0.130
393,-0.465,-0.115
394,-0.470,-0.090
395,-0.470,-0.085
396,-0.475,-0.075
397,-0.460,-0.055
398,-0.430,-0.040
399,-0.425,-0.040
400,-0.420,-0.055
401,-0.425,-0.075
402,-0.450,-0.085
403,-0.445,-0.070
404,-0.430,-0.070
405,-0.405,-0.065
406,-0.390,-0.065
407,-0.375,-0.060
408,-0.380,-0.065
409,-0.400,-0.025
410,-0.425,-0.020
411,-0.450,-0.050
412,-0.460,-0.085
413,-0.485,-0.100
414,-0.520,-0.050
415,-0.555,-0.065
416,-0.585,-0.235
417,-0.610,-0.590
418,-0.590,-1.030
419,-0.560,-1.470
420,-0.530,-1.925
421,-0.480,-2.345
422,-0.450,-2.675
423,-0.415,-2.895
424,-0.385,-3.000
425,-0.385,-3.025
426,-0.390,-2.985
427,-0.330,-2.820
428,-0.245,-2.495
429,-0.085,-1.930
430,0.125,-1.295
431,0.275,-0.660
432,0.330,-0.125
433,0.315,0.070
434,0.255,0.155
435,0.160,0.175
436,0.030,0.150
437,-0.090,0.130
438,-0.175,0.160
439,-0.225,0.200
440,-0.265,0.225
441,-0.290,0.235
442,-0.320,0.225
443,-0.330,0.215
444,-0.355,0.220
445,-0.355,0.240
446,-0.345,0.255
447,-0.325,0.240
448,-0.320,0.255
449,-0.335,0.260
450,-0.305,0.275
451,-0.250,0.290
452,-0.230,0.300
453,-0.250,0.300
454,-0.280,0.300
455,-0.295,0.275
456,-0.305,0.265
457,-0.300,0.265
458,-0.280,0.280
459,-0.280,0.290
460,-0.290,0.295
461,-0.275,0.320
462,-0.280,0.325
463,-0.270,0.330
464,-0.250,0.305
465,-0.245,0.290
466,-0.255,0.275
467,-0.260,0.280
468,-0.260,0.305
469,-0.245,0.315
470,-0.235,0.330
471,-0.215,0.325
472,-0.210,0.315
473,-0.195,0.305
474,-0.215,0.290
475,-0.230,0.285
476,-0.215,0.280
477,-0.200,0.290
478,-0.205,0.295
479,-0.185,0.290
480,-0.180,0.300
481,-0.170,0.320
482,-0.165,0.315
483,-0.160,0.325
484,-0.170,0.295
485,-0.170,0.275
486,-0.170,0.260
487,-0.135,0.280
488,-0.110,0.290
489,-0.120,0.275
490,-0.130,0.250
491,-0.135,0.220
492,-0.125,0.205
493,-0.105,0.220
494,-0.095,0.225
495,-0.080,0.210
496,-0.090,0.210
497,-0.090,0.205
498,-0.060,0.210
499,-0.040,0.215
500,-0.020,0.200
501,-0.035,0.160
502,-0.060,0.105
503,-0.060,0.075
504,-0.060,0.050
505,-0.050,0.045
506,-0.025,0.045
507,-0.015,0.050
508,-0.055,0.040
509,-0.050,0.040
510,-0.040,0.020
511,-0.005,0.020
512,0.040,0.010
513,0.055,-0.005
514,0.060,-0.040
515,0.055,-0.060
516,0.040,-0.060
517,0.020,-0.065
518,0.010,-0.060
519,0.010,-0.065
520,0.010,-0.110
521,-0.005,-0.135
522,-0.020,-0.140
523,-0.020,-0.140
524,-0.015,-0.140
525,-0.015,-0.150
526,-0.030,-0.165
527,-0.065,-0.160
528,-0.090,-0.170
529,-0.085,-0.145
530,-0.060,-0.145
531,-0.055,-0.140
532,-0.075,-0.145
533,-0.100,-0.145
534,-0.125,-0.135
535,-0.135,-0.130
536,-0.140,-0.110
537,-0.175,-0.100
538,-0.170,-0.110
539,-0.200,-0.110
540,-0.180,-0.110
541,-0.190,-0.090
542,-0.205,-0.100
543,-0.230,-0.100
544,-0.240,-0.110
545,-0.265,-0.105
546,-0.285,-0.070
547,-0.280,-0.055
548,-0.290,-0.060
549,-0.290,-0.075
550,-0.295,-0.085
551,-0.285,-0.045
552,-0.275,0.005
553,-0.265,0.030
554,-0.275,0.045
555,-0.250,0.030
556,-0.255,0.010
557,-0.275,0.010
558,-0.305,0.045
559,-0.305,0.070
560,-0.270,0.080
561,-0.255,0.070
562,-0.245,0.050
563,-0.260,0.055
564,-0.290,0.075
565,-0.305,0.090
566,-0.310,0.095
567,-0.315,0.105
568,-0.315,0.095
569,-0.315,0.080
570,-0.315,0.080
571,-0.335,0.110
572,-0.355,0.140
573,-0.345,0.155
574,-0.355,0.145
575,-0.360,0.125
576,-0.375,0.105
577,-0.380,0.115
578,-0.360,0.115
579,-0.350,0.115
580,-0.360,0.120
581,-0.375,0.115
582,-0.395,0.105
583,-0.385,0.100
584,-0.390,0.100
585,-0.380,0.095
586,-0.375,0.085
587,-0.375,0.065
588,-0.390,0.055
589,-0.390,0.070
590,-0.395,0.080
591,-0.385,0.070
592,-0.385,0.055
593,-0.385,0.025
594,-0.395,0.030
595,-0.400,0.035
596,-0.385,0.025
597,-0.385,0.025
598,-0.385,0.005
599,-0.410,0.010
600,-0.410,0.020
601,-0.380,0.040
602,-0.370,0.050
603,-0.360,0.055
604,-0.365,0.025
605,-0.380,0.010
606,-0.385,0.005
607,-0.375,0.025
608,-0.370,0.045
609,-0.345,0.045
610,-0.350,0.045
611,-0.355,0.035
612,-0.340,0.050
613,-0.315,0.060
614,-0.305,0.060
615,-0.295,0.065
616,-0.290,0.050
617,-0.290,0.040
618,-0.280,0.035
619,-0.255,0.045
620,-0.250,0.060
621,-0.240,0.065
622,-0.225,0.065
623,-0.230,0.065
624,-0.245,0.065
625,-0.235,0.060
626,-0.225,0.040
627,-0.230,-0.005
628,-0.245,-0.070
629,-0.275,-0.125
630,-0.295,-0.135
631,-0.275,-0.145
632,-0.265,-0.160
633,-0.270,-0.180
634,-0.300,-0.200
635,-0.345,-0.190
636,-0.365,-0.205
637,-0.375,-0.200
638,-0.390,-0.170
639,-0.395,-0.170
640,-0.410,-0.160
641,-0.395,-0.160
642,-0.390,-0.170
643,-0.375,-0.180
644,-0.380,-0.165
645,-0.375,-0.170
646,-0.395,-0.200
647,-0.420,-0.210
648,-0.435,-0.215
649,-0.415,-0.215
650,-0.400,-0.195
651,-0.400,-0.215
652,-0.410,-0.245
653,-0.430,-0.265
654,-0.445,-0.260
655,-0.425,-0.245
656,-0.450,-0.245
657,-0.450,-0.240
658,-0.435,-0.250
659,-0.425,-0.265
660,-0.445,-0.275
661,-0.445,-0.275
662,-0.430,-0.285
663,-0.440,-0.285
664,-0.455,-0.295
665,-0.475,-0.280
666,-0.495,-0.290
667,-0.490,-0.260
668,-0.495,-0.260
669,-0.490,-0.265
670,-0.470,-0.260
671,-0.450,-0.260
672,-0.460,-0.245
673,-0.430,-0.225
674,-0.395,-0.220
675,-0.370,-0.205
676,-0.365,-0.205
677,-0.370,-0.195
678,-0.380,-0.180
679,-0.370,-0.140
680,-0.360,-0.115
681,-0.350,-0.100
682,-0.350,-0.100
683,-0.355,-0.085
684,-0.350,-0.090
685,-0.340,-0.085
686,-0.340,-0.075
687,-0.345,-0.070
688,-0.360,-0.085
689,-0.360,-0.080
690,-0.335,-0.075
691,-0.320,-0.060
692,-0.305,-0.050
693,-0.295,-0.045
694,-0.295,-0.060
695,-0.310,-0.075
696,-0.320,-0.100
697,-0.330,-0.100
698,-0.320,-0.095
699,-0.320,-0.070
700,-0.335,-0.070
701,-0.340,-0.065
702,-0.350,-0.070
703,-0.355,-0.085
704,-0.375,-0.080
705,-0.405,-0.065
706,-0.455,-0.065
707,-0.520,-0.195
708,-0.550,-0.475
709,-0.525,-0.745
710,-0.485,-0.985
711,-0.450,-1.255
712,-0.415,-1.560
713,-0.360,-1.915
714,-0.305,-2.285
715,-0.270,-2.600
716,-0.215,-2.825
717,-0.205,-2.940
718,-0.195,-2.985
719,-0.195,-2.945
720,-0.145,-2.795
721,-0.050,-2.500
722,0.145,-1.985
723,0.335,-1.350
724,0.480,-0.715
725,0.545,-0.305
726,0.495,-0.085
727,0.445,0.025
728,0.375,0.105
729,0.275,0.120
730,0.135,0.105
731,0.000,0.085
732,-0.080,0.100
733,-0.145,0.140
734,-0.175,0.165
735,-0.185,0.190
736,-0.215,0.195
737,-0.225,0.190
738,-0.250,0.185
739,-0.260,0.185
740,-0.255,0.210
741,-0.250,0.230
742,-0.235,0.220
743,-0.235,0.200
744,-0.235,0.220
745,-0.235,0.250
746,-0.225,0.250
747,-0.215,0.240
748,-0.225,0.225
749,-0.240,0.210
750,-0.240,0.205
751,-0.235,0.240
752,-0.215,0.270
753,-0.210,0.300
754,-0.195,0.260
755,-0.190,0.230
756,-0.210,0.225
757,-0.195,0.215
758,-0.210,0.230
759,-0.205,0.245
760,-0.205,0.235
761,-0.210,0.230
762,-0.240,0.245
763,-0.230,0.255
764,-0.220,0.265
765,-0.210,0.245
766,-0.205,0.240
767,-0.200,0.215
768,-0.190,0.200
769,-0.175,0.220
770,-0.170,0.240
771,-0.175,0.220
772,-0.195,0.215
773,-0.205,0.225
774,-0.225,0.235
775,-0.210,0.250
776,-0.170,0.265
777,-0.140,0.265
778,-0.125,0.260
779,-0.135,0.245
780,-0.135,0.240
781,-0.145,0.255
782,-0.125,0.265
783,-0.130,0.265
784,-0.135,0.260
785,-0.125,0.230
786,-0.105,0.210
787,-0.115,0.225
788,-0.105,0.245
789,-0.100,0.260
790,-0.100,0.245
791,-0.110,0.230
792,-0.110,0.205
793,-0.095,0.220
794,-0.090,0.220
795,-0.055,0.215
796,-0.040,0.195
797,-0.045,0.185
798,-0.045,0.175
799,-0.055,0.165
800,-0.035,0.160
801,-0.020,0.140
802,-0.035,0.110
803,-0.045,0.100
804,-0.065,0.075
805,-0.050,0.105
806,-0.040,0.100
807,-0.050,0.075
808,-0.060,0.065
809,-0.055,0.035
810,-0.030,0.025
811,-0.005,0.015
812,0.015,0.015
813,0.005,0.000
814,0.020,-0.035
815,0.000,-0.060
816,0.005,-0.070
817,0.005,-0.065
818,0.025,-0.065
819,0.035,-0.065
820,0.040,-0.080
821,0.040,-0.100
822,0.030,-0.125
823,0.045,-0.130
824,0.045,-0.160
825,0.035,-0.190
826,0.030,-0.195
827,0.005,-0.185
828,-0.015,-0.180
829,0.000,-0.170
830,0.005,-0.150
831,0.015,-0.170
832,0.025,-0.190
833,0.010,-0.215
834,0.015,-0.225
835,0.020,-0.215
836,0.010,-0.210
837,-0.005,-0.215
838,-0.025,-0.225
839,-0.035,-0.230
840,-0.060,-0.230
841,-0.045,-0.230
842,-0.030,-0.210
843,-0.010,-0.210
844,-0.050,-0.210
845,-0.040,-0.220
846,-0.065,-0.225
847,-0.100,-0.220
848,-0.115,-0.205
849,-0.145,-0.225
850,-0.150,-0.210
851,-0.175,-0.200
852,-0.180,-0.185
853,-0.165,-0.165
854,-0.140,-0.120
855,-0.120,-0.125
856,-0.110,-0.120
857,-0.120,-0.140
858,-0.140,-0.145
859,-0.155,-0.135
860,-0.160,-0.115
861,-0.185,-0.125
862,-0.190,-0.125
863,-0.210,-0.135
864,-0.220,-0.130
865,-0.215,-0.120
866,-0.205,-0.095
867,-0.215,-0.100
868,-0.225,-0.090
869,-0.235,-0.085
870,-0.255,-0.090
871,-0.250,-0.085
872,-0.235,-0.070
873,-0.240,-0.070
874,-0.235,-0.070
875,-0.235,-0.075
876,-0.240,-0.070
877,-0.230,-0.030
878,-0.240,-0.030
879,-0.240,-0.030
880,-0.265,-0.030
881,-0.270,-0.035
882,-0.270,-0.020
883,-0.270,-0.005
884,-0.265,0.020
885,-0.265,0.000
886,-0.260,0.000
887,-0.275,0.010
888,-0.285,0.015
889,-0.285,0.025
890,-0.280,0.045
891,-0.295,0.030
892,-0.295,0.035
893,-0.320,0.040
894,-0.345,0.035
895,-0.330,0.055
896,-0.325,0.075
897,-0.305,0.065
898,-0.300,0.050
899,-0.315,0.030
900,-0.335,0.030
901,-0.330,0.050
902,-0.305,0.045
903,-0.310,0.070
904,-0.340,0.060
905,-0.355,0.070
906,-0.355,0.065
907,-0.330,0.075
908,-0.315,0.080
909,-0.325,0.075
910,-0.305,0.070
911,-0.305,0.055
912,-0.320,0.050
913,-0.325,0.050
914,-0.310,0.060
915,-0.310,0.050
916,-0.325,0.040
917,-0.350,0.020
918,-0.365,0.015
919,-0.360,0.025
920,-0.340,0.045
921,-0.305,0.050
922,-0.300,0.035
923,-0.295,0.035
924,-0.300,0.010
925,-0.305,0.015
926,-0.305,0.025
927,-0.310,0.020
928,-0.320,-0.005
929,-0.325,-0.015
930,-0.340,-0.020
931,-0.320,0.005
932,-0.290,0.005
933,-0.285,0.015
934,-0.295,-0.005
935,-0.290,-0.010
936,-0.305,-0.010
937,-0.305,-0.015
938,-0.290,-0.010
939,-0.300,-0.005
940,-0.300,-0.005
941,-0.290,0.000
942,-0.270,0.000
943,-0.245,0.020
944,-0.230,0.045
945,-0.200,0.040
946,-0.200,0.005
947,-0.205,-0.005
948,-0.220,-0.005
949,-0.195,0.015
950,-0.185,0.035
951,-0.160,0.065
952,-0.145,0.065
953,-0.140,0.090
954,-0.135,0.090
955,-0.135,0.095
956,-0.135,0.070
957,-0.140,0.030
958,-0.160,0.000
959,-0.190,-0.045
960,-0.200,-0.090
961,-0.200,-0.115
962,-0.200,-0.135
963,-0.200,-0.145
964,-0.195,-0.160
965,-0.215,-0.185
966,-0.240,-0.210
967,-0.240,-0.200
968,-0.230,-0.180
969,-0.245,-0.190
970,-0.265,-0.210
971,-0.300,-0.210
972,-0.320,-0.195
973,-0.315,-0.165
974,-0.295,-0.150
975,-0.270,-0.160
976,-0.265,-0.175
977,-0.265,-0.185
978,-0.275,-0.185
979,-0.270,-0.170
980,-0.275,-0.185
981,-0.295,-0.195
982,-0.305,-0.220
983,-0.335,-0.240
984,-0.345,-0.240
985,-0.325,-0.225
986,-0.310,-0.220
987,-0.295,-0.220
988,-0.300,-0.230
989,-0.335,-0.245
990,-0.335,-0.265
991,-0.350,-0.260
992,-0.350,-0.265
993,-0.370,-0.290
994,-0.375,-0.315
995,-0.370,-0.310
996,-0.375,-0.310
997,-0.355,-0.295
998,-0.340,-0.290
999,-0.380,-0.325
1000,-0.405,-0.320
1001,-0.405,-0.320
1002,-0.415,-0.275
1003,-0.380,-0.255
1004,-0.355,-0.245
1005,-0.345,-0.245
1006,-0.330,-0.245
1007,-0.300,-0.235
1008,-0.290,-0.225
1009,-0.285,-0.200
1010,-0.290,-0.190
1011,-0.295,-0.180
1012,-0.295,-0.190
1013,-0.305,-0.185
1014,-0.275,-0.155
1015,-0.245,-0.110
1016,-0.225,-0.110
1017,-0.205,-0.090
1018,-0.225,-0.110
1019,-0.230,-0.110
1020,-0.230,-0.100
1021,-0.240,-0.085
1022,-0.245,-0.075
1023,-0.240,-0.095
1024,-0.255,-0.100
1025,-0.260,-0.115
1026,-0.250,-0.105
1027,-0.235,-0.085
1028,-0.215,-0.085
1029,-0.210,-0.085
1030,-0.225,-0.085
1031,-0.240,-0.100
1032,-0.245,-0.105
1033,-0.240,-0.095
1034,-0.225,-0.090
1035,-0.230,-0.090
1036,-0.275,-0.070
1037,-0.280,-0.050
1038,-0.275,-0.035
1039,-0.265,-0.025
1040,-0.300,-0.040
1041,-0.350,-0.045
1042,-0.405,-0.090
1043,-0.455,-0.255
1044,-0.450,-0.505
1045,-0.415,-0.825
1046,-0.350,-1.150
1047,-0.305,-1.520
1048,-0.270,-1.930
1049,-0.240,-2.350
1050,-0.195,-2.655
1051,-0.170,-2.855
1052,-0.155,-2.975
1053,-0.150,-3.025
1054,-0.130,-3.005
1055,-0.100,-2.935
1056,-0.010,-2.710
1057,0.140,-2.285
1058,0.335,-1.675
1059,0.490,-1.040
1060,0.565,-0.490
1061,0.545,-0.180
1062,0.485,-0.040
1063,0.425,0.050
1064,0.330,0.090
1065,0.210,0.085
1066,0.100,0.075
1067,0.005,0.100
1068,-0.045,0.145
1069,-0.095,0.165
1070,-0.145,0.175
1071,-0.160,0.165
1072,-0.190,0.155
1073,-0.210,0.145
1074,-0.225,0.165
1075,-0.215,0.175
1076,-0.175,0.185
1077,-0.165,0.185
1078,-0.160,0.195
1079,-0.175,0.185
1080,-0.160,0.190
1081,-0.155,0.200
1082,-0.155,0.200
1083,-0.180,0.200
1084,-0.190,0.180
1085,-0.205,0.190
1086,-0.185,0.205
1087,-0.160,0.215
1088,-0.145,0.245
1089,-0.140,0.220
1090,-0.155,0.215
1091,-0.160,0.195
1092,-0.165,0.205
1093,-0.175,0.235
1094,-0.170,0.235
1095,-0.175,0.210
1096,-0.160,0.195
1097,-0.160,0.195
1098,-0.140,0.220
1099,-0.135,0.235
1100,-0.125,0.240
1101,-0.120,0.235
1102,-0.140,0.225
1103,-0.160,0.210
1104,-0.160,0.215
1105,-0.160,0.220
1106,-0.135,0.210
1107,-0.145,0.195
1108,-0.155,0.205
1109,-0.160,0.205
1110,-0.150,0.230
1111,-0.120,0.255
1112,-0.100,0.275
1113,-0.080,0.250
1114,-0.090,0.220
1115,-0.100,0.210
1116,-0.095,0.230
1117,-0.085,0.230
1118,-0.080,0.225
1119,-0.080,0.205
1120,-0.085,0.215
1121,-0.105,0.205
1122,-0.095,0.225
1123,-0.085,0.210
1124,-0.075,0.195
1125,-0.085,0.165
1126,-0.100,0.150
1127,-0.110,0.145
1128,-0.095,0.150
1129,-0.075,0.155
1130,-0.060,0.130
1131,-0.055,0.120
1132,-0.070,0.095
1133,-0.070,0.100
1134,-0.065,0.120
1135,-0.030,0.105
1136,-0.025,0.090
1137,-0.005,0.070
1138,-0.005,0.065
1139,-0.010,0.045
1140,-0.030,0.050
1141,-0.005,0.040
1142,0.010,0.025
1143,0.010,-0.010
1144,0.005,-0.065
1145,-0.005,-0.070
1146,-0.005,-0.080
1147,0.015,-0.095
1148,0.030,-0.105
1149,0.020,-0.130
1150,0.000,-0.145
1151,-0.005,-0.145
1152,-0.020,-0.110
1153,-0.010,-0.100
1154,-0.015,-0.135
1155,-0.020,-0.190
1156,-0.020,-0.230
1157,-0.015,-0.225
1158,-0.015,-0.220
1159,-0.010,-0.210
1160,0.000,-0.220
1161,-0.020,-0.235
1162,-0.055,-0.245
1163,-0.065,-0.255
1164,-0.050,-0.245
1165,-0.040,-0.245
1166,-0.055,-0.245
1167,-0.045,-0.215
1168,-0.060,-0.220
1169,-0.080,-0.200
1170,-0.080,-0.195
1171,-0.080,-0.185
1172,-0.080,-0.180
1173,-0.105,-0.175
1174,-0.145,-0.185
1175,-0.170,-0.200
1176,-0.165,-0.190
1177,-0.190,-0.185
1178,-0.195,-0.170
1179,-0.190,-0.190
1180,-0.220,-0.185
1181,-0.225,-0.175
1182,-0.230,-0.145
1183,-0.230,-0.130
1184,-0.235,-0.140
1185,-0.230,-0.145
1186,-0.245,-0.145
1187,-0.265,-0.150
1188,-0.265,-0.120
1189,-0.260,-0.080
1190,-0.265,-0.065
1191,-0.285,-0.075
1192,-0.305,-0.100
1193,-0.315,-0.110
1194,-0.305,-0.105
1195,-0.300,-0.100
1196,-0.275,-0.095
1197,-0.280,-0.075
1198,-0.295,-0.080
1199,-0.335,-0.080
1200,-0.310,-0.050
1201,-0.305,-0.025
1202,-0.300,-0.005
1203,-0.305,-0.020
1204,-0.320,-0.025
1205,-0.320,-0.050
1206,-0.330,-0.045
1207,-0.335,-0.020
1208,-0.310,0.020
1209,-0.315,0.035
1210,-0.325,0.030
1211,-0.350,0.040
1212,-0.360,0.055
1213,-0.350,0.045
1214,-0.345,0.040
1215,-0.350,0.025
1216,-0.360,0.025
1217,-0.360,0.020
1218,-0.350,0.055
1219,-0.360,0.095
1220,-0.365,0.100
1221,-0.390,0.075
1222,-0.395,0.055
1223,-0.400,0.035
1224,-0.395,0.045
1225,-0.395,0.040
1226,-0.380,0.055
1227,-0.400,0.055
1228,-0.400,0.065
1229,-0.415,0.060
1230,-0.415,0.065
1231,-0.405,0.085
1232,-0.385,0.060
1233,-0.400,0.020
1234,-0.405,-0.005
1235,-0.405,0.005
1236,-0.395,0.035
1237,-0.410,0.045
1238,-0.395,0.025
1239,-0.385,0.000
1240,-0.390,-0.020
1241,-0.405,-0.030
1242,-0.400,-0.025
1243,-0.405,-0.055
1244,-0.405,-0.055
1245,-0.415,-0.035
1246,-0.420,-0.025
1247,-0.420,-0.020
1248,-0.410,0.005
1249,-0.400,0.005
1250,-0.385,0.010
1251,-0.395,-0.015
1252,-0.410,-0.040
1253,-0.420,-0.035
1254,-0.390,-0.005
1255,-0.350,0.020
1256,-0.330,0.035
1257,-0.310,0.045
1258,-0.305,0.045
1259,-0.300,0.035
1260,-0.290,0.035
1261,-0.290,0.020
1262,-0.265,0.020
1263,-0.245,0.010
1264,-0.245,0.015
1265,-0.255,0.035
1266,-0.250,0.070
1267,-0.255,0.075
1268,-0.245,0.020
1269,-0.270,-0.060
1270,-0.295,-0.135
1271,-0.315,-0.195
1272,-0.310,-0.205
1273,-0.315,-0.180
1274,-0.310,-0.180
1275,-0.325,-0.215
1276,-0.350,-0.225
1277,-0.385,-0.210
1278,-0.390,-0.180
1279,-0.410,-0.155
1280,-0.410,-0.165
1281,-0.415,-0.190
1282,-0.420,-0.200
1283,-0.430,-0.195
1284,-0.435,-0.200
1285,-0.445,-0.205
1286,-0.415,-0.215
1287,-0.410,-0.225
1288,-0.420,-0.250
1289,-0.450,-0.250
1290,-0.475,-0.255
1291,-0.470,-0.240
1292,-0.440,-0.250
1293,-0.420,-0.255
1294,-0.430,-0.255
1295,-0.460,-0.255
1296,-0.465,-0.255
1297,-0.460,-0.260
1298,-0.460,-0.300
1299,-0.465,-0.320
1300,-0.490,-0.330
1301,-0.505,-0.325
1302,-0.495,-0.310
1303,-0.470,-0.305
1304,-0.470,-0.285
1305,-0.485,-0.285
1306,-0.500,-0.290
1307,-0.515,-0.290
1308,-0.505,-0.290
1309,-0.515,-0.285
1310,-0.510,-0.305
1311,-0.515,-0.310
1312,-0.505,-0.340
1313,-0.500,-0.320
1314,-0.480,-0.270
1315,-0.455,-0.230
1316,-0.410,-0.200
1317,-0.390,-0.185
1318,-0.370,-0.175
1319,-0.375,-0.190
1320,-0.390,-0.160
1321,-0.410,-0.125
1322,-0.390,-0.105
1323,-0.380,-0.100
1324,-0.370,-0.100
1325,-0.380,-0.105
1326,-0.370,-0.110
1327,-0.365,-0.105
1328,-0.355,-0.085
1329,-0.375,-0.095
1330,-0.375,-0.110
1331,-0.385,-0.110
1332,-0.360,-0.110
1333,-0.335,-0.105
1334,-0.305,-0.095
1335,-0.285,-0.105
1336,-0.295,-0.105
1337,-0.325,-0.110
1338,-0.335,-0.110
1339,-0.305,-0.090
1340,-0.300,-0.085
1341,-0.325,-0.085
1342,-0.350,-0.080
1343,-0.380,-0.060
1344,-0.370,-0.050
1345,-0.380,-0.055
1346,-0.440,-0.045
1347,-0.485,-0.035
1348,-0.540,-0.080
1349,-0.590,-0.265
1350,-0.595,-0.585
1351,-0.550,-0.930
1352,-0.500,-1.335
1353,-0.475,-1.790
1354,-0.440,-2.240
1355,-0.425,-2.655
1356,-0.420,-2.920
1357,-0.375,-3.070
1358,-0.325,-3.120
1359,-0.280,-3.135
1360,-0.205,-3.060
1361,-0.080,-2.835
1362,0.100,-2.365
1363,0.315,-1.730
1364,0.465,-1.095
1365,0.505,-0.460
1366,0.445,-0.020
1367,0.360,0.110
1368,0.305,0.160
1369,0.225,0.150
1370,0.145,0.140
1371,0.050,0.115
1372,-0.055,0.150
1373,-0.150,0.165
1374,-0.195,0.180
1375,-0.210,0.195
1376,-0.225,0.225
1377,-0.240,0.225
1378,-0.245,0.220
1379,-0.230,0.220
1380,-0.205,0.235
1381,-0.205,0.260
1382,-0.205,0.245
1383,-0.220,0.220
1384,-0.210,0.195
1385,-0.235,0.200
1386,-0.245,0.235
1387,-0.230,0.270
1388,-0.200,0.250
1389,-0.190,0.205
1390,-0.175,0.190
1391,-0.205,0.185
1392,-0.215,0.225
1393,-0.235,0.245
1394,-0.235,0.270
1395,-0.230,0.240
1396,-0.205,0.195
1397,-0.210,0.180
1398,-0.195,0.165
1399,-0.200,0.180
1400,-0.180,0.180
1401,-0.175,0.160
1402,-0.170,0.155
1403,-0.185,0.160
1404,-0.160,0.185
1405,-0.130,0.210
1406,-0.115,0.235
1407,-0.100,0.235
1408,-0.110,0.200
1409,-0.120,0.170
1410,-0.150,0.180
1411,-0.145,0.235
1412,-0.130,0.260
1413,-0.140,0.280
1414,-0.140,0.255
1415,-0.130,0.230
1416,-0.120,0.250
1417,-0.120,0.250
1418,-0.110,0.270
1419,-0.120,0.275
1420,-0.135,0.255
1421,-0.140,0.250
1422,-0.125,0.250
1423,-0.110,0.260
1424,-0.095,0.270
1425,-0.080,0.260
1426,-0.080,0.235
1427,-0.065,0.220
1428,-0.040,0.220
1429,-0.015,0.215
1430,-0.005,0.205
1431,-0.005,0.180
1432,-0.025,0.155
1433,-0.010,0.135
1434,-0.005,0.120
1435,-0.015,0.130
1436,-0.015,0.130
1437,-0.005,0.080
1438,0.000,0.045
1439,-0.010,0.010
1440,-0.015,-0.010
1441,0.015,-0.035
1442,0.050,-0.035
1443,0.035,-0.025
1444,0.035,-0.050
1445,0.020,-0.105
1446,0.030,-0.125
1447,0.030,-0.140
1448,-0.005,-0.125
1449,-0.030,-0.130
1450,-0.050,-0.125
1451,-0.030,-0.145
1452,0.010,-0.150
1453,0.055,-0.145
1454,0.070,-0.140
1455,0.075,-0.195
1456,0.085,-0.275
1457,0.080,-0.315
1458,0.045,-0.280
1459,-0.005,-0.210
1460,-0.040,-0.185
1461,-0.045,-0.200
1462,-0.035,-0.230
1463,-0.030,-0.225
1464,-0.045,-0.240
1465,-0.050,-0.255
1466,-0.075,-0.270
1467,-0.080,-0.265
1468,-0.100,-0.235
1469,-0.120,-0.220
1470,-0.105,-0.170
1471,-0.100,-0.120
1472,-0.075,-0.140
1473,-0.045,-0.195
1474,-0.055,-0.250
1475,-0.105,-0.240
1476,-0.190,-0.180
1477,-0.250,-0.140
1478,-0.255,-0.175
1479,-0.215,-0.200
1480,-0.210,-0.200
1481,-0.250,-0.185
1482,-0.265,-0.145
1483,-0.235,-0.135
1484,-0.175,-0.135
1485,-0.185,-0.150
1486,-0.215,-0.170
1487,-0.270,-0.150
1488,-0.295,-0.100
1489,-0.290,-0.080
1490,-0.255,-0.060
1491,-0.245,-0.050
1492,-0.250,-0.110
1493,-0.255,-0.145
1494,-0.260,-0.135
1495,-0.315,-0.075
1496,-0.340,-0.020
1497,-0.325,0.000
1498,-0.310,0.005
1499,-0.270,0.010
1500,-0.265,-0.005
1501,-0.225,-0.040
1502,-0.215,-0.075
1503,-0.250,-0.055
1504,-0.290,-0.050
1505,-0.310,-0.055
1506,-0.310,-0.030
1507,-0.345,-0.010
1508,-0.355,-0.050
1509,-0.360,-0.090
1510,-0.345,-0.095
1511,-0.385,-0.065
1512,-0.370,-0.080
1513,-0.335,-0.140
1514,-0.295,-0.155
1515,-0.280,-0.090
1516,-0.325,0.020
1517,-0.370,0.130
1518,-0.365,0.185
1519,-0.365,0.175
1520,-0.360,0.140
1521,-0.365,0.060
1522,-0.395,-0.045
1523,-0.450,-0.100
1524,-0.455,-0.085
1525,-0.455,-0.080
1526,-0.395,-0.055
1527,-0.365,-0.030
1528,-0.360,-0.045
1529,-0.390,-0.055
1530,-0.410,-0.040
1531,-0.440,-0.025
1532,-0.435,-0.040
1533,-0.435,-0.055
1534,-0.405,-0.035
1535,-0.400,-0.010
1536,-0.360,0.020
1537,-0.325,-0.010
1538,-0.315,-0.090
1539,-0.320,-0.155
1540,-0.315,-0.195
1541,-0.305,-0.185
1542,-0.325,-0.110
1543,-0.370,-0.115
1544,-0.375,-0.195
1545,-0.345,-0.265
1546,-0.315,-0.210
1547,-0.340,-0.080
1548,-0.345,0.055
1549,-0.340,0.085
1550,-0.315,0.055
1551,-0.285,-0.010
1552,-0.295,-0.055
1553,-0.340,-0.115
1554,-0.325,-0.150
1555,-0.315,-0.125
1556,-0.340,-0.045
1557,-0.355,0.015
1558,-0.340,0.005
1559,-0.295,-0.065
1560,-0.230,-0.100
1561,-0.220,-0.130
1562,-0.240,-0.150
1563,-0.265,-0.175
1564,-0.285,-0.200
1565,-0.310,-0.225
1566,-0.295,-0.200
1567,-0.295,-0.220
1568,-0.275,-0.285
1569,-0.270,-0.350
1570,-0.285,-0.395
1571,-0.300,-0.385
1572,-0.315,-0.335
1573,-0.355,-0.260
1574,-0.385,-0.235
1575,-0.405,-0.235
1576,-0.445,-0.280
1577,-0.465,-0.310
1578,-0.440,-0.290
1579,-0.395,-0.290
1580,-0.365,-0.305
1581,-0.370,-0.330
1582,-0.390,-0.310
1583,-0.440,-0.260
1584,-0.445,-0.215
1585,-0.445,-0.220
1586,-0.410,-0.280
1587,-0.375,-0.355
1588,-0.355,-0.445
1589,-0.370,-0.495
1590,-0.405,-0.460
1591,-0.455,-0.390
1592,-0.485,-0.295
1593,-0.490,-0.270
1594,-0.470,-0.300
1595,-0.440,-0.395
1596,-0.420,-0.450
1597,-0.460,-0.440
1598,-0.500,-0.430
1599,-0.535,-0.440
1600,-0.500,-0.455
1601,-0.465,-0.440
1602,-0.455,-0.405
1603,-0.425,-0.365
1604,-0.405,-0.310
1605,-0.395,-0.280
1606,-0.415,-0.285
1607,-0.410,-0.265
1608,-0.465,-0.200
1609,-0.475,-0.170
1610,-0.455,-0.200
1611,-0.415,-0.210
1612,-0.430,-0.195
1613,-0.460,-0.130
1614,-0.410,-0.085
1615,-0.350,-0.075
1616,-0.290,-0.110
1617,-0.240,-0.195
1618,-0.235,-0.280
1619,-0.285,-0.320
1620,-0.370,-0.260
1621,-0.425,-0.190
1622,-0.410,-0.155
1623,-0.370,-0.170
1624,-0.365,-0.195
1625,-0.375,-0.190
1626,-0.395,-0.180
1627,-0.380,-0.170
1628,-0.365,-0.105
1629,-0.350,-0.050
1630,-0.360,-0.015
1631,-0.355,-0.040
1632,-0.355,-0.085
1633,-0.395,-0.125
1634,-0.480,-0.155
1635,-0.565,-0.210
1636,-0.595,-0.365
1637,-0.605,-0.635
1638,-0.590,-0.905
1639,-0.560,-1.225
1640,-0.500,-1.635
1641,-0.425,-2.100
1642,-0.365,-2.535
1643,-0.325,-2.805
1644,-0.300,-2.920
1645,-0.255,-2.910
1646,-0.185,-2.825
1647,-0.060,-2.650
1648,0.090,-2.280
1649,0.265,-1.665
1650,0.415,-1.030
1651,0.475,-0.395
1652,0.465,-0.040
1653,0.405,0.000
1654,0.285,-0.015
1655,0.150,-0.020
1656,0.025,0.000
1657,-0.075,0.055
1658,-0.150,0.080
1659,-0.210,0.095
1660,-0.240,0.090
1661,-0.275,0.085
1662,-0.280,0.085
1663,-0.280,0.095
1664,-0.290,0.120
1665,-0.300,0.125
1666,-0.265,0.145
1667,-0.250,0.150
1668,-0.210,0.140
1669,-0.195,0.120
1670,-0.205,0.115
1671,-0.240,0.125
1672,-0.285,0.120
1673,-0.300,0.115
1674,-0.275,0.105
1675,-0.250,0.110
1676,-0.235,0.130
1677,-0.285,0.135
1678,-0.330,0.150
1679,-0.330,0.135
1680,-0.285,0.140
1681,-0.225,0.110
1682,-0.180,0.120
1683,-0.175,0.135
1684,-0.225,0.155
1685,-0.265,0.175
1686,-0.285,0.195
1687,-0.265,0.185
1688,-0.225,0.170
1689,-0.230,0.150
1690,-0.225,0.110
1691,-0.210,0.080
1692,-0.190,0.090
1693,-0.210,0.115
1694,-0.220,0.105
1695,-0.245,0.100
1696,-0.265,0.110
1697,-0.270,0.110
1698,-0.235,0.140
1699,-0.185,0.140
1700,-0.155,0.105
1701,-0.155,0.085
1702,-0.200,0.085
1703,-0.210,0.070
1704,-0.220,0.095
1705,-0.205,0.100
1706,-0.165,0.095
1707,-0.140,0.090
1708,-0.110,0.050
1709,-0.125,0.035
1710,-0.160,0.060
1711,-0.180,0.095
1712,-0.180,0.110
1713,-0.160,0.095
1714,-0.125,0.070
1715,-0.100,0.030
1716,-0.075,-0.010
1717,-0.075,-0.025
1718,-0.085,-0.035
1719,-0.105,-0.050
1720,-0.125,-0.065
1721,-0.140,-0.080
1722,-0.115,-0.070
1723,-0.105,-0.070
1724,-0.075,-0.075
1725,-0.045,-0.105
1726,-0.020,-0.130
1727,-0.045,-0.150
1728,-0.060,-0.150
1729,-0.085,-0.160
1730,-0.075,-0.155
1731,-0.065,-0.165
1732,-0.050,-0.170
1733,-0.045,-0.195
1734,-0.025,-0.210
1735,-0.020,-0.235
1736,-0.015,-0.260
1737,-0.030,-0.280
1738,-0.085,-0.280
1739,-0.140,-0.270
1740,-0.145,-0.260
1741,-0.120,-0.260
1742,-0.105,-0.260
1743,-0.095,-0.280
1744,-0.100,-0.280
1745,-0.125,-0.290
1746,-0.125,-0.260
1747,-0.140,-0.250
1748,-0.150,-0.235
1749,-0.185,-0.230
1750,-0.185,-0.235
1751,-0.190,-0.235
1752,-0.195,-0.240
1753,-0.190,-0.215
1754,-0.205,-0.220
1755,-0.220,-0.230
1756,-0.255,-0.235
1757,-0.260,-0.220
1758,-0.235,-0.210
1759,-0.235,-0.180
1760,-0.245,-0.160
1761,-0.265,-0.180
1762,-0.290,-0.165
1763,-0.295,-0.175
1764,-0.310,-0.165
1765,-0.305,-0.140
1766,-0.300,-0.130
1767,-0.310,-0.125
1768,-0.345,-0.140
1769,-0.360,-0.155
1770,-0.355,-0.135
1771,-0.350,-0.120
1772,-0.360,-0.100
1773,-0.355,-0.070
1774,-0.350,-0.075
1775,-0.365,-0.080
1776,-0.370,-0.070
1777,-0.390,-0.055
1778,-0.400,-0.040
1779,-0.400,-0.055
1780,-0.390,-0.055
1781,-0.385,-0.050
1782,-0.355,-0.025
1783,-0.355,-0.010
1784,-0.355,-0.015
1785,-0.370,-0.030
1786,-0.405,-0.050
1787,-0.455,-0.045
1788,-0.475,-0.015
1789,-0.480,0.005
1790,-0.445,0.015
1791,-0.415,0.020
1792,-0.420,0.015
1793,-0.435,0.010
1794,-0.450,0.040
1795,-0.455,0.055
1796,-0.450,0.050
1797,-0.460,0.040
1798,-0.465,0.005
1799,-0.470,0.005
1800,-0.465,0.015
1801,-0.480,0.035
1802,-0.480,0.040
1803,-0.470,0.020
1804,-0.490,0.000
1805,-0.500,0.000
1806,-0.490,0.020
1807,-0.465,0.035
1808,-0.445,0.030
1809,-0.445,0.010
1810,-0.435,-0.025
1811,-0.450,-0.050
1812,-0.465,-0.030
1813,-0.490,-0.005
1814,-0.490,-0.020
1815,-0.490,-0.045
1816,-0.485,-0.065
1817,-0.485,-0.070
1818,-0.485,-0.045
1819,-0.495,-0.025
1820,-0.470,-0.025
1821,-0.480,-0.030
1822,-0.495,-0.015
1823,-0.470,-0.025
1824,-0.470,-0.015
1825,-0.440,-0.020
1826,-0.435,-0.025
1827,-0.425,-0.045
1828,-0.450,-0.040
1829,-0.455,-0.030
1830,-0.450,0.000
1831,-0.450,0.005
1832,-0.420,0.015
1833,-0.425,0.005
1834,-0.410,-0.005
1835,-0.405,-0.010
1836,-0.380,0.005
1837,-0.360,0.015
1838,-0.330,0.025
1839,-0.325,0.035
1840,-0.340,0.025
1841,-0.370,0.020
1842,-0.375,0.040
1843,-0.360,0.040
1844,-0.360,0.030
1845,-0.355,-0.030
1846,-0.365,-0.090
1847,-0.380,-0.125
1848,-0.385,-0.135
1849,-0.410,-0.150
1850,-0.410,-0.155
1851,-0.425,-0.175
1852,-0.455,-0.180
1853,-0.475,-0.170
1854,-0.470,-0.155
1855,-0.450,-0.145
1856,-0.445,-0.135
1857,-0.450,-0.145
1858,-0.470,-0.175
1859,-0.490,-0.160
1860,-0.480,-0.150
1861,-0.480,-0.155
1862,-0.485,-0.160
1863,-0.495,-0.180
1864,-0.510,-0.195
1865,-0.530,-0.210
1866,-0.540,-0.200
1867,-0.525,-0.185
1868,-0.520,-0.195
1869,-0.525,-0.220
1870,-0.525,-0.240
1871,-0.535,-0.250
1872,-0.540,-0.255
1873,-0.525,-0.235
1874,-0.525,-0.220
1875,-0.535,-0.240
1876,-0.540,-0.255
1877,-0.560,-0.260
1878,-0.575,-0.260
1879,-0.550,-0.270
1880,-0.540,-0.255
1881,-0.545,-0.265
1882,-0.550,-0.240
1883,-0.550,-0.225
1884,-0.535,-0.210
1885,-0.515,-0.205
1886,-0.510,-0.200
1887,-0.485,-0.215
1888,-0.480,-0.210
1889,-0.470,-0.205
1890,-0.435,-0.165
1891,-0.425,-0.150
1892,-0.410,-0.125
1893,-0.405,-0.105
1894,-0.415,-0.095
1895,-0.420,-0.065
1896,-0.410,-0.035
1897,-0.395,-0.015
1898,-0.385,-0.030
1899,-0.375,-0.050
1900,-0.380,-0.065
1901,-0.385,-0.050
1902,-0.385,-0.020
1903,-0.370,-0.025
1904,-0.335,-0.015
1905,-0.335,-0.030
1906,-0.335,-0.060
1907,-0.340,-0.075
1908,-0.345,-0.075
1909,-0.340,-0.070
1910,-0.330,-0.075
1911,-0.325,-0.060
1912,-0.325,-0.050
1913,-0.355,-0.020
1914,-0.375,0.020
1915,-0.365,0.030
1916,-0.375,0.005
1917,-0.400,-0.030
1918,-0.455,-0.045
1919,-0.505,-0.135
1920,-0.520,-0.385
1921,-0.485,-0.700
1922,-0.435,-1.040
1923,-0.400,-1.420
1924,-0.355,-1.870
1925,-0.310,-2.275
1926,-0.275,-2.575
1927,-0.245,-2.730
1928,-0.210,-2.780
1929,-0.175,-2.770
1930,-0.125,-2.675
1931,-0.025,-2.480
1932,0.125,-2.095
1933,0.300,-1.515
1934,0.435,-0.880
1935,0.485,-0.400
1936,0.425,-0.145
1937,0.370,-0.035
1938,0.275,0.025
1939,0.170,0.075
1940,0.070,0.075
1941,-0.035,0.095
1942,-0.135,0.105
1943,-0.230,0.125
1944,-0.260,0.145
1945,-0.265,0.155
1946,-0.255,0.160
1947,-0.250,0.135
1948,-0.260,0.150
1949,-0.285,0.160
1950,-0.280,0.180
1951,-0.280,0.205
1952,-0.280,0.195
1953,-0.295,0.200
1954,-0.275,0.195
1955,-0.270,0.190
1956,-0.255,0.205
1957,-0.245,0.220
1958,-0.230,0.240
1959,-0.230,0.230
1960,-0.245,0.205
1961,-0.255,0.195
1962,-0.265,0.200
1963,-0.245,0.205
1964,-0.225,0.205
1965,-0.220,0.200
1966,-0.235,0.190
1967,-0.225,0.190
1968,-0.210,0.205
1969,-0.215,0.215
1970,-0.190,0.215
1971,-0.180,0.220
1972,-0.180,0.195
1973,-0.175,0.185
1974,-0.180,0.195
1975,-0.170,0.195
1976,-0.160,0.205
1977,-0.170,0.225
1978,-0.170,0.220
1979,-0.185,0.225
1980,-0.175,0.240
1981,-0.160,0.230
1982,-0.150,0.235
1983,-0.145,0.225
1984,-0.140,0.210
1985,-0.165,0.205
1986,-0.155,0.215
1987,-0.135,0.225
1988,-0.105,0.225
1989,-0.110,0.215
1990,-0.115,0.205
1991,-0.115,0.195
1992,-0.100,0.200
1993,-0.085,0.185
1994,-0.065,0.185
1995,-0.065,0.175
1996,-0.075,0.160
1997,-0.085,0.145
1998,-0.075,0.160
1999,-0.045,0.165
2000,-0.010,0.150
2001,-0.030,0.140
2002,-0.015,0.110
2003,-0.025,0.095
2004,-0.020,0.105
2005,-0.015,0.100
2006,0.000,0.085
2007,0.000,0.065
2008,-0.005,0.020
2009,-0.020,-0.010
2010,-0.025,-0.010
2011,-0.025,-0.005
2012,0.000,-0.020
2013,0.005,-0.025
2014,-0.015,-0.040
2015,-0.030,-0.050
2016,0.005,-0.055
2017,0.005,-0.050
2018,0.030,-0.050
2019,0.030,-0.085
2020,0.030,-0.125
2021,0.010,-0.130
2022,0.015,-0.140
2023,0.020,-0.125
2024,0.010,-0.125
2025,0.005,-0.155
2026,0.000,-0.160
2027,-0.020,-0.160
2028,-0.020,-0.145
2029,-0.010,-0.145
2030,0.000,-0.170
2031,-0.025,-0.165
2032,-0.035,-0.190
2033,-0.065,-0.185
2034,-0.085,-0.160
2035,-0.085,-0.150
2036,-0.085,-0.150
2037,-0.080,-0.155
2038,-0.115,-0.175
2039,-0.125,-0.185
2040,-0.135,-0.140
2041,-0.140,-0.110
2042,-0.125,-0.095
2043,-0.145,-0.085
2044,-0.155,-0.090
2045,-0.175,-0.080
2046,-0.200,-0.075
2047,-0.200,-0.090
2048,-0.200,-0.085
2049,-0.205,-0.090
2050,-0.210,-0.095
2051,-0.230,-0.085
2052,-0.240,-0.090
2053,-0.235,-0.080
2054,-0.245,-0.080
2055,-0.250,-0.065
2056,-0.260,-0.055
2057,-0.285,-0.065
2058,-0.275,-0.045
2059,-0.255,-0.030
2060,-0.245,-0.055
2061,-0.255,-0.040
2062,-0.275,-0.040
2063,-0.310,-0.025
2064,-0.300,0.005
2065,-0.290,0.020
2066,-0.270,0.020
2067,-0.280,0.015
2068,-0.295,-0.005
2069,-0.315,-0.015
2070,-0.325,0.010
2071,-0.330,0.020
2072,-0.330,0.040
2073,-0.335,0.045
2074,-0.355,0.050
2075,-0.365,0.035
2076,-0.355,0.050
2077,-0.345,0.065
2078,-0.340,0.070
2079,-0.350,0.070
2080,-0.375,0.065
2081,-0.400,0.065
2082,-0.410,0.075
2083,-0.400,0.080
2084,-0.395,0.075
2085,-0.390,0.065
2086,-0.410,0.050
2087,-0.420,0.065
2088,-0.425,0.090
2089,-0.405,0.100
2090,-0.410,0.085
2091,-0.410,0.095
2092,-0.425,0.065
2093,-0.440,0.085
2094,-0.430,0.075
2095,-0.415,0.080
2096,-0.405,0.060
2097,-0.430,0.050
2098,-0.450,0.035
2099,-0.470,0.030
2100,-0.460,0.045
2101,-0.430,0.040
2102,-0.410,0.035
2103,-0.410,0.025
2104,-0.420,0.010
2105,-0.445,0.000
2106,-0.465,0.030
2107,-0.450,0.035
2108,-0.425,0.045
2109,-0.430,0.030
2110,-0.415,0.020
2111,-0.430,0.005
2112,-0.415,0.000
2113,-0.400,0.005
2114,-0.395,0.020
2115,-0.410,0.030
2116,-0.415,0.020
2117,-0.420,0.010
2118,-0.385,0.025
2119,-0.350,0.045
2120,-0.335,0.050
2121,-0.335,0.050
2122,-0.340,0.045
2123,-0.350,0.035
2124,-0.345,0.035
2125,-0.325,0.035
2126,-0.305,0.070
2127,-0.295,0.080
2128,-0.295,0.065
2129,-0.295,0.055
2130,-0.305,0.085
2131,-0.280,0.100
2132,-0.275,0.065
2133,-0.300,0.015
2134,-0.315,-0.070
2135,-0.340,-0.115
2136,-0.340,-0.135
2137,-0.335,-0.120
2138,-0.350,-0.125
2139,-0.360,-0.125
2140,-0.385,-0.165
2141,-0.405,-0.175
2142,-0.415,-0.160
2143,-0.435,-0.150
2144,-0.435,-0.135
2145,-0.430,-0.140
2146,-0.435,-0.155
2147,-0.430,-0.150
2148,-0.420,-0.165
2149,-0.385,-0.165
2150,-0.390,-0.175
2151,-0.405,-0.175
2152,-0.460,-0.205
2153,-0.470,-0.210
2154,-0.475,-0.190
2155,-0.475,-0.175
2156,-0.465,-0.170
2157,-0.445,-0.190
2158,-0.455,-0.220
2159,-0.440,-0.235
2160,-0.460,-0.230
2161,-0.475,-0.245
2162,-0.480,-0.255
2163,-0.490,-0.265
2164,-0.500,-0.280
2165,-0.500,-0.300
2166,-0.480,-0.300
2167,-0.465,-0.265
2168,-0.450,-0.260
2169,-0.470,-0.270
2170,-0.515,-0.300
2171,-0.545,-0.285
2172,-0.540,-0.245
2173,-0.515,-0.225
2174,-0.465,-0.205
2175,-0.425,-0.195
2176,-0.395,-0.195
2177,-0.390,-0.200
2178,-0.390,-0.180
2179,-0.395,-0.155
2180,-0.385,-0.120
2181,-0.390,-0.110
2182,-0.385,-0.100
2183,-0.370,-0.095
2184,-0.340,-0.070
2185,-0.310,-0.055
2186,-0.315,-0.055
2187,-0.350,-0.065
2188,-0.365,-0.075
2189,-0.375,-0.070
2190,-0.370,-0.055
2191,-0.355,-0.050
2192,-0.335,-0.055
2193,-0.310,-0.065
2194,-0.310,-0.065
2195,-0.300,-0.065
2196,-0.295,-0.055
2197,-0.305,-0.045
2198,-0.300,-0.040
2199,-0.315,-0.045
2200,-0.345,-0.030
2201,-0.375,-0.025
2202,-0.375,-0.015
2203,-0.380,-0.015
2204,-0.385,-0.020
2205,-0.445,-0.035
2206,-0.490,-0.080
2207,-0.525,-0.285
2208,-0.515,-0.570
2209,-0.480,-0.875
2210,-0.465,-1.170
2211,-0.440,-1.550
2212,-0.420,-1.975
2213,-0.370,-2.410
2214,-0.335,-2.725
2215,-0.310,-2.910
2216,-0.270,-2.945
2217,-0.245,-2.890
2218,-0.155,-2.675
2219,0.000,-2.245
2220,0.220,-1.610
2221,0.375,-0.975
2222,0.425,-0.340
2223,0.385,0.040
2224,0.325,0.125
2225,0.210,0.155
2226,0.090,0.170
2227,-0.035,0.190
2228,-0.095,0.190
2229,-0.140,0.195
2230,-0.185,0.200
2231,-0.230,0.225
2232,-0.235,0.230
2233,-0.235,0.200
2234,-0.230,0.180
2235,-0.250,0.170
2236,-0.240,0.185
2237,-0.265,0.195
2238,-0.250,0.215
2239,-0.240,0.230
2240,-0.210,0.240
2241,-0.210,0.235
2242,-0.230,0.220
2243,-0.250,0.210
2244,-0.245,0.210
2245,-0.260,0.215
2246,-0.230,0.235
2247,-0.205,0.220
2248,-0.210,0.195
2249,-0.230,0.180
2250,-0.220,0.205
2251,-0.180,0.235
2252,-0.150,0.245
2253,-0.155,0.230
2254,-0.165,0.225
2255,-0.175,0.225
2256,-0.165,0.215
2257,-0.150,0.220
2258,-0.140,0.205
2259,-0.145,0.200
2260,-0.150,0.170
2261,-0.170,0.145
2262,-0.175,0.160
2263,-0.160,0.185
2264,-0.145,0.225
2265,-0.130,0.230
2266,-0.115,0.230
2267,-0.125,0.215
2268,-0.130,0.225
2269,-0.120,0.210
2270,-0.110,0.200
2271,-0.110,0.165
2272,-0.115,0.160
2273,-0.100,0.185
2274,-0.090,0.200
2275,-0.065,0.200
2276,-0.065,0.185
2277,-0.065,0.170
2278,-0.055,0.175
2279,-0.050,0.175
2280,-0.065,0.200
2281,-0.040,0.190
2282,-0.015,0.160
2283,0.020,0.120
2284,0.005,0.085
2285,0.010,0.075
2286,0.015,0.085
2287,0.010,0.065
2288,0.000,0.050
2289,0.030,0.025
2290,0.055,0.000
2291,0.070,-0.010
2292,0.080,-0.010
2293,0.090,-0.015
2294,0.110,-0.030
2295,0.095,-0.070
2296,0.085,-0.110
2297,0.065,-0.125
2298,0.060,-0.115
2299,0.065,-0.110
2300,0.095,-0.105
2301,0.105,-0.140
2302,0.105,-0.190
2303,0.080,-0.220
2304,0.075,-0.210
2305,0.075,-0.190
2306,0.095,-0.160
2307,0.105,-0.170
2308,0.085,-0.195
2309,0.075,-0.240
2310,0.080,-0.250
2311,0.085,-0.255
2312,0.100,-0.235
2313,0.075,-0.250
2314,0.065,-0.280
2315,0.045,-0.295
2316,0.045,-0.270
2317,0.030,-0.225
2318,0.030,-0.225
2319,0.000,-0.210
2320,-0.030,-0.215
2321,-0.050,-0.235
2322,-0.075,-0.255
2323,-0.080,-0.265
2324,-0.080,-0.240
2325,-0.105,-0.230
2326,-0.125,-0.230
2327,-0.145,-0.230
2328,-0.130,-0.225
2329,-0.140,-0.220
2330,-0.140,-0.195
2331,-0.140,-0.200
2332,-0.145,-0.190
2333,-0.155,-0.200
2334,-0.180,-0.185
2335,-0.205,-0.175
2336,-0.190,-0.130
2337,-0.190,-0.130
2338,-0.190,-0.125
2339,-0.205,-0.155
2340,-0.200,-0.160
2341,-0.190,-0.145
2342,-0.175,-0.135
2343,-0.180,-0.125
2344,-0.200,-0.135
2345,-0.240,-0.130
2346,-0.250,-0.125
2347,-0.255,-0.115
2348,-0.245,-0.095
2349,-0.230,-0.085
2350,-0.225,-0.090
2351,-0.230,-0.080
2352,-0.235,-0.055
2353,-0.235,-0.035
2354,-0.235,-0.020
2355,-0.245,-0.035
2356,-0.265,-0.065
2357,-0.280,-0.060
2358,-0.275,-0.040
2359,-0.280,0.000
2360,-0.285,0.015
2361,-0.295,0.020
2362,-0.300,0.005
2363,-0.280,0.000
2364,-0.285,-0.025
2365,-0.290,-0.030
2366,-0.295,-0.025
2367,-0.300,-0.015
2368,-0.345,-0.015
2369,-0.335,-0.045
2370,-0.325,-0.040
2371,-0.310,-0.045
2372,-0.325,-0.035
2373,-0.345,-0.015
2374,-0.350,-0.035
2375,-0.355,-0.060
2376,-0.340,-0.075
2377,-0.295,-0.065
2378,-0.270,-0.055
2379,-0.265,-0.055
2380,-0.305,-0.060
2381,-0.310,-0.055
2382,-0.335,-0.075
2383,-0.325,-0.105
2384,-0.295,-0.110
2385,-0.295,-0.115
2386,-0.315,-0.115
2387,-0.325,-0.140
2388,-0.325,-0.135
2389,-0.320,-0.125
2390,-0.300,-0.130
2391,-0.305,-0.135
2392,-0.310,-0.125
2393,-0.315,-0.110
2394,-0.280,-0.070
2395,-0.220,-0.050
2396,-0.200,-0.060
2397,-0.195,-0.040
2398,-0.195,-0.040
2399,-0.205,-0.070
2400,-0.195,-0.100
2401,-0.185,-0.125
2402,-0.145,-0.140
2403,-0.145,-0.110
2404,-0.155,-0.065
2405,-0.165,-0.030
2406,-0.180,-0.015
2407,-0.170,-0.020
2408,-0.185,-0.065
2409,-0.185,-0.145
2410,-0.230,-0.230
2411,-0.275,-0.290
2412,-0.270,-0.295
2413,-0.265,-0.270
2414,-0.245,-0.260
2415,-0.260,-0.265
2416,-0.260,-0.300
2417,-0.260,-0.320
2418,-0.295,-0.315
2419,-0.315,-0.265
2420,-0.330,-0.210
2421,-0.335,-0.200
2422,-0.340,-0.240
2423,-0.315,-0.290
2424,-0.320,-0.285
2425,-0.305,-0.255
2426,-0.295,-0.260
2427,-0.295,-0.300
2428,-0.320,-0.365
2429,-0.345,-0.400
2430,-0.350,-0.385
2431,-0.315,-0.340
2432,-0.280,-0.285
2433,-0.305,-0.280
2434,-0.320,-0.330
2435,-0.360,-0.390
2436,-0.395,-0.400
2437,-0.410,-0.375
2438,-0.420,-0.345
2439,-0.410,-0.335
2440,-0.400,-0.355
2441,-0.385,-0.395
2442,-0.370,-0.400
2443,-0.380,-0.370
2444,-0.420,-0.310
2445,-0.440,-0.325
2446,-0.465,-0.375
2447,-0.485,-0.390
2448,-0.475,-0.395
2449,-0.450,-0.390
2450,-0.410,-0.385
2451,-0.400,-0.355
2452,-0.390,-0.340
2453,-0.380,-0.330
2454,-0.375,-0.320
2455,-0.380,-0.295
2456,-0.365,-0.270
2457,-0.350,-0.260
2458,-0.350,-0.235
2459,-0.350,-0.205
2460,-0.375,-0.185
2461,-0.385,-0.170
2462,-0.370,-0.145
2463,-0.355,-0.155
2464,-0.335,-0.160
2465,-0.310,-0.150
2466,-0.295,-0.135
2467,-0.275,-0.125
2468,-0.280,-0.150
2469,-0.295,-0.180
2470,-0.310,-0.180
2471,-0.310,-0.190
2472,-0.310,-0.190
2473,-0.300,-0.170
2474,-0.290,-0.165
2475,-0.300,-0.185
2476,-0.305,-0.180
2477,-0.325,-0.150
2478,-0.340,-0.130
2479,-0.370,-0.165
2480,-0.400,-0.215
2481,-0.440,-0.225
2482,-0.485,-0.280
2483,-0.470,-0.490
2484,-0.435,-0.780
2485,-0.400,-1.065
2486,-0.355,-1.370
2487,-0.350,-1.755
2488,-0.335,-2.185
2489,-0.305,-2.565
2490,-0.260,-2.830
2491,-0.235,-2.965
2492,-0.200,-2.995
2493,-0.170,-2.975
2494,-0.105,-2.885
2495,0.015,-2.655
2496,0.220,-2.185
2497,0.415,-1.550
2498,0.535,-0.915
2499,0.535,-0.305
2500,0.470,-0.095
2501,0.390,-0.010
2502,0.275,0.035
2503,0.130,0.050
2504,0.000,0.005
2505,-0.110,0.000
2506,-0.155,0.050
2507,-0.185,0.085
2508,-0.205,0.085
2509,-0.220,0.085
2510,-0.220,0.080
2511,-0.240,0.055
2512,-0.265,0.030
2513,-0.265,0.020
2514,-0.265,0.045
2515,-0.230,0.085
2516,-0.235,0.120
2517,-0.240,0.125
2518,-0.265,0.120
2519,-0.260,0.120
2520,-0.260,0.105
2521,-0.215,0.100
2522,-0.200,0.100
2523,-0.195,0.100
2524,-0.225,0.110
2525,-0.215,0.065
2526,-0.230,0.060
2527,-0.245,0.080
2528,-0.225,0.100
2529,-0.240,0.095
2530,-0.240,0.080
2531,-0.255,0.080
2532,-0.245,0.090
2533,-0.230,0.090
2534,-0.195,0.125
2535,-0.190,0.140
2536,-0.190,0.115
2537,-0.200,0.115
2538,-0.200,0.125
2539,-0.190,0.110
2540,-0.185,0.105
2541,-0.195,0.100
2542,-0.210,0.080
2543,-0.205,0.100
2544,-0.180,0.120
2545,-0.175,0.140
2546,-0.160,0.115
2547,-0.160,0.100
2548,-0.165,0.060
2549,-0.145,0.045
2550,-0.140,0.090
2551,-0.105,0.120
2552,-0.095,0.135
2553,-0.095,0.115
2554,-0.120,0.095
2555,-0.120,0.080
2556,-0.125,0.100
2557,-0.125,0.100
2558,-0.100,0.075
2559,-0.120,0.040
2560,-0.110,0.030
2561,-0.090,0.030
2562,-0.075,0.020
2563,-0.045,0.035
2564,-0.020,0.040
2565,-0.015,0.035
2566,-0.005,0.005
2567,-0.010,-0.020
2568,-0.020,-0.055
2569,-0.010,-0.055
2570,-0.010,-0.030
2571,-0.010,-0.050
2572,-0.025,-0.075
2573,-0.015,-0.070
2574,-0.015,-0.045
2575,0.010,-0.060
2576,0.025,-0.080
2577,0.040,-0.110
2578,0.035,-0.135
2579,0.035,-0.150
2580,0.030,-0.155
2581,0.055,-0.160
2582,0.065,-0.220
2583,0.085,-0.235
2584,0.065,-0.270
2585,0.035,-0.270
2586,0.020,-0.275
2587,-0.010,-0.270
2588,-0.025,-0.270
2589,-0.045,-0.245
2590,-0.045,-0.265
2591,-0.050,-0.290
2592,-0.060,-0.285
2593,-0.055,-0.270
2594,-0.050,-0.270
2595,-0.070,-0.275
2596,-0.080,-0.305
2597,-0.105,-0.315
2598,-0.110,-0.305
2599,-0.070,-0.275
2600,-0.045,-0.250
2601,-0.075,-0.255
2602,-0.095,-0.255
2603,-0.115,-0.265
2604,-0.120,-0.270
2605,-0.130,-0.255
2606,-0.135,-0.245
2607,-0.160,-0.240
2608,-0.175,-0.220
2609,-0.180,-0.210
2610,-0.190,-0.220
2611,-0.210,-0.230
2612,-0.220,-0.220
2613,-0.240,-0.205
2614,-0.245,-0.205
2615,-0.255,-0.195
2616,-0.240,-0.190
2617,-0.225,-0.185
2618,-0.230,-0.175
2619,-0.245,-0.160
2620,-0.285,-0.150
2621,-0.295,-0.160
2622,-0.305,-0.160
2623,-0.280,-0.135
2624,-0.270,-0.135
2625,-0.260,-0.140
2626,-0.250,-0.150
2627,-0.265,-0.135
2628,-0.280,-0.135
2629,-0.290,-0.125
2630,-0.275,-0.100
2631,-0.285,-0.080
2632,-0.290,-0.090
2633,-0.300,-0.105
2634,-0.315,-0.130
2635,-0.345,-0.095
2636,-0.310,-0.060
2637,-0.325,-0.060
2638,-0.345,-0.070
2639,-0.345,-0.090
2640,-0.360,-0.075
2641,-0.370,-0.050
2642,-0.350,0.000
2643,-0.350,-0.005
2644,-0.355,-0.025
2645,-0.360,-0.055
2646,-0.355,-0.060
2647,-0.350,-0.025
2648,-0.335,-0.005
2649,-0.350,-0.030
2650,-0.360,-0.035
2651,-0.385,-0.025
2652,-0.380,-0.010
2653,-0.355,-0.005
2654,-0.345,0.010
2655,-0.360,0.005
2656,-0.360,0.010
2657,-0.370,-0.010
2658,-0.385,-0.005
2659,-0.375,0.010
2660,-0.340,0.050
2661,-0.360,0.065
2662,-0.355,0.060
2663,-0.355,0.055
2664,-0.350,0.030
2665,-0.325,0.005
2666,-0.335,-0.035
2667,-0.330,-0.060
2668,-0.355,-0.065
2669,-0.355,-0.035
2670,-0.390,0.005
2671,-0.400,0.035
2672,-0.410,0.025
2673,-0.400,0.015
2674,-0.405,0.005
2675,-0.390,0.000
2676,-0.405,0.000
2677,-0.410,0.005
2678,-0.420,-0.005
2679,-0.420,0.015
2680,-0.405,-0.015
2681,-0.390,-0.040
2682,-0.390,-0.040
2683,-0.375,-0.045
2684,-0.370,-0.020
2685,-0.355,-0.025
2686,-0.350,-0.050
2687,-0.350,-0.075
2688,-0.350,-0.070
2689,-0.340,-0.030
2690,-0.340,-0.005
2691,-0.330,-0.005
2692,-0.295,0.010
2693,-0.295,-0.010
2694,-0.270,-0.030
2695,-0.255,-0.015
2696,-0.230,0.015
2697,-0.250,0.030
2698,-0.260,0.025
2699,-0.260,0.015
2700,-0.260,-0.005
2701,-0.240,-0.065
2702,-0.240,-0.135
2703,-0.250,-0.160
2704,-0.280,-0.175
2705,-0.310,-0.195
2706,-0.355,-0.210
2707,-0.385,-0.200
2708,-0.380,-0.195
2709,-0.390,-0.195
2710,-0.400,-0.225
2711,-0.410,-0.245
2712,-0.440,-0.250
2713,-0.425,-0.235
2714,-0.430,-0.225
2715,-0.450,-0.200
2716,-0.450,-0.180
2717,-0.435,-0.170
2718,-0.445,-0.190
2719,-0.440,-0.185
2720,-0.405,-0.200
2721,-0.400,-0.225
2722,-0.430,-0.250
2723,-0.440,-0.245
2724,-0.475,-0.275
2725,-0.480,-0.280
2726,-0.470,-0.275
2727,-0.495,-0.265
2728,-0.525,-0.265
2729,-0.530,-0.265
2730,-0.515,-0.275
2731,-0.510,-0.285
2732,-0.490,-0.305
2733,-0.485,-0.310
2734,-0.515,-0.325
2735,-0.535,-0.305
2736,-0.525,-0.295
2737,-0.520,-0.295
2738,-0.475,-0.290
2739,-0.495,-0.280
2740,-0.510,-0.295
2741,-0.535,-0.300
2742,-0.545,-0.285
2743,-0.535,-0.260
2744,-0.490,-0.220
2745,-0.460,-0.215
2746,-0.425,-0.210
2747,-0.410,-0.220
2748,-0.410,-0.195
2749,-0.415,-0.170
2750,-0.415,-0.140
2751,-0.415,-0.125
2752,-0.400,-0.115
2753,-0.410,-0.085
2754,-0.405,-0.080
2755,-0.405,-0.070
2756,-0.395,-0.050
2757,-0.395,-0.060
2758,-0.375,-0.085
2759,-0.370,-0.105
2760,-0.350,-0.095
2761,-0.340,-0.095
2762,-0.375,-0.080
2763,-0.400,-0.065
2764,-0.405,-0.080
2765,-0.390,-0.080
2766,-0.375,-0.110
2767,-0.360,-0.105
2768,-0.330,-0.080
2769,-0.365,-0.040
2770,-0.385,-0.040
2771,-0.425,-0.080
2772,-0.450,-0.090
2773,-0.465,-0.100
2774,-0.495,-0.070
2775,-0.540,-0.060
2776,-0.550,-0.230
2777,-0.550,-0.560
2778,-0.545,-0.885
2779,-0.515,-1.205
2780,-0.485,-1.560
2781,-0.465,-1.910
2782,-0.445,-2.260
2783,-0.420,-2.585
2784,-0.380,-2.840
2785,-0.365,-2.975
2786,-0.325,-3.020
2787,-0.295,-2.965
2788,-0.210,-2.800
2789,-0.030,-2.395
2790,0.175,-1.760
2791,0.350,-1.125
2792,0.420,-0.490
2793,0.380,0.095
2794,0.335,0.190
2795,0.240,0.195
2796,0.105,0.195
2797,-0.030,0.195
2798,-0.125,0.190
2799,-0.210,0.215
2800,-0.265,0.245
2801,-0.305,0.245
2802,-0.315,0.260
2803,-0.290,0.270
2804,-0.280,0.255
2805,-0.275,0.220
2806,-0.285,0.205
2807,-0.310,0.195
2808,-0.325,0.195
2809,-0.310,0.210
2810,-0.300,0.220
2811,-0.310,0.235
2812,-0.310,0.240
2813,-0.310,0.235
2814,-0.295,0.240
2815,-0.295,0.240
2816,-0.280,0.240
2817,-0.280,0.225
2818,-0.280,0.235
2819,-0.290,0.250
2820,-0.290,0.275
2821,-0.270,0.300
2822,-0.260,0.280
2823,-0.270,0.255
2824,-0.285,0.230
2825,-0.305,0.235
2826,-0.295,0.260
2827,-0.280,0.260
2828,-0.215,0.265
2829,-0.205,0.245
2830,-0.225,0.235
2831,-0.240,0.235
2832,-0.245,0.250
2833,-0.230,0.255
2834,-0.205,0.250
2835,-0.215,0.270
2836,-0.225,0.260
2837,-0.220,0.255
2838,-0.180,0.270
2839,-0.155,0.265
2840,-0.130,0.250
2841,-0.130,0.240
2842,-0.155,0.230
2843,-0.160,0.230
2844,-0.175,0.215
2845,-0.155,0.195
2846,-0.130,0.185
2847,-0.115,0.195
2848,-0.100,0.220
2849,-0.095,0.225
2850,-0.110,0.195
2851,-0.110,0.185
2852,-0.110,0.145
2853,-0.110,0.140
2854,-0.120,0.135
2855,-0.110,0.120
2856,-0.070,0.105
2857,-0.070,0.105
2858,-0.060,0.105
2859,-0.065,0.115
2860,-0.070,0.105
2861,-0.065,0.115
2862,-0.045,0.095
2863,-0.010,0.085
2864,0.025,0.050
2865,0.025,0.030
2866,0.015,0.005
2867,0.010,-0.035
2868,-0.015,-0.075
2869,-0.005,-0.075
2870,-0.005,-0.095
2871,-0.010,-0.100
2872,0.025,-0.130
2873,0.025,-0.140
2874,0.010,-0.140
2875,0.010,-0.140
2876,0.015,-0.135
2877,0.005,-0.150
2878,-0.015,-0.150
2879,-0.015,-0.175
2880,-0.025,-0.190
2881,-0.030,-0.210
2882,-0.025,-0.230
2883,-0.030,-0.220
2884,-0.035,-0.215
2885,-0.045,-0.210
2886,-0.055,-0.200
2887,-0.045,-0.175
2888,-0.045,-0.185
2889,-0.080,-0.230
2890,-0.120,-0.255
2891,-0.145,-0.250
2892,-0.155,-0.215
2893,-0.155,-0.175
2894,-0.150,-0.160
2895,-0.160,-0.145
2896,-0.145,-0.140
2897,-0.140,-0.150
2898,-0.165,-0.130
2899,-0.165,-0.125
2900,-0.165,-0.125
2901,-0.175,-0.135
2902,-0.180,-0.120
2903,-0.235,-0.130
2904,-0.245,-0.115
2905,-0.255,-0.120
2906,-0.260,-0.120
2907,-0.255,-0.125
2908,-0.275,-0.145
2909,-0.280,-0.135
2910,-0.285,-0.100
2911,-0.300,-0.065
2912,-0.280,-0.060
2913,-0.295,-0.070
2914,-0.305,-0.055
2915,-0.325,-0.040
2916,-0.325,-0.025
2917,-0.320,-0.015
2918,-0.320,-0.020
2919,-0.315,-0.035
2920,-0.320,-0.045
2921,-0.300,-0.035
2922,-0.285,-0.040
2923,-0.315,-0.030
2924,-0.325,-0.035
2925,-0.330,-0.030
2926,-0.340,-0.035
2927,-0.370,-0.030
2928,-0.385,-0.010
2929,-0.360,-0.005
2930,-0.365,0.000
2931,-0.360,0.000
2932,-0.345,0.010
2933,-0.360,0.020
2934,-0.365,0.040
2935,-0.380,0.055
2936,-0.395,0.055
2937,-0.395,0.030
2938,-0.395,0.035
2939,-0.425,0.035
2940,-0.435,0.050
2941,-0.425,0.050
2942,-0.405,0.060
2943,-0.435,0.030
2944,-0.470,0.005
2945,-0.470,0.005
2946,-0.460,0.010
2947,-0.455,0.035
2948,-0.430,0.050
2949,-0.425,0.050
2950,-0.430,0.040
2951,-0.440,0.010
2952,-0.455,0.005
2953,-0.455,0.005
2954,-0.460,0.025
2955,-0.485,0.035
2956,-0.505,0.030
2957,-0.480,0.005
2958,-0.480,-0.010
2959,-0.445,-0.020
2960,-0.455,-0.015
2961,-0.445,-0.020
2962,-0.455,-0.010
2963,-0.460,-0.005
2964,-0.475,-0.010
2965,-0.465,-0.020
2966,-0.455,-0.020
2967,-0.445,-0.025
2968,-0.435,-0.035
2969,-0.430,-0.030
2970,-0.415,-0.025
2971,-0.425,-0.010
2972,-0.425,-0.015
2973,-0.435,0.010
2974,-0.435,0.025
2975,-0.430,-0.010
2976,-0.410,-0.040
2977,-0.365,-0.035
2978,-0.335,0.000
2979,-0.335,0.055
2980,-0.360,0.070
2981,-0.360,0.045
2982,-0.360,0.035
2983,-0.340,0.010
2984,-0.335,0.020
2985,-0.345,0.040
2986,-0.350,0.040
2987,-0.350,0.045
2988,-0.345,0.050
2989,-0.325,0.060
2990,-0.315,0.070
2991,-0.320,0.065
2992,-0.325,0.025
2993,-0.325,-0.045
2994,-0.350,-0.100
2995,-0.345,-0.135
2996,-0.360,-0.160
2997,-0.390,-0.175
2998,-0.400,-0.195
2999,-0.410,-0.200
3000,-0.420,-0.175
3001,-0.410,-0.150
3002,-0.415,-0.155
3003,-0.455,-0.150
3004,-0.465,-0.155
3005,-0.470,-0.160
3006,-0.485,-0.155
3007,-0.465,-0.165
3008,-0.445,-0.190
3009,-0.455,-0.225
3010,-0.470,-0.235
3011,-0.470,-0.230
3012,-0.465,-0.215
3013,-0.455,-0.205
3014,-0.460,-0.195
3015,-0.470,-0.200
3016,-0.500,-0.220
3017,-0.550,-0.235
3018,-0.550,-0.245
3019,-0.540,-0.250
3020,-0.530,-0.260
3021,-0.520,-0.260
3022,-0.515,-0.255
3023,-0.530,-0.265
3024,-0.535,-0.255
3025,-0.540,-0.250
3026,-0.535,-0.270
3027,-0.550,-0.300
3028,-0.550,-0.290
3029,-0.555,-0.285
3030,-0.555,-0.290
3031,-0.550,-0.285
3032,-0.540,-0.280
3033,-0.540,-0.270
3034,-0.550,-0.275
3035,-0.570,-0.270
3036,-0.580,-0.275
3037,-0.575,-0.285
3038,-0.565,-0.285
3039,-0.575,-0.280
3040,-0.580,-0.295
3041,-0.580,-0.290
3042,-0.565,-0.240
3043,-0.530,-0.195
3044,-0.495,-0.170
3045,-0.495,-0.135
3046,-0.500,-0.115
3047,-0.515,-0.165
3048,-0.515,-0.175
3049,-0.470,-0.150
3050,-0.440,-0.105
3051,-0.420,-0.065
3052,-0.435,-0.055
3053,-0.440,-0.065
3054,-0.450,-0.090
3055,-0.445,-0.080
3056,-0.455,-0.065
3057,-0.465,-0.075
3058,-0.485,-0.100
3059,-0.490,-0.115
3060,-0.470,-0.105
3061,-0.440,-0.095
3062,-0.425,-0.065
3063,-0.410,-0.060
3064,-0.425,-0.050
3065,-0.430,-0.060
3066,-0.435,-0.045
3067,-0.440,-0.060
3068,-0.445,-0.045
3069,-0.430,-0.040
3070,-0.440,-0.040
3071,-0.470,-0.060
3072,-0.495,-0.075
3073,-0.510,-0.085
3074,-0.535,-0.100
3075,-0.590,-0.085
3076,-0.615,-0.170
3077,-0.620,-0.375
3078,-0.585,-0.640
3079,-0.545,-0.880
3080,-0.510,-1.170
3081,-0.485,-1.510
3082,-0.420,-1.905
3083,-0.370,-2.305
3084,-0.360,-2.610
3085,-0.355,-2.805
3086,-0.330,-2.900
3087,-0.325,-2.920
3088,-0.300,-2.895
3089,-0.210,-2.800
3090,-0.065,-2.560
3091,0.120,-2.125
3092,0.315,-1.490
3093,0.410,-0.855
3094,0.425,-0.285
3095,0.375,-0.045
3096,0.310,0.055
3097,0.215,0.130
3098,0.075,0.155
3099,-0.065,0.140
3100,-0.190,0.120
3101,-0.270,0.130
3102,-0.310,0.165
3103,-0.320,0.190
3104,-0.325,0.205
3105,-0.335,0.190
3106,-0.365,0.200
3107,-0.380,0.165
3108,-0.400,0.170
3109,-0.375,0.190
3110,-0.345,0.220
3111,-0.335,0.215
3112,-0.315,0.235
3113,-0.335,0.240
3114,-0.330,0.235
3115,-0.320,0.240
3116,-0.325,0.215
3117,-0.340,0.185
3118,-0.375,0.160
3119,-0.375,0.170
3120,-0.375,0.165
3121,-0.345,0.185
3122,-0.315,0.195
3123,-0.310,0.225
3124,-0.330,0.225
3125,-0.350,0.215
3126,-0.390,0.220
3127,-0.395,0.225
3128,-0.370,0.225
3129,-0.325,0.200
3130,-0.305,0.195
3131,-0.290,0.180
3132,-0.285,0.185
3133,-0.295,0.210
3134,-0.295,0.220
3135,-0.285,0.205
3136,-0.265,0.190
3137,-0.270,0.185
3138,-0.285,0.185
3139,-0.270,0.205
3140,-0.255,0.230
3141,-0.255,0.255
3142,-0.270,0.245
3143,-0.275,0.235
3144,-0.275,0.215
3145,-0.255,0.205
3146,-0.250,0.200
3147,-0.255,0.190
3148,-0.260,0.155
3149,-0.250,0.120
3150,-0.245,0.135
3151,-0.235,0.160
3152,-0.215,0.175
3153,-0.215,0.200
3154,-0.215,0.190
3155,-0.215,0.175
3156,-0.185,0.180
3157,-0.160,0.195
3158,-0.135,0.185
3159,-0.120,0.160
3160,-0.105,0.110
3161,-0.145,0.075
3162,-0.150,0.055
3163,-0.145,0.065
3164,-0.135,0.095
3165,-0.115,0.100
3166,-0.115,0.080
3167,-0.120,0.020
3168,-0.110,0.045
3169,-0.095,0.045
3170,-0.100,0.055
3171,-0.095,0.030
3172,-0.110,-0.010
3173,-0.130,-0.025
3174,-0.145,-0.035
3175,-0.125,-0.065
3176,-0.095,-0.065
3177,-0.075,-0.090
3178,-0.060,-0.120
3179,-0.050,-0.140
3180,-0.050,-0.140
3181,-0.060,-0.115
3182,-0.050,-0.120
3183,-0.065,-0.120
3184,-0.075,-0.155
3185,-0.085,-0.190
3186,-0.090,-0.220
3187,-0.085,-0.230
3188,-0.085,-0.205
3189,-0.090,-0.185
3190,-0.105,-0.175
3191,-0.115,-0.170
3192,-0.130,-0.155
3193,-0.135,-0.145
3194,-0.140,-0.155
3195,-0.170,-0.175
3196,-0.185,-0.210
3197,-0.165,-0.220
3198,-0.145,-0.215
3199,-0.150,-0.200
3200,-0.170,-0.170
3201,-0.210,-0.170
3202,-0.215,-0.180
3203,-0.245,-0.155
3204,-0.265,-0.130
3205,-0.245,-0.135
3206,-0.230,-0.145
3207,-0.230,-0.150
3208,-0.255,-0.190
3209,-0.265,-0.205
3210,-0.300,-0.190
3211,-0.305,-0.155
3212,-0.315,-0.130
3213,-0.310,-0.090
3214,-0.330,-0.085
3215,-0.355,-0.080
3216,-0.360,-0.060
3217,-0.335,-0.055
3218,-0.300,-0.060
3219,-0.290,-0.075
3220,-0.305,-0.085
3221,-0.320,-0.085
3222,-0.335,-0.065
3223,-0.345,-0.050
3224,-0.340,-0.030
3225,-0.355,-0.030
3226,-0.365,-0.050
3227,-0.350,-0.055
3228,-0.360,-0.060
3229,-0.350,-0.070
3230,-0.350,-0.065
3231,-0.360,-0.035
3232,-0.375,-0.030
3233,-0.380,-0.025
3234,-0.395,0.000
3235,-0.370,0.025
3236,-0.365,0.040
3237,-0.325,0.030
3238,-0.325,0.005
3239,-0.335,-0.010
3240,-0.330,0.000
3241,-0.335,0.005
3242,-0.345,0.035
3243,-0.380,0.035
3244,-0.375,0.030
3245,-0.385,0.030
3246,-0.395,0.045
3247,-0.375,0.060
3248,-0.370,0.075
3249,-0.370,0.080
3250,-0.375,0.085
3251,-0.390,0.070
3252,-0.420,0.055
3253,-0.420,0.060
3254,-0.425,0.060
3255,-0.400,0.065
3256,-0.410,0.035
3257,-0.415,0.005
3258,-0.425,0.015
3259,-0.425,0.050
3260,-0.415,0.070
3261,-0.400,0.080
3262,-0.410,0.060
3263,-0.445,0.025
3264,-0.465,0.015
3265,-0.465,0.040
3266,-0.455,0.055
3267,-0.425,0.035
3268,-0.415,0.025
3269,-0.400,0.015
3270,-0.415,0.050
3271,-0.415,0.045
3272,-0.420,0.055
3273,-0.415,0.065
3274,-0.420,0.050
3275,-0.425,0.025
3276,-0.415,0.005
3277,-0.410,-0.005
3278,-0.400,0.005
3279,-0.405,0.020
3280,-0.405,0.035
3281,-0.425,0.025
3282,-0.440,0.030
3283,-0.425,0.035
3284,-0.430,0.045
3285,-0.395,0.035
3286,-0.400,0.005
3287,-0.410,-0.045
3288,-0.385,-0.040
3289,-0.370,-0.015
3290,-0.360,0.015
3291,-0.330,0.035
3292,-0.330,0.040
3293,-0.340,0.060
3294,-0.335,0.075
3295,-0.290,0.085
3296,-0.250,0.090
3297,-0.245,0.090
3298,-0.255,0.060
3299,-0.265,0.050
3300,-0.275,0.045
3301,-0.270,0.065
3302,-0.280,0.080
3303,-0.290,0.040
3304,-0.290,-0.015
3305,-0.295,-0.065
3306,-0.315,-0.125
3307,-0.305,-0.150
3308,-0.295,-0.160
3309,-0.315,-0.175
3310,-0.335,-0.200
3311,-0.370,-0.200
3312,-0.410,-0.180
3313,-0.425,-0.165
3314,-0.420,-0.145
3315,-0.415,-0.130
3316,-0.410,-0.135
3317,-0.415,-0.145
3318,-0.410,-0.145
3319,-0.395,-0.140
3320,-0.390,-0.155
3321,-0.410,-0.165
3322,-0.430,-0.195
3323,-0.445,-0.205
3324,-0.460,-0.205
3325,-0.450,-0.180
3326,-0.435,-0.170
3327,-0.425,-0.175
3328,-0.425,-0.180
3329,-0.450,-0.175
3330,-0.460,-0.160
3331,-0.450,-0.170
3332,-0.455,-0.170
3333,-0.460,-0.195
3334,-0.485,-0.260
3335,-0.500,-0.340
3336,-0.495,-0.355
3337,-0.470,-0.315
3338,-0.480,-0.290
3339,-0.475,-0.280
3340,-0.495,-0.300
3341,-0.495,-0.310
3342,-0.495,-0.310
3343,-0.490,-0.290
3344,-0.495,-0.290
3345,-0.515,-0.280
3346,-0.535,-0.285
3347,-0.530,-0.285
3348,-0.525,-0.270
3349,-0.500,-0.245
3350,-0.470,-0.235
3351,-0.440,-0.220
3352,-0.410,-0.210
3353,-0.390,-0.215
3354,-0.370,-0.205
3355,-0.355,-0.155
3356,-0.375,-0.115
3357,-0.370,-0.075
3358,-0.375,-0.075
3359,-0.360,-0.085
3360,-0.350,-0.045
3361,-0.340,-0.020
3362,-0.330,0.005
3363,-0.340,-0.010
3364,-0.350,-0.025
3365,-0.365,-0.045
3366,-0.370,-0.040
3367,-0.355,-0.060
3368,-0.340,-0.060
3369,-0.330,-0.055
3370,-0.315,-0.070
3371,-0.325,-0.095
3372,-0.330,-0.075
3373,-0.305,-0.035
3374,-0.290,-0.020
3375,-0.290,-0.025
3376,-0.290,-0.045
3377,-0.305,-0.075
3378,-0.310,-0.055
3379,-0.310,-0.020
3380,-0.330,0.000
3381,-0.365,-0.020
3382,-0.420,-0.045
3383,-0.460,-0.055
3384,-0.500,-0.010
3385,-0.520,0.000
3386,-0.505,-0.130
3387,-0.460,-0.405
3388,-0.410,-0.710
3389,-0.380,-1.025
3390,-0.325,-1.370
3391,-0.270,-1.750
3392,-0.250,-2.165
3393,-0.235,-2.505
3394,-0.220,-2.745
3395,-0.210,-2.845
3396,-0.185,-2.845
3397,-0.095,-2.755
3398,0.045,-2.540
3399,0.245,-2.175
3400,0.440,-1.575
3401,0.555,-0.940
3402,0.570,-0.390
3403,0.530,-0.060
3404,0.460,0.080
3405,0.365,0.145
3406,0.250,0.170
3407,0.090,0.135
3408,-0.040,0.095
3409,-0.125,0.110
3410,-0.165,0.180
3411,-0.195,0.230
3412,-0.225,0.240
3413,-0.230,0.205
3414,-0.245,0.190
3415,-0.240,0.180
3416,-0.220,0.185
3417,-0.195,0.190
3418,-0.180,0.195
3419,-0.205,0.180
3420,-0.235,0.195
3421,-0.240,0.220
3422,-0.250,0.245
3423,-0.260,0.255
3424,-0.270,0.225
3425,-0.265,0.220
3426,-0.245,0.225
3427,-0.215,0.235
3428,-0.215,0.255
3429,-0.185,0.240
3430,-0.190,0.200
3431,-0.195,0.185
3432,-0.205,0.175
3433,-0.205,0.200
3434,-0.185,0.205
3435,-0.180,0.210
3436,-0.195,0.200
3437,-0.190,0.200
3438,-0.195,0.210
3439,-0.205,0.235
3440,-0.190,0.215
3441,-0.195,0.220
3442,-0.170,0.235
3443,-0.170,0.225
3444,-0.145,0.205
3445,-0.140,0.210
3446,-0.115,0.220
3447,-0.115,0.240
3448,-0.130,0.205
3449,-0.150,0.180
3450,-0.150,0.165
3451,-0.165,0.165
3452,-0.140,0.175
3453,-0.140,0.180
3454,-0.120,0.195
3455,-0.110,0.190
3456,-0.090,0.205
3457,-0.085,0.210
3458,-0.090,0.210
3459,-0.105,0.200
3460,-0.125,0.195
3461,-0.135,0.180
3462,-0.140,0.190
3463,-0.140,0.195
3464,-0.115,0.210
3465,-0.105,0.215
3466,-0.100,0.220
3467,-0.090,0.220
3468,-0.070,0.190
3469,-0.050,0.170
3470,-0.045,0.155
3471,-0.010,0.155
3472,-0.025,0.135
3473,-0.025,0.125
3474,-0.015,0.120
3475,0.005,0.105
3476,0.005,0.090
3477,0.030,0.085
3478,0.030,0.070
3479,0.015,0.060
3480,-0.005,0.055
3481,-0.015,0.040
3482,-0.005,0.035
3483,0.010,0.025
3484,0.035,0.000
3485,0.065,-0.025
3486,0.085,-0.035
3487,0.080,-0.040
3488,0.060,-0.040
3489,0.045,-0.065
3490,0.035,-0.110
3491,0.035,-0.125
3492,0.045,-0.110
3493,0.065,-0.100
3494,0.070,-0.110
3495,0.080,-0.140
3496,0.085,-0.145
3497,0.055,-0.145
3498,0.045,-0.135
3499,0.045,-0.125
3500,0.040,-0.115
3501,0.035,-0.135
3502,0.010,-0.155
3503,0.010,-0.160
3504,0.020,-0.175
3505,0.030,-0.165
3506,0.030,-0.145
3507,0.020,-0.150
3508,-0.020,-0.165
3509,-0.055,-0.200
3510,-0.085,-0.235
3511,-0.075,-0.235
3512,-0.080,-0.215
3513,-0.075,-0.195
3514,-0.080,-0.170
3515,-0.080,-0.140
3516,-0.105,-0.105
3517,-0.120,-0.110
3518,-0.125,-0.135
3519,-0.140,-0.145
3520,-0.165,-0.135
3521,-0.185,-0.150
3522,-0.205,-0.110
3523,-0.195,-0.110
3524,-0.190,-0.085
3525,-0.205,-0.070
3526,-0.200,-0.070
3527,-0.200,-0.085
3528,-0.215,-0.080
3529,-0.230,-0.075
3530,-0.215,-0.080
3531,-0.225,-0.085
3532,-0.235,-0.050
3533,-0.245,-0.045
3534,-0.270,-0.060
3535,-0.260,-0.080
3536,-0.265,-0.070
3537,-0.260,-0.055
3538,-0.270,-0.035
3539,-0.275,-0.035
3540,-0.285,-0.015
3541,-0.270,0.000
3542,-0.260,0.020
3543,-0.250,0.035
3544,-0.265,0.000
3545,-0.280,-0.015
3546,-0.285,0.020
3547,-0.300,0.050
3548,-0.315,0.045
3549,-0.320,0.010
3550,-0.320,0.005
3551,-0.330,0.010
3552,-0.315,0.055
3553,-0.285,0.065
3554,-0.280,0.080
3555,-0.280,0.095
3556,-0.315,0.090
3557,-0.335,0.065
3558,-0.345,0.075
3559,-0.330,0.090
3560,-0.340,0.080
3561,-0.350,0.080
3562,-0.355,0.055
3563,-0.375,0.050
3564,-0.390,0.040
3565,-0.385,0.050
3566,-0.390,0.060
3567,-0.385,0.070
3568,-0.380,0.065
3569,-0.365,0.060
3570,-0.390,0.070
3571,-0.390,0.075
3572,-0.385,0.085
3573,-0.380,0.075
3574,-0.380,0.050
3575,-0.395,0.015
3576,-0.390,0.005
3577,-0.385,-0.005
3578,-0.355,0.015
3579,-0.355,0.015
3580,-0.365,0.000
3581,-0.390,0.000
3582,-0.405,0.035
3583,-0.400,0.055
3584,-0.370,0.030
3585,-0.345,0.015
3586,-0.325,-0.010
3587,-0.330,-0.020
3588,-0.350,0.030
3589,-0.350,0.045
3590,-0.345,0.065
3591,-0.330,0.045
3592,-0.310,0.015
3593,-0.310,0.015
3594,-0.300,0.055
3595,-0.275,0.070
3596,-0.255,0.080
3597,-0.230,0.095
3598,-0.230,0.090
3599,-0.230,0.070
3600,-0.250,0.070
3601,-0.260,0.055
3602,-0.250,0.080
3603,-0.235,0.080
3604,-0.220,0.030
3605,-0.235,-0.065
3606,-0.250,-0.125
3607,-0.285,-0.165
3608,-0.305,-0.165
3609,-0.330,-0.140
3610,-0.340,-0.135
3611,-0.350,-0.135
3612,-0.375,-0.140
3613,-0.380,-0.150
3614,-0.370,-0.150
3615,-0.380,-0.145
3616,-0.395,-0.155
3617,-0.420,-0.175
3618,-0.435,-0.195
3619,-0.435,-0.185
3620,-0.425,-0.180
3621,-0.420,-0.130
3622,-0.415,-0.140
3623,-0.425,-0.190
3624,-0.410,-0.205
3625,-0.420,-0.200
3626,-0.430,-0.210
3627,-0.445,-0.190
3628,-0.465,-0.205
3629,-0.470,-0.215
3630,-0.470,-0.215
3631,-0.460,-0.215
3632,-0.450,-0.210
3633,-0.460,-0.215
3634,-0.480,-0.245
3635,-0.475,-0.240
3636,-0.495,-0.245
3637,-0.495,-0.245
3638,-0.510,-0.240
3639,-0.495,-0.240
3640,-0.500,-0.240
3641,-0.505,-0.235
3642,-0.505,-0.195
3643,-0.505,-0.170
3644,-0.475,-0.145
3645,-0.460,-0.145
3646,-0.465,-0.145
3647,-0.455,-0.155
3648,-0.445,-0.140
3649,-0.430,-0.100
3650,-0.410,-0.080
3651,-0.410,-0.070
3652,-0.410,-0.080
3653,-0.430,-0.060
3654,-0.420,-0.045
3655,-0.405,-0.005
3656,-0.390,0.015
3657,-0.360,0.005
3658,-0.350,-0.045
3659,-0.365,-0.060
3660,-0.370,-0.025
3661,-0.360,0.000
3662,-0.355,-0.005
3663,-0.350,-0.015
3664,-0.370,-0.035
3665,-0.375,-0.050
3666,-0.365,-0.035
3667,-0.360,-0.005
3668,-0.355,0.005
3669,-0.355,0.010
3670,-0.360,-0.010
3671,-0.380,0.015
3672,-0.390,0.030
3673,-0.405,0.030
3674,-0.415,0.005
3675,-0.440,0.000
3676,-0.495,0.010
3677,-0.515,-0.030
3678,-0.535,-0.205
3679,-0.505,-0.485
3680,-0.490,-0.760
3681,-0.460,-1.055
3682,-0.440,-1.405
3683,-0.435,-1.805
3684,-0.425,-2.165
3685,-0.395,-2.460
3686,-0.340,-2.690
3687,-0.275,-2.840
3688,-0.230,-2.890
3689,-0.195,-2.840
3690,-0.110,-2.565
3691,0.065,-1.960
3692,0.305,-1.325
3693,0.420,-0.690
3694,0.420,-0.055
3695,0.350,0.210
3696,0.230,0.230
3697,0.110,0.220
3698,-0.015,0.205
3699,-0.100,0.210
3700,-0.165,0.220
3701,-0.210,0.230
3702,-0.240,0.260
3703,-0.245,0.295
3704,-0.230,0.305
3705,-0.235,0.310
3706,-0.260,0.305
3707,-0.275,0.275
3708,-0.290,0.250
3709,-0.285,0.265
3710,-0.280,0.285
3711,-0.270,0.290
3712,-0.265,0.295
3713,-0.265,0.280
3714,-0.270,0.275
3715,-0.265,0.265
3716,-0.250,0.265
3717,-0.260,0.245
3718,-0.265,0.225
3719,-0.265,0.195
3720,-0.275,0.215
3721,-0.260,0.255
3722,-0.235,0.295
3723,-0.220,0.330
3724,-0.205,0.320
3725,-0.215,0.280
3726,-0.215,0.275
3727,-0.230,0.315
3728,-0.200,0.330
3729,-0.200,0.315
3730,-0.205,0.275
3731,-0.195,0.260
3732,-0.210,0.250
3733,-0.190,0.270
3734,-0.170,0.280
3735,-0.170,0.295
3736,-0.185,0.265
3737,-0.195,0.255
3738,-0.200,0.250
3739,-0.180,0.265
3740,-0.150,0.275
3741,-0.125,0.270
3742,-0.120,0.280
3743,-0.120,0.285
3744,-0.100,0.295
3745,-0.090,0.315
3746,-0.085,0.295
3747,-0.090,0.300
3748,-0.090,0.280
3749,-0.090,0.275
3750,-0.095,0.260
3751,-0.075,0.285
3752,-0.070,0.285
3753,-0.065,0.255
3754,-0.060,0.240
3755,-0.060,0.230
3756,-0.055,0.225
3757,-0.045,0.240
3758,-0.020,0.265
3759,-0.010,0.240
3760,0.005,0.210
3761,-0.010,0.185
3762,-0.010,0.180
3763,0.000,0.190
3764,0.030,0.220
3765,0.045,0.190
3766,0.040,0.150
3767,0.020,0.120
3768,0.025,0.110
3769,0.035,0.100
3770,0.040,0.080
3771,0.075,0.020
3772,0.060,-0.025
3773,0.065,-0.045
3774,0.045,-0.050
3775,0.035,-0.045
3776,0.040,-0.035
3777,0.060,-0.030
3778,0.050,-0.060
3779,0.065,-0.070
3780,0.050,-0.075
3781,0.055,-0.080
3782,0.060,-0.090
3783,0.055,-0.115
3784,0.060,-0.160
3785,0.035,-0.180
3786,0.015,-0.180
3787,0.025,-0.175
3788,0.045,-0.160
3789,0.035,-0.165
3790,0.035,-0.160
3791,0.030,-0.145
3792,0.010,-0.150
3793,-0.005,-0.155
3794,-0.020,-0.150
3795,-0.025,-0.125
3796,-0.040,-0.125
3797,-0.040,-0.135
3798,-0.060,-0.115
3799,-0.060,-0.100
3800,-0.070,-0.095
3801,-0.095,-0.120
3802,-0.100,-0.120
3803,-0.120,-0.140
3804,-0.155,-0.115
3805,-0.145,-0.095
3806,-0.135,-0.080
3807,-0.125,-0.100
3808,-0.140,-0.140
3809,-0.150,-0.125
3810,-0.160,-0.095
3811,-0.190,-0.060
3812,-0.175,-0.050
3813,-0.175,-0.055
3814,-0.180,-0.095
3815,-0.185,-0.100
3816,-0.200,-0.060
3817,-0.205,-0.040
3818,-0.225,-0.025
3819,-0.215,-0.025
3820,-0.220,-0.040
3821,-0.240,-0.040
3822,-0.260,-0.040
3823,-0.270,-0.040
3824,-0.245,-0.025
3825,-0.235,-0.010
3826,-0.240,0.000
3827,-0.235,-0.010
3828,-0.255,-0.015
3829,-0.235,0.020
3830,-0.240,0.055
3831,-0.255,0.060
3832,-0.265,0.045
3833,-0.295,0.020
3834,-0.305,0.030
3835,-0.285,0.075
3836,-0.255,0.085
3837,-0.270,0.060
3838,-0.275,0.065
3839,-0.300,0.070
3840,-0.315,0.075
3841,-0.330,0.075
3842,-0.345,0.075
3843,-0.350,0.070
3844,-0.340,0.040
3845,-0.340,0.015
3846,-0.335,0.030
3847,-0.325,0.060
3848,-0.315,0.070
3849,-0.315,0.070
3850,-0.335,0.090
3851,-0.350,0.085
3852,-0.355,0.070
3853,-0.350,0.075
3854,-0.340,0.085
3855,-0.350,0.080
3856,-0.350,0.070
3857,-0.365,0.045
3858,-0.375,0.030
3859,-0.380,0.030
3860,-0.360,0.040
3861,-0.365,0.040
3862,-0.365,0.015
3863,-0.375,0.010
3864,-0.385,0.010
3865,-0.365,0.035
3866,-0.345,0.050
3867,-0.340,0.030
3868,-0.360,0.005
3869,-0.365,0.015
3870,-0.380,0.035
3871,-0.370,0.045
3872,-0.380,0.030
3873,-0.360,0.000
3874,-0.350,-0.005
3875,-0.365,-0.020
3876,-0.385,-0.035
3877,-0.390,-0.020
3878,-0.390,0.040
3879,-0.395,0.070
3880,-0.380,0.060
3881,-0.370,0.030
3882,-0.365,0.000
3883,-0.345,0.020
3884,-0.310,0.070
3885,-0.300,0.075
3886,-0.290,0.070
3887,-0.285,0.055
3888,-0.285,0.040
3889,-0.270,0.040
3890,-0.250,0.050
3891,-0.245,0.055
3892,-0.235,0.045
3893,-0.250,0.050
3894,-0.260,0.085
3895,-0.250,0.140
3896,-0.240,0.140
3897,-0.245,0.090
3898,-0.245,0.005
3899,-0.275,-0.075
3900,-0.265,-0.135
3901,-0.270,-0.155
3902,-0.285,-0.160
3903,-0.300,-0.175
3904,-0.325,-0.180
3905,-0.365,-0.160
3906,-0.390,-0.125
3907,-0.385,-0.085
3908,-0.360,-0.060
3909,-0.370,-0.075
3910,-0.385,-0.135
3911,-0.415,-0.190
3912,-0.420,-0.225
3913,-0.420,-0.200
3914,-0.405,-0.140
3915,-0.415,-0.125
3916,-0.430,-0.140
3917,-0.430,-0.160
3918,-0.455,-0.175
3919,-0.455,-0.180
3920,-0.455,-0.185
3921,-0.430,-0.210
3922,-0.425,-0.240
3923,-0.435,-0.235
3924,-0.455,-0.210
3925,-0.475,-0.175
3926,-0.470,-0.145
3927,-0.480,-0.175
3928,-0.480,-0.220
3929,-0.480,-0.240
3930,-0.490,-0.255
3931,-0.480,-0.250
3932,-0.455,-0.240
3933,-0.450,-0.230
3934,-0.470,-0.225
3935,-0.505,-0.210
3936,-0.520,-0.235
3937,-0.510,-0.220
3938,-0.485,-0.195
3939,-0.445,-0.195
3940,-0.440,-0.190
3941,-0.440,-0.180
3942,-0.445,-0.170
3943,-0.415,-0.125
3944,-0.405,-0.095
3945,-0.395,-0.090
3946,-0.395,-0.095
3947,-0.375,-0.120
3948,-0.380,-0.100
3949,-0.385,-0.065
3950,-0.385,-0.030
3951,-0.380,-0.020
3952,-0.385,-0.030
3953,-0.380,-0.020
3954,-0.385,-0.020
3955,-0.375,-0.015
3956,-0.345,0.000
3957,-0.320,0.005
3958,-0.325,0.005
3959,-0.350,-0.005
3960,-0.365,-0.030
3961,-0.360,-0.035
3962,-0.360,-0.040
3963,-0.340,-0.025
3964,-0.360,-0.025
3965,-0.360,-0.005
3966,-0.395,-0.020
3967,-0.410,-0.045
3968,-0.435,-0.060
3969,-0.460,-0.040
3970,-0.515,-0.040
3971,-0.545,-0.190
3972,-0.505,-0.490
3973,-0.465,-0.795
3974,-0.405,-1.090
3975,-0.390,-1.450
3976,-0.350,-1.885
3977,-0.305,-2.290
3978,-0.265,-2.585
3979,-0.240,-2.735
3980,-0.220,-2.765
3981,-0.180,-2.725
3982,-0.115,-2.590
3983,0.030,-2.245
3984,0.210,-1.620
3985,0.365,-0.985
3986,0.430,-0.350
3987,0.405,0.050
3988,0.345,0.155
3989,0.230,0.205
3990,0.085,0.190
3991,-0.020,0.165
3992,-0.110,0.150
3993,-0.165,0.200
3994,-0.220,0.210
3995,-0.270,0.210
3996,-0.295,0.230
3997,-0.320,0.250
3998,-0.310,0.270
3999,-0.295,0.270
4000,-0.295,0.245
4001,-0.285,0.225
4002,-0.285,0.225
4003,-0.275,0.255
4004,-0.265,0.275
4005,-0.255,0.260
4006,-0.280,0.230
4007,-0.285,0.225
4008,-0.285,0.235
4009,-0.245,0.270
4010,-0.220,0.285
4011,-0.235,0.275
4012,-0.250,0.270
4013,-0.255,0.260
4014,-0.225,0.250
4015,-0.205,0.240
4016,-0.180,0.255
4017,-0.160,0.285
4018,-0.155,0.295
4019,-0.180,0.260
4020,-0.205,0.235
4021,-0.215,0.260
4022,-0.230,0.270
4023,-0.235,0.270
4024,-0.245,0.285
4025,-0.240,0.285
4026,-0.210,0.265
4027,-0.195,0.290
4028,-0.170,0.280
4029,-0.165,0.255
4030,-0.165,0.240
4031,-0.155,0.230
4032,-0.180,0.235
4033,-0.175,0.285
4034,-0.155,0.315
4035,-0.145,0.315
4036,-0.125,0.275
4037,-0.125,0.240
4038,-0.125,0.240
4039,-0.115,0.260
4040,-0.110,0.275
4041,-0.125,0.280
4042,-0.115,0.270
4043,-0.115,0.255
4044,-0.080,0.255
4045,-0.050,0.255
4046,-0.025,0.255
4047,-0.005,0.235
4048,-0.035,0.195
4049,-0.040,0.170
4050,-0.055,0.155
4051,-0.060,0.175
4052,-0.040,0.190
4053,-0.025,0.155
4054,-0.020,0.140
4055,-0.010,0.115
4056,-0.020,0.095
4057,-0.020,0.100
4058,-0.015,0.080
4059,-0.005,0.060
4060,-0.010,0.055
4061,-0.010,0.050
4062,-0.005,0.030
4063,0.015,0.030
4064,0.035,0.030
4065,0.060,-0.020
4066,0.050,-0.030
4067,0.025,-0.030
4068,0.025,-0.045
4069,0.020,-0.055
4070,0.025,-0.050
4071,0.025,-0.040
4072,0.035,-0.060
4073,0.030,-0.080
4074,0.020,-0.115
4075,0.010,-0.100
4076,0.010,-0.100
4077,0.010,-0.115
4078,0.000,-0.120
4079,-0.015,-0.125
4080,-0.040,-0.130
4081,-0.040,-0.145
4082,-0.010,-0.125
4083,-0.015,-0.135
4084,-0.015,-0.120
4085,-0.030,-0.125
4086,-0.060,-0.110
4087,-0.080,-0.085
4088,-0.095,-0.060
4089,-0.095,-0.060
4090,-0.095,-0.095
4091,-0.110,-0.105
4092,-0.120,-0.095
4093,-0.115,-0.050
4094,-0.125,-0.030
4095,-0.135,-0.025
4096,-0.170,-0.020
4097,-0.200,-0.020
4098,-0.225,-0.010
4099,-0.245,-0.005
4100,-0.235,-0.005
4101,-0.230,0.000
4102,-0.230,0.000
4103,-0.250,0.010
4104,-0.255,0.005
4105,-0.265,-0.005
4106,-0.255,0.005
4107,-0.250,-0.005
4108,-0.230,-0.010
4109,-0.255,-0.020
4110,-0.260,-0.015
4111,-0.255,0.025
4112,-0.255,0.055
4113,-0.290,0.075
4114,-0.295,0.070
4115,-0.295,0.075
4116,-0.310,0.050
4117,-0.285,0.080
4118,-0.255,0.070
4119,-0.250,0.060
4120,-0.255,0.050
4121,-0.275,0.060
4122,-0.280,0.100
4123,-0.285,0.125
4124,-0.285,0.125
4125,-0.295,0.130
4126,-0.305,0.125
4127,-0.320,0.125
4128,-0.315,0.130
4129,-0.300,0.140
4130,-0.280,0.140
4131,-0.295,0.125
4132,-0.305,0.120
4133,-0.345,0.140
4134,-0.355,0.145
4135,-0.345,0.160
4136,-0.335,0.175
4137,-0.325,0.175
4138,-0.330,0.165
4139,-0.350,0.170
4140,-0.360,0.150
4141,-0.360,0.135
4142,-0.370,0.140
4143,-0.370,0.145
4144,-0.380,0.125
4145,-0.385,0.120
4146,-0.405,0.095
4147,-0.385,0.120
4148,-0.375,0.125
4149,-0.365,0.140
4150,-0.380,0.135
4151,-0.400,0.135
4152,-0.400,0.140
4153,-0.410,0.145
4154,-0.405,0.140
4155,-0.370,0.120
4156,-0.355,0.090
4157,-0.355,0.060
4158,-0.355,0.065
4159,-0.355,0.090
4160,-0.375,0.110
4161,-0.370,0.110
4162,-0.380,0.080
4163,-0.395,0.060
4164,-0.400,0.035
4165,-0.380,0.065
4166,-0.365,0.090
4167,-0.325,0.110
4168,-0.335,0.105
4169,-0.340,0.110
4170,-0.345,0.080
4171,-0.320,0.090
4172,-0.305,0.120
4173,-0.285,0.135
4174,-0.260,0.145
4175,-0.235,0.130
4176,-0.225,0.125
4177,-0.210,0.130
4178,-0.200,0.115
4179,-0.195,0.130
4180,-0.220,0.135
4181,-0.245,0.145
4182,-0.265,0.155
4183,-0.255,0.160
4184,-0.225,0.120
4185,-0.185,0.040
4186,-0.190,-0.035
4187,-0.205,-0.070
4188,-0.240,-0.095
4189,-0.285,-0.090
4190,-0.320,-0.090
4191,-0.355,-0.075
4192,-0.355,-0.090
4193,-0.345,-0.090
4194,-0.345,-0.080
4195,-0.335,-0.085
4196,-0.360,-0.085
4197,-0.365,-0.080
4198,-0.395,-0.105
4199,-0.425,-0.095
4200,-0.415,-0.110
4201,-0.400,-0.070
4202,-0.370,-0.055
4203,-0.350,-0.065
4204,-0.350,-0.075
4205,-0.365,-0.115
4206,-0.390,-0.150
4207,-0.410,-0.150
4208,-0.425,-0.150
4209,-0.420,-0.145
4210,-0.435,-0.155
4211,-0.460,-0.160
4212,-0.450,-0.175
4213,-0.460,-0.160
4214,-0.455,-0.160
4215,-0.445,-0.155
4216,-0.465,-0.180
4217,-0.475,-0.185
4218,-0.485,-0.205
4219,-0.460,-0.210
4220,-0.430,-0.180
4221,-0.435,-0.155
4222,-0.475,-0.135
4223,-0.490,-0.150
4224,-0.515,-0.170
4225,-0.500,-0.150
4226,-0.465,-0.130
4227,-0.430,-0.120
4228,-0.410,-0.125
4229,-0.405,-0.135
4230,-0.380,-0.130
4231,-0.370,-0.095
4232,-0.355,-0.060
4233,-0.365,-0.045
4234,-0.390,-0.070
4235,-0.415,-0.065
4236,-0.410,-0.040
4237,-0.400,0.010
4238,-0.385,0.045
4239,-0.360,0.035
4240,-0.355,0.000
4241,-0.335,-0.020
4242,-0.335,-0.010
4243,-0.300,0.005
4244,-0.280,0.030
4245,-0.275,0.035
4246,-0.295,0.035
4247,-0.320,0.010
4248,-0.335,0.015
4249,-0.330,0.040
4250,-0.300,0.045
4251,-0.285,0.050
4252,-0.280,0.030
4253,-0.305,0.040
4254,-0.355,0.055
4255,-0.345,0.110
4256,-0.365,0.110
4257,-0.395,0.100
4258,-0.435,0.100
4259,-0.460,0.085
4260,-0.470,-0.065
4261,-0.450,-0.325
4262,-0.400,-0.625
4263,-0.360,-0.980
4264,-0.320,-1.420
4265,-0.285,-1.905
4266,-0.250,-2.345
4267,-0.185,-2.620
4268,-0.165,-2.745
4269,-0.140,-2.755
4270,-0.085,-2.675
4271,0.040,-2.445
4272,0.215,-1.975
4273,0.420,-1.340
4274,0.535,-0.705
4275,0.545,-0.070
4276,0.470,0.240
4277,0.380,0.270
4278,0.290,0.275
4279,0.150,0.245
4280,0.005,0.210
4281,-0.090,0.210
4282,-0.155,0.225
4283,-0.210,0.250
4284,-0.230,0.265
4285,-0.230,0.285
4286,-0.235,0.305
4287,-0.215,0.300
4288,-0.240,0.285
4289,-0.250,0.265
4290,-0.260,0.250
4291,-0.255,0.290
4292,-0.240,0.325
4293,-0.215,0.355
4294,-0.195,0.335
4295,-0.190,0.295
4296,-0.175,0.265
4297,-0.195,0.260
4298,-0.200,0.290
4299,-0.200,0.310
4300,-0.200,0.290
4301,-0.195,0.270
4302,-0.210,0.280
4303,-0.215,0.290
4304,-0.210,0.310
4305,-0.205,0.325
4306,-0.190,0.325
4307,-0.200,0.300
4308,-0.220,0.265
4309,-0.200,0.275
4310,-0.180,0.280
4311,-0.160,0.285
4312,-0.155,0.275
4313,-0.165,0.290
4314,-0.160,0.315
4315,-0.165,0.325
4316,-0.175,0.315
4317,-0.170,0.295
4318,-0.155,0.280
4319,-0.160,0.270
4320,-0.145,0.260
4321,-0.140,0.265
4322,-0.115,0.295
4323,-0.115,0.315
4324,-0.130,0.315
4325,-0.140,0.315
4326,-0.110,0.285
4327,-0.100,0.260
4328,-0.075,0.245
4329,-0.045,0.255
4330,-0.050,0.270
4331,-0.045,0.260
4332,-0.065,0.235
4333,-0.075,0.215
4334,-0.070,0.195
4335,-0.065,0.175
4336,-0.065,0.180
4337,-0.060,0.190
4338,-0.030,0.205
4339,-0.015,0.225
4340,0.005,0.230
4341,0.015,0.200
4342,0.010,0.150
4343,-0.005,0.125
4344,-0.030,0.110
4345,-0.005,0.130
4346,0.010,0.100
4347,0.035,0.080
4348,0.045,0.055
4349,0.060,0.040
4350,0.050,0.000
4351,0.030,-0.020
4352,0.015,-0.060
4353,0.030,-0.060
4354,0.035,-0.045
4355,0.065,-0.035
4356,0.080,-0.020
4357,0.070,-0.020
4358,0.065,-0.030
4359,0.045,-0.030
4360,0.040,-0.065
4361,0.035,-0.100
4362,0.035,-0.120
4363,0.040,-0.080
4364,0.060,-0.065
4365,0.060,-0.075
4366,0.040,-0.085
4367,0.010,-0.100
4368,-0.015,-0.115
4369,-0.040,-0.120
4370,-0.065,-0.110
4371,-0.065,-0.100
4372,-0.050,-0.105
4373,-0.060,-0.120
4374,-0.095,-0.105
4375,-0.115,-0.075
4376,-0.125,-0.050
4377,-0.140,-0.060
4378,-0.165,-0.085
4379,-0.195,-0.085
4380,-0.190,-0.050
4381,-0.195,-0.010
4382,-0.190,0.015
4383,-0.210,0.015
4384,-0.245,0.015
4385,-0.255,-0.030
4386,-0.245,-0.055
4387,-0.235,-0.030
4388,-0.225,0.020
4389,-0.225,0.015
4390,-0.245,-0.035
4391,-0.250,-0.065
4392,-0.240,-0.050
4393,-0.235,-0.005
4394,-0.245,0.040
4395,-0.265,0.045
4396,-0.270,0.015
4397,-0.235,0.020
4398,-0.225,0.045
4399,-0.220,0.070
4400,-0.235,0.090
4401,-0.235,0.095
4402,-0.260,0.080
4403,-0.270,0.075
4404,-0.290,0.080
4405,-0.285,0.105
4406,-0.255,0.125
4407,-0.265,0.135
4408,-0.260,0.135
4409,-0.275,0.135
4410,-0.305,0.150
4411,-0.325,0.155
4412,-0.320,0.170
4413,-0.305,0.165
4414,-0.285,0.170
4415,-0.300,0.175
4416,-0.310,0.165
4417,-0.315,0.165
4418,-0.310,0.180
4419,-0.305,0.165
4420,-0.325,0.135
4421,-0.355,0.075
4422,-0.355,0.075
4423,-0.370,0.110
4424,-0.350,0.175
4425,-0.345,0.205
4426,-0.370,0.175
4427,-0.370,0.155
4428,-0.375,0.150
4429,-0.380,0.135
4430,-0.375,0.110
4431,-0.370,0.100
4432,-0.355,0.085
4433,-0.360,0.060
4434,-0.370,0.060
4435,-0.365,0.085
4436,-0.385,0.095
4437,-0.405,0.085
4438,-0.415,0.055
4439,-0.390,0.065
4440,-0.365,0.085
4441,-0.355,0.085
4442,-0.370,0.095
4443,-0.370,0.110
4444,-0.360,0.115
4445,-0.340,0.080
4446,-0.290,0.085
4447,-0.220,0.115
4448,-0.195,0.165
4449,-0.205,0.185
4450,-0.220,0.170
4451,-0.240,0.120
4452,-0.215,0.100
4453,-0.205,0.095
4454,-0.190,0.120
4455,-0.170,0.135
4456,-0.170,0.150
4457,-0.190,0.150
4458,-0.235,0.175
4459,-0.255,0.145
4460,-0.260,0.090
4461,-0.250,0.010
4462,-0.245,-0.080
4463,-0.245,-0.120
4464,-0.260,-0.135
4465,-0.290,-0.080
4466,-0.325,-0.040
4467,-0.345,-0.040
4468,-0.335,-0.070
4469,-0.345,-0.100
4470,-0.360,-0.115
4471,-0.355,-0.100
4472,-0.345,-0.085
4473,-0.335,-0.100
4474,-0.355,-0.115
4475,-0.390,-0.115
4476,-0.405,-0.115
4477,-0.405,-0.095
4478,-0.390,-0.100
4479,-0.375,-0.100
4480,-0.360,-0.120
4481,-0.380,-0.145
4482,-0.395,-0.185
4483,-0.405,-0.175
4484,-0.395,-0.160
4485,-0.400,-0.180
4486,-0.425,-0.195
4487,-0.455,-0.225
4488,-0.475,-0.225
4489,-0.460,-0.195
4490,-0.450,-0.195
4491,-0.445,-0.185
4492,-0.445,-0.185
4493,-0.465,-0.175
4494,-0.475,-0.150
4495,-0.465,-0.135
4496,-0.430,-0.145
4497,-0.390,-0.155
4498,-0.370,-0.140
4499,-0.370,-0.135
4500,-0.365,-0.110
4501,-0.370,-0.065
4502,-0.375,-0.025
4503,-0.345,-0.025
4504,-0.350,-0.030
4505,-0.360,-0.045
4506,-0.375,-0.040
4507,-0.375,-0.005
4508,-0.335,0.065
4509,-0.330,0.090
4510,-0.345,0.075
4511,-0.335,0.065
4512,-0.360,0.050
4513,-0.330,0.050
4514,-0.285,0.055
4515,-0.245,0.035
4516,-0.230,0.020
4517,-0.255,0.020
4518,-0.290,-0.005
4519,-0.295,0.020
4520,-0.300,0.065
4521,-0.310,0.075
4522,-0.320,0.065
4523,-0.330,0.035
4524,-0.370,0.010
4525,-0.410,0.030
4526,-0.450,0.080
4527,-0.475,0.065
4528,-0.480,-0.140
4529,-0.470,-0.490
4530,-0.435,-0.795
4531,-0.375,-1.075
4532,-0.325,-1.395
4533,-0.285,-1.825
4534,-0.265,-2.275
4535,-0.245,-2.620
4536,-0.230,-2.750
4537,-0.210,-2.730
4538,-0.115,-2.570
4539,0.070,-2.200
4540,0.305,-1.565
4541,0.500,-0.930
4542,0.530,-0.295
4543,0.440,0.200
4544,0.350,0.285
4545,0.265,0.290
4546,0.115,0.285
4547,-0.015,0.265
4548,-0.110,0.290
4549,-0.160,0.325
4550,-0.205,0.350
4551,-0.220,0.335
4552,-0.210,0.280
4553,-0.200,0.280
4554,-0.190,0.295
4555,-0.170,0.330
4556,-0.165,0.325
4557,-0.160,0.320
4558,-0.145,0.325
4559,-0.160,0.325
4560,-0.185,0.310
4561,-0.185,0.330
4562,-0.190,0.330
4563,-0.175,0.335
4564,-0.170,0.335
4565,-0.160,0.340
4566,-0.170,0.335
4567,-0.165,0.335
4568,-0.175,0.325
4569,-0.170,0.320
4570,-0.175,0.315
4571,-0.140,0.325
4572,-0.120,0.300
4573,-0.110,0.310
4574,-0.090,0.310
4575,-0.095,0.360
4576,-0.115,0.370
4577,-0.115,0.375
4578,-0.115,0.345
4579,-0.105,0.320
4580,-0.095,0.300
4581,-0.065,0.280
4582,-0.065,0.280
4583,-0.075,0.275
4584,-0.090,0.305
4585,-0.100,0.335
4586,-0.105,0.325
4587,-0.110,0.315
4588,-0.110,0.310
4589,-0.095,0.275
4590,-0.080,0.270
4591,-0.065,0.290
4592,-0.030,0.315
4593,0.010,0.325
4594,-0.010,0.320
4595,-0.045,0.320
4596,-0.070,0.290
4597,-0.050,0.280
4598,-0.020,0.270
4599,0.040,0.255
4600,0.050,0.240
4601,0.035,0.210
4602,0.015,0.205
4603,0.025,0.255
4604,0.045,0.255
4605,0.055,0.225
4606,0.055,0.190
4607,0.070,0.160
4608,0.080,0.120
4609,0.070,0.095
4610,0.080,0.100
4611,0.075,0.125
4612,0.070,0.125
4613,0.050,0.110
4614,0.065,0.085
4615,0.090,0.070
4616,0.105,0.040
4617,0.095,0.020
4618,0.080,0.000
4619,0.080,-0.040
4620,0.090,-0.050
4621,0.130,-0.050
4622,0.155,-0.055
4623,0.140,-0.085
4624,0.115,-0.095
4625,0.110,-0.115
4626,0.085,-0.100
4627,0.090,-0.095
4628,0.120,-0.060
4629,0.145,-0.045
4630,0.140,-0.025
4631,0.105,-0.020
4632,0.085,-0.035
4633,0.075,-0.045
4634,0.085,-0.065
4635,0.100,-0.110
4636,0.095,-0.150
4637,0.065,-0.165
4638,0.005,-0.145
4639,-0.005,-0.105
4640,-0.020,-0.060
4641,-0.030,-0.035
4642,-0.040,-0.025
4643,-0.070,-0.015
4644,-0.080,-0.015
4645,-0.065,-0.010
4646,-0.065,0.010
4647,-0.075,0.005
4648,-0.090,-0.010
4649,-0.105,-0.040
4650,-0.130,-0.065
4651,-0.115,-0.030
4652,-0.105,0.005
4653,-0.125,0.010
4654,-0.125,-0.005
4655,-0.135,-0.015
4656,-0.160,-0.015
4657,-0.180,0.000
4658,-0.205,0.005
4659,-0.230,0.005
4660,-0.235,0.000
4661,-0.215,0.000
4662,-0.185,0.030
4663,-0.185,0.065
4664,-0.170,0.095
4665,-0.195,0.075
4666,-0.190,0.075
4667,-0.215,0.060
4668,-0.240,0.040
4669,-0.235,0.065
4670,-0.230,0.075
4671,-0.225,0.085
4672,-0.230,0.085
4673,-0.255,0.085
4674,-0.265,0.080
4675,-0.250,0.125
4676,-0.225,0.135
4677,-0.215,0.150
4678,-0.230,0.140
4679,-0.270,0.140
4680,-0.280,0.125
4681,-0.270,0.110
4682,-0.245,0.125
4683,-0.245,0.130
4684,-0.270,0.140
4685,-0.275,0.135
4686,-0.290,0.155
4687,-0.315,0.165
4688,-0.310,0.155
4689,-0.315,0.160
4690,-0.320,0.130
4691,-0.320,0.110
4692,-0.335,0.120
4693,-0.325,0.125
4694,-0.320,0.120
4695,-0.305,0.130
4696,-0.310,0.130
4697,-0.335,0.135
4698,-0.375,0.135
4699,-0.340,0.120
4700,-0.315,0.125
4701,-0.310,0.095
4702,-0.300,0.065
4703,-0.305,0.060
4704,-0.325,0.065
4705,-0.315,0.080
4706,-0.325,0.105
4707,-0.330,0.095
4708,-0.330,0.060
4709,-0.345,0.055
4710,-0.350,0.060
4711,-0.340,0.060
4712,-0.335,0.055
4713,-0.340,0.035
4714,-0.350,0.025
4715,-0.335,0.015
4716,-0.325,0.025
4717,-0.315,0.050
4718,-0.315,0.070
4719,-0.290,0.090
4720,-0.270,0.115
4721,-0.255,0.120
4722,-0.245,0.120
4723,-0.235,0.110
4724,-0.200,0.085
4725,-0.175,0.080
4726,-0.200,0.090
4727,-0.220,0.125
4728,-0.215,0.155
4729,-0.200,0.195
4730,-0.180,0.225
4731,-0.180,0.210
4732,-0.195,0.180
4733,-0.200,0.105
4734,-0.230,0.015
4735,-0.250,-0.050
4736,-0.260,-0.080
4737,-0.250,-0.105
4738,-0.265,-0.115
4739,-0.285,-0.115
4740,-0.310,-0.095
4741,-0.305,-0.050
4742,-0.300,-0.025
4743,-0.285,-0.035
4744,-0.285,-0.055
4745,-0.280,-0.070
4746,-0.295,-0.100
4747,-0.300,-0.090
4748,-0.285,-0.070
4749,-0.305,-0.065
4750,-0.340,-0.065
4751,-0.370,-0.095
4752,-0.365,-0.120
4753,-0.355,-0.095
4754,-0.360,-0.075
4755,-0.380,-0.075
4756,-0.400,-0.085
4757,-0.395,-0.125
4758,-0.405,-0.135
4759,-0.395,-0.145
4760,-0.395,-0.160
4761,-0.385,-0.190
4762,-0.395,-0.210
4763,-0.410,-0.200
4764,-0.450,-0.205
4765,-0.440,-0.180
4766,-0.420,-0.155
4767,-0.415,-0.125
4768,-0.420,-0.140
4769,-0.430,-0.155
4770,-0.440,-0.150
4771,-0.445,-0.150
4772,-0.430,-0.140
4773,-0.415,-0.130
4774,-0.395,-0.135
4775,-0.375,-0.125
4776,-0.365,-0.120
4777,-0.350,-0.100
4778,-0.340,-0.065
4779,-0.325,-0.020
4780,-0.320,-0.005
4781,-0.325,0.000
4782,-0.355,-0.015
4783,-0.380,-0.020
4784,-0.350,0.035
4785,-0.310,0.075
4786,-0.280,0.075
4787,-0.270,0.070
4788,-0.305,0.045
4789,-0.310,0.045
4790,-0.285,0.040
4791,-0.270,0.030
4792,-0.270,0.025
4793,-0.290,0.010
4794,-0.345,0.000
4795,-0.345,0.025
4796,-0.310,0.070
4797,-0.290,0.100
4798,-0.310,0.115
4799,-0.335,0.090
4800,-0.350,0.035
4801,-0.380,0.000
4802,-0.410,-0.015
4803,-0.455,0.045
4804,-0.490,0.055
4805,-0.500,-0.110
4806,-0.485,-0.440
4807,-0.445,-0.785
4808,-0.390,-1.120
4809,-0.320,-1.500
4810,-0.250,-1.920
4811,-0.210,-2.315
4812,-0.220,-2.550
4813,-0.225,-2.650
4814,-0.205,-2.625
4815,-0.140,-2.520
4816,-0.010,-2.280
4817,0.190,-1.775
4818,0.380,-1.140
4819,0.485,-0.505
4820,0.490,0.070
4821,0.445,0.220
4822,0.405,0.285
4823,0.295,0.315
4824,0.130,0.305
4825,-0.010,0.260
4826,-0.100,0.245
4827,-0.175,0.260
4828,-0.220,0.280
4829,-0.250,0.305
4830,-0.255,0.320
4831,-0.250,0.320
4832,-0.235,0.340
4833,-0.205,0.320
4834,-0.215,0.300
4835,-0.220,0.275
4836,-0.245,0.265
4837,-0.255,0.300
4838,-0.255,0.315
4839,-0.235,0.335
4840,-0.220,0.330
4841,-0.220,0.335
4842,-0.245,0.325
4843,-0.230,0.320
4844,-0.230,0.325
4845,-0.225,0.320
4846,-0.230,0.305
4847,-0.230,0.295
4848,-0.240,0.280
4849,-0.225,0.300
4850,-0.200,0.325
4851,-0.190,0.320
4852,-0.185,0.330
4853,-0.200,0.345
4854,-0.210,0.345
4855,-0.210,0.320
4856,-0.195,0.330
4857,-0.160,0.350
4858,-0.135,0.345
4859,-0.150,0.350
4860,-0.165,0.340
4861,-0.185,0.335
4862,-0.185,0.340
4863,-0.165,0.345
4864,-0.160,0.370
4865,-0.160,0.365
4866,-0.160,0.370
4867,-0.135,0.355
4868,-0.100,0.340
4869,-0.085,0.335
4870,-0.065,0.335
4871,-0.075,0.335
4872,-0.120,0.320
4873,-0.125,0.320
4874,-0.120,0.345
4875,-0.100,0.340
4876,-0.105,0.335
4877,-0.090,0.315
4878,-0.085,0.310
4879,-0.070,0.320
4880,-0.055,0.320
4881,-0.045,0.310
4882,-0.055,0.270
4883,-0.060,0.240
4884,-0.045,0.225
4885,-0.035,0.270
4886,-0.005,0.280
4887,0.015,0.255
4888,0.020,0.240
4889,0.015,0.225
4890,-0.015,0.195
4891,-0.015,0.155
4892,-0.020,0.125
4893,0.000,0.130
4894,0.035,0.145
4895,0.020,0.145
4896,0.010,0.140
4897,0.025,0.125
4898,0.020,0.100
4899,0.015,0.070
4900,0.010,0.040
4901,0.000,-0.005
4902,0.000,-0.030
4903,0.005,0.000
4904,0.025,0.035
4905,0.055,0.045
4906,0.045,0.025
4907,0.035,0.000
4908,-0.015,-0.030
4909,-0.005,-0.040
4910,0.005,-0.040
4911,0.010,-0.035
4912,-0.005,-0.055
4913,-0.015,-0.055
4914,-0.030,-0.055
4915,-0.045,-0.035
4916,-0.065,-0.050
4917,-0.090,-0.035
4918,-0.100,-0.035
4919,-0.110,-0.040
4920,-0.120,-0.035
4921,-0.125,-0.005
4922,-0.130,0.035
4923,-0.135,0.065
4924,-0.140,0.065
4925,-0.155,0.030
4926,-0.170,0.010
4927,-0.205,0.015
4928,-0.230,0.050
4929,-0.210,0.065
4930,-0.210,0.070
4931,-0.195,0.080
4932,-0.210,0.070
4933,-0.220,0.050
4934,-0.245,0.050
4935,-0.260,0.075
4936,-0.280,0.105
4937,-0.285,0.115
4938,-0.295,0.100
4939,-0.260,0.095
4940,-0.260,0.100
4941,-0.255,0.100
4942,-0.255,0.105
4943,-0.265,0.100
4944,-0.285,0.105
4945,-0.290,0.105
4946,-0.275,0.125
4947,-0.260,0.140
4948,-0.265,0.135
4949,-0.285,0.120
4950,-0.305,0.120
4951,-0.305,0.120
4952,-0.280,0.135
4953,-0.265,0.145
4954,-0.275,0.155
4955,-0.300,0.160
4956,-0.305,0.150
4957,-0.290,0.170
4958,-0.265,0.180
4959,-0.270,0.170
4960,-0.280,0.140
4961,-0.290,0.150
4962,-0.295,0.165
4963,-0.280,0.185
4964,-0.285,0.205
4965,-0.275,0.245
4966,-0.290,0.255
4967,-0.310,0.235
4968,-0.355,0.205
4969,-0.385,0.220
4970,-0.400,0.225
4971,-0.395,0.250
4972,-0.410,0.270
4973,-0.395,0.275
4974,-0.405,0.235
4975,-0.395,0.215
4976,-0.405,0.220
4977,-0.410,0.250
4978,-0.415,0.240
4979,-0.415,0.210
4980,-0.385,0.180
4981,-0.315,0.165
4982,-0.240,0.165
4983,-0.165,0.140
4984,-0.130,0.140
4985,-0.175,0.150
4986,-0.295,0.170
4987,-0.410,0.205
4988,-0.495,0.235
4989,-0.505,0.245
4990,-0.495,0.235
4991,-0.450,0.180
4992,-0.370,0.165
4993,-0.270,0.180
4994,-0.245,0.200
4995,-0.275,0.195
4996,-0.290,0.165
4997,-0.330,0.145
4998,-0.335,0.185
4999,-0.355,0.235
5000,-0.350,0.255
5001,-0.325,0.280
5002,-0.305,0.250
5003,-0.280,0.215
5004,-0.240,0.180
5005,-0.190,0.180
5006,-0.130,0.170
5007,-0.105,0.165
5008,-0.095,0.190
5009,-0.105,0.245
5010,-0.125,0.280
5011,-0.140,0.315
5012,-0.160,0.280
5013,-0.190,0.180
5014,-0.195,0.070
5015,-0.185,0.005
5016,-0.210,0.000
5017,-0.255,0.030
5018,-0.305,0.020
5019,-0.305,-0.030
5020,-0.295,-0.040
5021,-0.310,-0.035
5022,-0.345,-0.010
5023,-0.395,0.005
5024,-0.440,0.020
5025,-0.490,0.025
5026,-0.560,0.055
5027,-0.585,0.055
5028,-0.635,0.035
5029,-0.610,0.030
5030,-0.590,0.025
5031,-0.545,0.015
5032,-0.535,0.005
5033,-0.535,-0.005
5034,-0.520,-0.025
5035,-0.510,-0.015
5036,-0.485,-0.035
5037,-0.460,-0.045
5038,-0.440,-0.065
5039,-0.450,-0.080
5040,-0.450,-0.085
5041,-0.435,-0.075
5042,-0.405,-0.100
5043,-0.385,-0.130
5044,-0.390,-0.155
5045,-0.370,-0.185
5046,-0.365,-0.185
5047,-0.355,-0.160
5048,-0.355,-0.145
5049,-0.385,-0.140
5050,-0.450,-0.125
5051,-0.515,-0.130
5052,-0.560,-0.125
5053,-0.565,-0.075
5054,-0.550,-0.025
5055,-0.520,0.000
5056,-0.525,0.015
5057,-0.555,0.040
5058,-0.580,0.055
5059,-0.560,0.060
5060,-0.535,0.055
5061,-0.495,0.055
5062,-0.450,0.060
5063,-0.410,0.055
5064,-0.395,0.025
5065,-0.355,0.010
5066,-0.335,0.030
5067,-0.315,0.055
5068,-0.330,0.070
5069,-0.355,0.065
5070,-0.365,0.090
5071,-0.360,0.120
5072,-0.360,0.115
5073,-0.345,0.100
5074,-0.325,0.075
5075,-0.285,0.065
5076,-0.230,0.030
5077,-0.160,0.010
5078,-0.130,0.000
5079,-0.120,0.020
5080,-0.160,0.050
5081,-0.240,0.080
5082,-0.315,0.110
5083,-0.400,0.140
5084,-0.460,0.140
5085,-0.530,0.150
5086,-0.590,0.185
5087,-0.630,0.185
5088,-0.615,0.070
5089,-0.550,-0.140
5090,-0.460,-0.370
5091,-0.435,-0.615
5092,-0.440,-0.965
5093,-0.460,-1.415
5094,-0.490,-1.865
5095,-0.485,-2.255
5096,-0.475,-2.515
5097,-0.455,-2.630
5098,-0.460,-2.625
5099,-0.365,-2.505
5100,-0.195,-2.180
5101,0.040,-1.590
5102,0.265,-0.955
5103,0.385,-0.320
5104,0.385,0.205
5105,0.345,0.350
5106,0.300,0.380
5107,0.235,0.390
5108,0.160,0.360
5109,0.130,0.330
5110,0.110,0.305
5111,0.080,0.295
5112,0.025,0.315
5113,-0.040,0.350
5114,-0.070,0.380
5115,-0.095,0.390
5116,-0.090,0.370
5117,-0.120,0.330
5118,-0.130,0.305
5119,-0.125,0.310
5120,-0.120,0.295
5121,-0.125,0.275
5122,-0.120,0.305
5123,-0.160,0.350
5124,-0.225,0.405
5125,-0.275,0.435
5126,-0.330,0.450
5127,-0.390,0.450
5128,-0.390,0.445
5129,-0.395,0.440
5130,-0.390,0.440
5131,-0.370,0.435
5132,-0.320,0.420
5133,-0.305,0.410
5134,-0.240,0.410
5135,-0.240,0.400
5136,-0.250,0.410
5137,-0.255,0.410
5138,-0.240,0.420
5139,-0.230,0.420
5140,-0.230,0.415
5141,-0.210,0.410
5142,-0.185,0.390
5143,-0.150,0.395
5144,-0.135,0.390
5145,-0.110,0.395
5146,-0.115,0.390
5147,-0.140,0.380
5148,-0.175,0.370
5149,-0.185,0.380
5150,-0.175,0.380
5151,-0.155,0.370
5152,-0.140,0.355
5153,-0.140,0.345
5154,-0.135,0.360
5155,-0.125,0.395
5156,-0.095,0.390
5157,-0.085,0.380
5158,-0.090,0.385
5159,-0.095,0.360
5160,-0.105,0.365
5161,-0.090,0.350
5162,-0.070,0.340
5163,-0.045,0.375
5164,-0.035,0.380
5165,-0.025,0.360
5166,-0.045,0.355
5167,-0.055,0.370
5168,-0.050,0.365
5169,-0.015,0.370
5170,0.020,0.335
5171,0.035,0.290
5172,0.045,0.265
5173,0.035,0.255
5174,0.030,0.255
5175,0.025,0.240
5176,0.025,0.255
5177,0.025,0.265
5178,0.030,0.260
5179,0.020,0.245
5180,0.030,0.220
5181,0.035,0.225
5182,0.040,0.210
5183,0.015,0.185
5184,0.020,0.170
5185,0.025,0.175
5186,0.060,0.170
5187,0.080,0.160
5188,0.085,0.145
5189,0.110,0.085
5190,0.110,0.060
5191,0.110,0.070
5192,0.115,0.065
5193,0.115,0.030
5194,0.110,0.015
5195,0.120,0.020
5196,0.120,0.030
5197,0.100,0.050
5198,0.085,0.065
5199,0.095,0.050
5200,0.090,0.035
5201,0.095,0.005
5202,0.095,-0.025
5203,0.105,-0.025
5204,0.115,-0.015
5205,0.125,0.005
5206,0.105,0.005
5207,0.110,-0.020
5208,0.105,-0.020
5209,0.125,-0.050
5210,0.125,-0.060
5211,0.115,-0.055
5212,0.080,-0.070
5213,0.065,-0.055
5214,0.035,-0.050
5215,0.030,-0.030
5216,0.035,0.010
5217,0.035,0.040
5218,0.030,0.035
5219,0.025,0.020
5220,0.020,0.025
5221,0.020,0.040
5222,0.010,0.065
5223,0.020,0.055
5224,-0.015,0.035
5225,-0.020,-0.010
5226,-0.055,-0.025
5227,-0.085,0.000
5228,-0.090,0.035
5229,-0.090,0.075
5230,-0.095,0.105
5231,-0.090,0.115
5232,-0.075,0.110
5233,-0.050,0.120
5234,-0.030,0.120
5235,-0.030,0.125
5236,-0.065,0.120
5237,-0.090,0.125
5238,-0.100,0.120
5239,-0.100,0.125
5240,-0.085,0.135
5241,-0.075,0.155
5242,-0.080,0.145
5243,-0.090,0.115
5244,-0.105,0.100
5245,-0.120,0.125
5246,-0.100,0.155
5247,-0.095,0.175
5248,-0.095,0.160
5249,-0.110,0.160
5250,-0.135,0.170
5251,-0.135,0.220
5252,-0.115,0.240
5253,-0.115,0.240
5254,-0.120,0.215
5255,-0.130,0.210
5256,-0.155,0.225
5257,-0.140,0.240
5258,-0.140,0.270
5259,-0.115,0.280
5260,-0.135,0.290
5261,-0.150,0.280
5262,-0.130,0.290
5263,-0.115,0.305
5264,-0.095,0.305
5265,-0.090,0.270
5266,-0.100,0.240
5267,-0.105,0.200
5268,-0.105,0.200
5269,-0.125,0.220
5270,-0.120,0.260
5271,-0.130,0.285
5272,-0.160,0.275
5273,-0.155,0.260
5274,-0.160,0.255
5275,-0.185,0.275
5276,-0.160,0.280
5277,-0.145,0.290
5278,-0.140,0.280
5279,-0.155,0.265
5280,-0.160,0.245
5281,-0.175,0.260
5282,-0.175,0.265
5283,-0.150,0.275
5284,-0.165,0.275
5285,-0.165,0.270
5286,-0.165,0.260
5287,-0.170,0.255
5288,-0.165,0.240
5289,-0.150,0.225
5290,-0.140,0.220
5291,-0.140,0.215
5292,-0.150,0.215
5293,-0.155,0.240
5294,-0.145,0.250
5295,-0.150,0.255
5296,-0.170,0.250
5297,-0.180,0.250
5298,-0.150,0.235
5299,-0.135,0.215
5300,-0.115,0.215
5301,-0.100,0.205
5302,-0.110,0.200
5303,-0.135,0.205
5304,-0.140,0.185
5305,-0.150,0.195
5306,-0.150,0.220
5307,-0.140,0.220
5308,-0.165,0.230
5309,-0.185,0.215
5310,-0.160,0.185
5311,-0.145,0.185
5312,-0.105,0.195
5313,-0.095,0.210
5314,-0.100,0.200
5315,-0.105,0.205
5316,-0.095,0.215
5317,-0.105,0.225
5318,-0.090,0.245
5319,-0.050,0.275
5320,-0.050,0.260
5321,-0.045,0.245
5322,-0.040,0.245
5323,-0.040,0.235
5324,-0.015,0.245
5325,0.015,0.230
5326,0.010,0.250
5327,0.010,0.270
5328,-0.005,0.280
5329,-0.020,0.310
5330,-0.005,0.320
5331,0.010,0.265
5332,0.015,0.220
5333,0.005,0.170
5334,-0.020,0.140
5335,-0.040,0.105
5336,-0.040,0.075
5337,-0.020,0.070
5338,-0.030,0.075
5339,-0.065,0.060
5340,-0.090,0.025
5341,-0.115,0.030
5342,-0.110,0.035
5343,-0.100,0.035
5344,-0.105,0.050
5345,-0.125,0.030
5346,-0.135,0.030
5347,-0.150,0.040
5348,-0.140,0.050
5349,-0.125,0.035
5350,-0.125,0.035
5351,-0.150,0.025
5352,-0.150,0.025
5353,-0.170,0.030
5354,-0.170,0.020
5355,-0.145,0.010
5356,-0.160,0.005
5357,-0.170,-0.015
5358,-0.175,-0.045
5359,-0.195,-0.035
5360,-0.205,-0.005
5361,-0.205,0.015
5362,-0.215,0.000
5363,-0.225,-0.005
5364,-0.240,-0.010
5365,-0.230,-0.030
5366,-0.200,-0.015
5367,-0.195,-0.030
5368,-0.190,-0.030
5369,-0.200,-0.040
5370,-0.215,-0.050
5371,-0.235,-0.050
5372,-0.230,-0.070
5373,-0.210,-0.055
5374,-0.220,-0.040
5375,-0.225,-0.060
5376,-0.240,-0.070
5377,-0.255,-0.075
5378,-0.245,-0.050
5379,-0.230,-0.030
5380,-0.220,-0.035
5381,-0.215,-0.050
5382,-0.220,-0.055
5383,-0.210,-0.030
5384,-0.190,-0.005
5385,-0.145,0.030
5386,-0.125,0.010
5387,-0.125,0.000
5388,-0.135,0.005
5389,-0.150,0.020
5390,-0.125,0.050
5391,-0.105,0.075
5392,-0.105,0.105
5393,-0.095,0.130
5394,-0.105,0.145
5395,-0.105,0.170
5396,-0.090,0.185
5397,-0.070,0.170
5398,-0.070,0.170
5399,-0.070,0.170
5400,-0.065,0.165
5401,-0.085,0.170
5402,-0.065,0.160
5403,-0.055,0.170
5404,-0.055,0.165
5405,-0.050,0.140
5406,-0.045,0.135
5407,-0.040,0.135
5408,-0.025,0.160
5409,-0.020,0.170
5410,-0.040,0.165
5411,-0.040,0.145
5412,-0.060,0.130
5413,-0.055,0.125
5414,-0.070,0.145
5415,-0.065,0.160
5416,-0.085,0.130
5417,-0.110,0.130
5418,-0.140,0.120
5419,-0.180,0.140
5420,-0.210,0.140
5421,-0.210,0.170
5422,-0.235,0.135
5423,-0.230,-0.025
5424,-0.215,-0.260
5425,-0.190,-0.480
5426,-0.150,-0.725
5427,-0.115,-1.010
5428,-0.075,-1.360
5429,-0.055,-1.740
5430,-0.030,-2.095
5431,-0.020,-2.370
5432,-0.015,-2.550
5433,-0.005,-2.625
5434,0.015,-2.640
5435,0.045,-2.590
5436,0.115,-2.465
5437,0.245,-2.160
5438,0.425,-1.700
5439,0.580,-1.110
5440,0.660,-0.560
5441,0.665,-0.170
5442,0.640,0.045
5443,0.595,0.180
5444,0.550,0.275
5445,0.465,0.340
5446,0.355,0.355
5447,0.230,0.325
5448,0.135,0.305
5449,0.085,0.335
5450,0.035,0.365
5451,-0.010,0.370
5452,-0.055,0.370
5453,-0.075,0.365
5454,-0.070,0.340
5455,-0.080,0.350
5456,-0.065,0.355
5457,-0.060,0.365
5458,-0.075,0.360
5459,-0.090,0.355
5460,-0.085,0.335
5461,-0.110,0.330
5462,-0.095,0.325
5463,-0.090,0.335
5464,-0.095,0.345
5465,-0.100,0.340
5466,-0.100,0.335
5467,-0.110,0.345
5468,-0.090,0.345
5469,-0.105,0.335
5470,-0.085,0.330
5471,-0.090,0.305
5472,-0.100,0.295
5473,-0.110,0.290
5474,-0.115,0.310
5475,-0.080,0.335
5476,-0.080,0.340
5477,-0.095,0.340
5478,-0.095,0.315
5479,-0.095,0.325
5480,-0.095,0.345
5481,-0.080,0.345
5482,-0.095,0.335
5483,-0.125,0.335
5484,-0.110,0.340
5485,-0.115,0.350
5486,-0.095,0.350
5487,-0.080,0.345
5488,-0.075,0.350
5489,-0.075,0.335
5490,-0.095,0.350
5491,-0.110,0.365
5492,-0.095,0.355
5493,-0.065,0.355
5494,-0.065,0.345
5495,-0.055,0.320
5496,-0.055,0.300
5497,-0.055,0.295
5498,-0.055,0.315
5499,-0.030,0.340
5500,-0.035,0.350
5501,-0.050,0.325
5502,-0.040,0.295
5503,-0.070,0.270
5504,-0.065,0.265
5505,-0.060,0.280
5506,-0.060,0.300
5507,-0.065,0.305
5508,-0.050,0.315
5509,-0.050,0.335
5510,-0.010,0.335
5511,0.015,0.325
5512,0.000,0.300
5513,-0.005,0.305
5514,-0.015,0.315
5515,-0.005,0.320
5516,0.005,0.335
5517,0.040,0.325
5518,0.055,0.330
5519,0.030,0.305
5520,0.035,0.265
5521,0.030,0.265
5522,0.055,0.290
5523,0.085,0.305
5524,0.085,0.275
5525,0.085,0.230
5526,0.070,0.190
5527,0.040,0.175
5528,0.055,0.175
5529,0.065,0.190
5530,0.065,0.190
5531,0.070,0.165
5532,0.075,0.150
5533,0.095,0.155
5534,0.105,0.160
5535,0.135,0.150
5536,0.130,0.145
5537,0.140,0.110
5538,0.115,0.080
5539,0.105,0.070
5540,0.090,0.075
5541,0.110,0.080
5542,0.105,0.070
5543,0.100,0.055
5544,0.100,0.035
5545,0.115,0.030
5546,0.140,0.035
5547,0.150,0.030
5548,0.140,0.025
5549,0.105,0.010
5550,0.100,-0.015
5551,0.115,-0.010
5552,0.120,0.010
5553,0.125,0.000
5554,0.135,-0.005
5555,0.140,-0.020
5556,0.110,-0.035
5557,0.100,-0.060
5558,0.095,-0.035
5559,0.090,-0.035
5560,0.055,-0.020
5561,0.040,-0.010
5562,0.020,0.000
5563,0.020,0.030
5564,0.035,0.035
5565,0.045,0.035
5566,0.030,0.025
5567,0.010,0.020
5568,-0.020,0.015
5569,-0.030,0.025
5570,-0.050,0.055
5571,-0.045,0.080
5572,-0.040,0.075
5573,-0.050,0.055
5574,-0.055,0.040
5575,-0.075,0.050
5576,-0.070,0.055
5577,-0.040,0.060
5578,-0.050,0.070
5579,-0.070,0.045
5580,-0.080,0.050
5581,-0.085,0.065
5582,-0.095,0.085
5583,-0.095,0.100
5584,-0.105,0.105
5585,-0.110,0.105
5586,-0.125,0.120
5587,-0.115,0.135
5588,-0.100,0.150
5589,-0.080,0.145
5590,-0.105,0.120
5591,-0.140,0.080
5592,-0.160,0.060
5593,-0.155,0.060
5594,-0.125,0.080
5595,-0.070,0.115
5596,-0.040,0.125
5597,-0.055,0.110
5598,-0.050,0.105
5599,-0.060,0.120
5600,-0.055,0.140
5601,0.000,0.125
5602,0.075,0.065
5603,0.185,0.005
5604,0.300,-0.030
5605,0.385,-0.020
5606,0.435,0.010
5607,0.405,0.030
5608,0.295,0.060
5609,0.135,0.085
5610,-0.025,0.125
5611,-0.175,0.160
5612,-0.225,0.205
5613,-0.240,0.240
5614,-0.240,0.250
5615,-0.265,0.240
5616,-0.320,0.240
5617,-0.345,0.270
5618,-0.415,0.295
5619,-0.445,0.290
5620,-0.480,0.285
5621,-0.520,0.265
5622,-0.550,0.250
5623,-0.560,0.265
5624,-0.560,0.270
5625,-0.525,0.285
5626,-0.490,0.280
5627,-0.475,0.265
5628,-0.455,0.250
5629,-0.435,0.245
5630,-0.380,0.255
5631,-0.345,0.270
5632,-0.320,0.275
5633,-0.300,0.260
5634,-0.305,0.230
5635,-0.310,0.230
5636,-0.300,0.200
5637,-0.285,0.185
5638,-0.280,0.160
5639,-0.280,0.160
5640,-0.270,0.180
5641,-0.230,0.205
5642,-0.210,0.210
5643,-0.185,0.200
5644,-0.185,0.160
5645,-0.180,0.130
5646,-0.190,0.130
5647,-0.195,0.135
5648,-0.200,0.145
5649,-0.195,0.135
5650,-0.195,0.155
5651,-0.200,0.155
5652,-0.235,0.150
5653,-0.265,0.150
5654,-0.300,0.155
5655,-0.315,0.165
5656,-0.345,0.165
5657,-0.390,0.150
5658,-0.430,0.130
5659,-0.430,0.135
5660,-0.420,0.130
5661,-0.380,0.140
5662,-0.350,0.140
5663,-0.335,0.155
5664,-0.315,0.180
5665,-0.295,0.205
5666,-0.285,0.240
5667,-0.235,0.220
5668,-0.235,0.210
5669,-0.215,0.185
5670,-0.235,0.125
5671,-0.235,0.110
5672,-0.230,0.135
5673,-0.220,0.175
5674,-0.215,0.210
5675,-0.200,0.215
5676,-0.185,0.230
5677,-0.160,0.220
5678,-0.145,0.225
5679,-0.145,0.205
5680,-0.165,0.160
5681,-0.190,0.055
5682,-0.225,-0.025
5683,-0.245,-0.070
5684,-0.230,-0.060
5685,-0.225,-0.030
5686,-0.230,0.000
5687,-0.245,-0.005
5688,-0.245,-0.010
5689,-0.255,-0.005
5690,-0.265,0.000
5691,-0.285,-0.025
5692,-0.285,-0.070
5693,-0.310,-0.065
5694,-0.325,-0.065
5695,-0.330,-0.065
5696,-0.305,-0.050
5697,-0.305,-0.065
5698,-0.310,-0.055
5699,-0.330,-0.065
5700,-0.360,-0.065
5701,-0.390,-0.095
5702,-0.385,-0.100
5703,-0.375,-0.070
5704,-0.350,-0.045
5705,-0.335,-0.060
5706,-0.345,-0.070
5707,-0.360,-0.090
5708,-0.365,-0.100
5709,-0.375,-0.105
5710,-0.385,-0.100
5711,-0.395,-0.125
5712,-0.390,-0.135
5713,-0.385,-0.135
5714,-0.360,-0.115
5715,-0.345,-0.125
5716,-0.345,-0.145
5717,-0.360,-0.150
5718,-0.365,-0.150
5719,-0.365,-0.145
5720,-0.370,-0.125
5721,-0.390,-0.115
5722,-0.400,-0.115
5723,-0.410,-0.125
5724,-0.415,-0.130
5725,-0.405,-0.120
5726,-0.375,-0.110
5727,-0.345,-0.085
5728,-0.335,-0.040
5729,-0.320,-0.025
5730,-0.315,-0.050
5731,-0.315,-0.025
5732,-0.315,0.000
5733,-0.295,0.015
5734,-0.275,0.010
5735,-0.270,0.000
5736,-0.295,-0.005
5737,-0.290,0.005
5738,-0.265,0.045
5739,-0.245,0.080
5740,-0.225,0.095
5741,-0.240,0.080
5742,-0.265,0.060
5743,-0.260,0.090
5744,-0.260,0.090
5745,-0.235,0.105
5746,-0.220,0.095
5747,-0.230,0.095
5748,-0.230,0.070
5749,-0.225,0.065
5750,-0.235,0.060
5751,-0.230,0.080
5752,-0.260,0.085
5753,-0.270,0.075
5754,-0.265,0.090
5755,-0.275,0.135
5756,-0.240,0.165
5757,-0.230,0.150
5758,-0.225,0.115
5759,-0.265,0.075
5760,-0.295,0.050
5761,-0.325,0.020
5762,-0.345,0.050
5763,-0.365,0.085
5764,-0.395,-0.005
5765,-0.400,-0.240
5766,-0.395,-0.505
5767,-0.385,-0.740
5768,-0.345,-1.020
5769,-0.305,-1.385
5770,-0.260,-1.805
5771,-0.250,-2.190
5772,-0.250,-2.490
5773,-0.265,-2.655
5774,-0.255,-2.715
5775,-0.205,-2.700
5776,-0.135,-2.630
5777,-0.015,-2.445
5778,0.140,-2.100
5779,0.315,-1.520
5780,0.440,-0.885
5781,0.520,-0.300
5782,0.495,0.065
5783,0.460,0.270
5784,0.415,0.395
5785,0.410,0.455
5786,0.355,0.445
5787,0.250,0.405
5788,0.145,0.370
5789,0.065,0.340
5790,0.000,0.340
5791,-0.040,0.380
5792,-0.065,0.400
5793,-0.090,0.390
5794,-0.100,0.365
5795,-0.115,0.325
5796,-0.140,0.320
5797,-0.140,0.340
5798,-0.115,0.350
5799,-0.085,0.355
5800,-0.090,0.350
5801,-0.105,0.350
5802,-0.145,0.365
5803,-0.160,0.375
5804,-0.120,0.410
5805,-0.090,0.410
5806,-0.090,0.410
5807,-0.085,0.380
5808,-0.100,0.360
5809,-0.100,0.360
5810,-0.080,0.385
5811,-0.060,0.410
5812,-0.065,0.420
5813,-0.075,0.400
5814,-0.090,0.405
5815,-0.090,0.400
5816,-0.060,0.415
5817,-0.050,0.435
5818,-0.040,0.435
5819,-0.040,0.415
5820,-0.040,0.410
5821,-0.035,0.430
5822,-0.030,0.445
5823,-0.025,0.440
5824,-0.005,0.415
5825,0.000,0.370
5826,0.005,0.355
5827,0.010,0.360
5828,0.015,0.375
5829,0.030,0.385
5830,0.030,0.395
5831,0.030,0.390
5832,0.020,0.375
5833,0.025,0.380
5834,0.030,0.385
5835,0.025,0.380
5836,0.050,0.370
5837,0.040,0.355
5838,0.035,0.340
5839,0.040,0.345
5840,0.060,0.350
5841,0.075,0.340
5842,0.060,0.355
5843,0.065,0.345
5844,0.080,0.345
5845,0.090,0.340
5846,0.105,0.350
5847,0.130,0.345
5848,0.125,0.325
5849,0.135,0.310
5850,0.115,0.295
5851,0.120,0.280
5852,0.140,0.280
5853,0.160,0.275
5854,0.175,0.280
5855,0.165,0.245
5856,0.165,0.210
5857,0.165,0.215
5858,0.175,0.220
5859,0.190,0.225
5860,0.185,0.210
5861,0.175,0.160
5862,0.175,0.130
5863,0.175,0.115
5864,0.190,0.105
5865,0.210,0.085
5866,0.230,0.090
5867,0.240,0.080
5868,0.200,0.090
5869,0.190,0.085
5870,0.185,0.080
5871,0.215,0.040
5872,0.240,-0.005
5873,0.235,-0.030
5874,0.220,-0.030
5875,0.205,-0.005
5876,0.215,0.010
5877,0.240,0.025
5878,0.215,0.000
5879,0.160,-0.030
5880,0.140,-0.030
5881,0.110,-0.055
5882,0.115,-0.060
5883,0.145,-0.060
5884,0.160,-0.055
5885,0.180,-0.075
5886,0.180,-0.100
5887,0.150,-0.065
5888,0.140,-0.005
5889,0.125,0.025
5890,0.095,0.025
5891,0.075,0.010
5892,0.090,0.020
5893,0.100,0.035
5894,0.105,0.025
5895,0.095,0.025
5896,0.085,0.040
5897,0.080,0.055
5898,0.075,0.045
5899,0.050,0.035
5900,0.020,0.030
5901,0.005,0.030
5902,-0.020,0.045
5903,-0.035,0.045
5904,-0.035,0.030
5905,-0.030,0.030
5906,-0.005,0.055
5907,0.010,0.045
5908,0.015,0.040
5909,-0.010,0.050
5910,-0.030,0.075
5911,-0.050,0.110
5912,-0.050,0.140
5913,-0.085,0.120
5914,-0.090,0.110
5915,-0.085,0.100
5916,-0.080,0.080
5917,-0.055,0.100
5918,-0.025,0.105
5919,-0.035,0.120
5920,-0.080,0.115
5921,-0.085,0.115
5922,-0.090,0.125
5923,-0.095,0.135
5924,-0.090,0.140
5925,-0.085,0.155
5926,-0.060,0.175
5927,-0.060,0.155
5928,-0.075,0.125
5929,-0.090,0.135
5930,-0.110,0.140
5931,-0.120,0.150
5932,-0.115,0.160
5933,-0.110,0.145
5934,-0.105,0.145
5935,-0.105,0.170
5936,-0.105,0.230
5937,-0.125,0.250
5938,-0.130,0.250
5939,-0.160,0.230
5940,-0.145,0.240
5941,-0.130,0.240
5942,-0.120,0.240
5943,-0.115,0.225
5944,-0.105,0.205
5945,-0.110,0.210
5946,-0.135,0.200
5947,-0.160,0.195
5948,-0.140,0.185
5949,-0.160,0.175
5950,-0.165,0.170
5951,-0.195,0.165
5952,-0.200,0.160
5953,-0.215,0.155
5954,-0.190,0.180
5955,-0.170,0.190
5956,-0.185,0.200
5957,-0.205,0.185
5958,-0.200,0.185
5959,-0.185,0.200
5960,-0.180,0.170
5961,-0.170,0.150
5962,-0.150,0.115
5963,-0.130,0.115
5964,-0.120,0.130
5965,-0.130,0.105
5966,-0.140,0.115
5967,-0.120,0.130
5968,-0.130,0.120
5969,-0.165,0.110
5970,-0.190,0.090
5971,-0.210,0.120
5972,-0.200,0.130
5973,-0.170,0.160
5974,-0.145,0.165
5975,-0.130,0.160
5976,-0.130,0.150
5977,-0.125,0.150
5978,-0.105,0.160
5979,-0.070,0.140
5980,-0.075,0.135
5981,-0.075,0.135
5982,-0.080,0.140
5983,-0.065,0.120
5984,-0.030,0.150
5985,0.015,0.195
5986,0.000,0.235
5987,-0.005,0.255
5988,-0.030,0.265
5989,-0.030,0.275
5990,-0.015,0.275
5991,0.000,0.245
5992,0.005,0.190
5993,-0.015,0.130
5994,-0.035,0.070
5995,-0.040,0.045
5996,-0.055,0.030
5997,-0.080,0.010
5998,-0.090,-0.010
5999,-0.115,-0.055
6000,-0.145,-0.065
6001,-0.180,-0.050
6002,-0.195,-0.025
6003,-0.200,-0.005
6004,-0.195,0.000
6005,-0.195,-0.005
6006,-0.210,-0.005
6007,-0.210,0.000
6008,-0.185,0.015
6009,-0.190,-0.005
6010,-0.205,-0.020
6011,-0.220,-0.050
6012,-0.205,-0.065
6013,-0.205,-0.050
6014,-0.200,-0.025
6015,-0.210,-0.015
6016,-0.245,-0.010
6017,-0.240,-0.055
6018,-0.260,-0.085
6019,-0.270,-0.105
6020,-0.260,-0.090
6021,-0.265,-0.090
6022,-0.265,-0.090
6023,-0.260,-0.090
6024,-0.275,-0.100
6025,-0.265,-0.100
6026,-0.255,-0.115
6027,-0.245,-0.130
6028,-0.260,-0.145
6029,-0.270,-0.125
6030,-0.270,-0.115
6031,-0.285,-0.095
6032,-0.270,-0.090
6033,-0.240,-0.095
6034,-0.225,-0.100
6035,-0.225,-0.110
6036,-0.235,-0.105
6037,-0.210,-0.085
6038,-0.175,-0.080
6039,-0.125,-0.075
6040,-0.060,-0.065
6041,-0.005,-0.050
6042,0.030,-0.040
6043,0.000,0.015
6044,-0.025,0.050
6045,-0.040,0.070
6046,-0.040,0.055
6047,0.005,0.045
6048,0.050,0.000
6049,0.130,0.020
6050,0.205,0.045
6051,0.210,0.080
6052,0.135,0.100
6053,0.035,0.110
6054,-0.085,0.115
6055,-0.165,0.140
6056,-0.180,0.155
6057,-0.160,0.120
6058,-0.105,0.080
6059,-0.080,0.070
6060,-0.080,0.065
6061,-0.095,0.090
6062,-0.105,0.110
6063,-0.145,0.150
6064,-0.205,0.210
6065,-0.285,0.240
6066,-0.335,0.210
6067,-0.365,0.145
6068,-0.390,0.115
6069,-0.405,0.095
6070,-0.385,-0.015
6071,-0.350,-0.270
6072,-0.300,-0.565
6073,-0.270,-0.885
6074,-0.225,-1.235
6075,-0.150,-1.630
6076,-0.055,-2.010
6077,0.055,-2.325
6078,0.120,-2.560
6079,0.205,-2.685
6080,0.270,-2.730
6081,0.290,-2.695
6082,0.275,-2.585
6083,0.250,-2.350
6084,0.305,-1.925
6085,0.435,-1.290
6086,0.540,-0.655
6087,0.550,-0.045
6088,0.450,0.230
6089,0.320,0.345
6090,0.165,0.385
6091,0.020,0.425
6092,-0.090,0.420
6093,-0.150,0.410
6094,-0.175,0.410
6095,-0.210,0.400
6096,-0.235,0.390
6097,-0.235,0.395
6098,-0.210,0.395
6099,-0.190,0.385
6100,-0.165,0.395
6101,-0.145,0.405
6102,-0.135,0.395
6103,-0.115,0.395
6104,-0.105,0.405
6105,-0.120,0.420
6106,-0.120,0.415
6107,-0.115,0.400
6108,-0.115,0.380
6109,-0.115,0.355
6110,-0.090,0.350
6111,-0.085,0.355
6112,-0.100,0.360
6113,-0.120,0.355
6114,-0.130,0.350
6115,-0.140,0.350
6116,-0.105,0.375
6117,-0.055,0.405
6118,-0.020,0.410
6119,-0.030,0.380
6120,-0.065,0.360
6121,-0.085,0.380
6122,-0.075,0.405
6123,-0.060,0.420
6124,-0.035,0.405
6125,-0.030,0.390
6126,-0.040,0.405
6127,-0.045,0.415
6128,-0.040,0.400
6129,-0.035,0.385
6130,-0.010,0.380
6131,0.020,0.390
6132,0.020,0.375
6133,0.040,0.380
6134,0.045,0.385
6135,0.065,0.395
6136,0.060,0.380
6137,0.055,0.380
6138,0.030,0.355
6139,0.020,0.380
6140,0.035,0.390
6141,0.045,0.390
6142,0.050,0.395
6143,0.040,0.395
6144,0.030,0.375
6145,0.050,0.365
6146,0.080,0.380
6147,0.100,0.375
6148,0.130,0.365
6149,0.125,0.350
6150,0.135,0.315
6151,0.125,0.320
6152,0.120,0.310
6153,0.135,0.320
6154,0.170,0.320
6155,0.180,0.305
6156,0.190,0.275
6157,0.180,0.260
6158,0.185,0.270
6159,0.195,0.260
6160,0.175,0.255
6161,0.185,0.245
6162,0.190,0.215
6163,0.200,0.200
6164,0.225,0.190
6165,0.255,0.180
6166,0.280,0.165
6167,0.255,0.120
6168,0.235,0.100
6169,0.205,0.115
6170,0.210,0.110
6171,0.200,0.115
6172,0.215,0.100
6173,0.205,0.100
6174,0.210,0.100
6175,0.210,0.075
6176,0.235,0.055
6177,0.250,0.045
6178,0.265,0.035
6179,0.255,0.020
6180,0.240,0.000
6181,0.240,-0.020
6182,0.235,-0.025
6183,0.235,-0.005
6184,0.200,-0.005
6185,0.185,-0.005
6186,0.150,0.015
6187,0.135,0.040
6188,0.140,0.035
6189,0.140,0.015
6190,0.130,0.005
6191,0.100,-0.015
6192,0.085,-0.015
6193,0.060,-0.010
6194,0.040,0.005
6195,0.030,0.040
6196,0.030,0.060
6197,0.025,0.055
6198,-0.005,0.050
6199,-0.015,0.090
6200,-0.015,0.105
6201,0.005,0.100
6202,-0.005,0.090
6203,-0.010,0.050
6204,-0.035,0.045
6205,-0.045,0.105
6206,-0.055,0.140
6207,-0.050,0.160
6208,-0.065,0.155
6209,-0.065,0.120
6210,-0.060,0.120
6211,-0.050,0.125
6212,-0.035,0.140
6213,-0.045,0.135
6214,-0.060,0.145
6215,-0.085,0.135
6216,-0.110,0.130
6217,-0.100,0.150
6218,-0.080,0.170
6219,-0.065,0.175
6220,-0.055,0.195
6221,-0.055,0.195
6222,-0.080,0.210
6223,-0.075,0.220
6224,-0.080,0.230
6225,-0.065,0.245
6226,-0.060,0.260
6227,-0.040,0.250
6228,-0.050,0.235
6229,-0.060,0.240
6230,-0.065,0.265
6231,-0.070,0.265
6232,-0.090,0.270
6233,-0.100,0.275
6234,-0.115,0.270
6235,-0.115,0.265
6236,-0.115,0.280
6237,-0.085,0.290
6238,-0.085,0.305
6239,-0.085,0.295
6240,-0.100,0.290
6241,-0.115,0.300
6242,-0.110,0.310
6243,-0.095,0.315
6244,-0.080,0.295
6245,-0.065,0.270
6246,-0.070,0.255
6247,-0.090,0.235
6248,-0.100,0.255
6249,-0.100,0.285
6250,-0.090,0.300
6251,-0.080,0.280
6252,-0.095,0.260
6253,-0.095,0.255
6254,-0.080,0.260
6255,-0.075,0.250
6256,-0.070,0.250
6257,-0.085,0.235
6258,-0.105,0.235
6259,-0.080,0.235
6260,-0.045,0.245
6261,-0.020,0.240
6262,-0.005,0.230
6263,-0.005,0.215
6264,-0.035,0.210
6265,-0.070,0.230
6266,-0.075,0.270
6267,-0.055,0.300
6268,-0.015,0.295
6269,-0.005,0.255
6270,-0.020,0.200
6271,-0.035,0.155
6272,-0.045,0.055
6273,-0.080,-0.055
6274,-0.085,-0.140
6275,-0.085,-0.195
6276,-0.045,-0.235
6277,0.015,-0.275
6278,0.090,-0.345
6279,0.210,-0.400
6280,0.335,-0.445
6281,0.470,-0.545
6282,0.575,-0.705
6283,0.640,-0.955
6284,0.750,-1.150
6285,0.925,-1.210
6286,1.125,-1.045
6287,1.310,-0.705
6288,1.435,-0.315
6289,1.550,-0.035
6290,1.675,0.185
6291,1.780,0.390
6292,1.855,0.555
6293,1.915,0.690
6294,2.000,0.840
6295,2.130,0.975
6296,2.260,1.080
6297,2.340,1.155
6298,2.390,1.190
6299,2.415,1.115
6300,2.400,1.005
6301,2.345,0.960
6302,2.220,0.935
6303,2.045,0.900
6304,1.775,0.780
6305,1.460,0.580
6306,1.120,0.405
6307,0.795,0.285
6308,0.490,0.250
6309,0.230,0.195
6310,0.015,0.125
6311,-0.110,0.095
6312,-0.180,0.060
6313,-0.285,0.030
6314,-0.385,-0.010
6315,-0.445,-0.045
6316,-0.480,-0.045
6317,-0.485,-0.050
6318,-0.515,-0.075
6319,-0.530,-0.070
6320,-0.520,-0.020
6321,-0.490,-0.005
6322,-0.455,0.015
6323,-0.480,0.025
6324,-0.475,0.000
6325,-0.480,-0.010
6326,-0.475,0.020
6327,-0.475,0.020
6328,-0.475,0.035
6329,-0.470,0.060
6330,-0.485,0.080
6331,-0.480,0.090
6332,-0.480,0.085
6333,-0.485,0.090
6334,-0.485,0.095
6335,-0.510,0.065
6336,-0.495,0.025
6337,-0.480,0.025
6338,-0.455,0.040
6339,-0.470,0.055
6340,-0.490,0.045
6341,-0.515,0.005
6342,-0.535,0.015
6343,-0.505,0.020
6344,-0.505,-0.005
6345,-0.505,-0.005
6346,-0.525,-0.010
6347,-0.530,-0.040
6348,-0.560,-0.070
6349,-0.590,-0.105
6350,-0.605,-0.105
6351,-0.600,-0.100
6352,-0.605,-0.105
6353,-0.605,-0.135
6354,-0.605,-0.165
6355,-0.635,-0.180
6356,-0.660,-0.195
6357,-0.680,-0.235
6358,-0.680,-0.245
6359,-0.670,-0.225
6360,-0.680,-0.225
6361,-0.660,-0.250
6362,-0.640,-0.265
6363,-0.630,-0.270
6364,-0.625,-0.290
6365,-0.625,-0.315
6366,-0.650,-0.335
6367,-0.665,-0.320
6368,-0.665,-0.320
6369,-0.645,-0.315
6370,-0.630,-0.340
6371,-0.630,-0.360
6372,-0.660,-0.380
6373,-0.665,-0.390
6374,-0.660,-0.390
6375,-0.635,-0.390
6376,-0.615,-0.375
6377,-0.590,-0.355
6378,-0.575,-0.340
6379,-0.565,-0.320
6380,-0.550,-0.295
6381,-0.520,-0.305
6382,-0.510,-0.345
6383,-0.520,-0.350
6384,-0.535,-0.360
6385,-0.535,-0.325
6386,-0.510,-0.295
6387,-0.500,-0.280
6388,-0.460,-0.260
6389,-0.440,-0.245
6390,-0.430,-0.225
6391,-0.410,-0.225
6392,-0.380,-0.210
6393,-0.370,-0.185
6394,-0.350,-0.145
6395,-0.350,-0.120
6396,-0.345,-0.105
6397,-0.345,-0.070
6398,-0.355,-0.030
6399,-0.340,0.025
6400,-0.340,0.035
6401,-0.335,0.030
6402,-0.305,0.025
6403,-0.280,0.055
6404,-0.235,0.085
6405,-0.215,0.120
6406,-0.200,0.120
6407,-0.220,0.105
6408,-0.215,0.115
6409,-0.240,0.125
6410,-0.230,0.145
6411,-0.225,0.160
6412,-0.205,0.185
6413,-0.165,0.180
6414,-0.140,0.195
6415,-0.145,0.195
6416,-0.140,0.210
6417,-0.150,0.215
6418,-0.145,0.225
6419,-0.145,0.210
6420,-0.150,0.215
6421,-0.160,0.210
6422,-0.165,0.210
6423,-0.165,0.225
6424,-0.180,0.225
6425,-0.185,0.205
6426,-0.190,0.205
6427,-0.225,0.225
6428,-0.195,0.230
6429,-0.170,0.205
6430,-0.150,0.185
6431,-0.140,0.185
6432,-0.140,0.190
6433,-0.160,0.195
6434,-0.175,0.195
6435,-0.175,0.205
6436,-0.180,0.205
6437,-0.200,0.185
6438,-0.205,0.185
6439,-0.185,0.190
6440,-0.155,0.190
6441,-0.125,0.190
6442,-0.130,0.195
6443,-0.150,0.185
6444,-0.175,0.175
6445,-0.185,0.180
6446,-0.200,0.195
6447,-0.180,0.215
6448,-0.145,0.210
6449,-0.145,0.205
6450,-0.150,0.180
6451,-0.160,0.180
6452,-0.170,0.185
6453,-0.160,0.175
6454,-0.150,0.160
6455,-0.150,0.155
6456,-0.165,0.170
6457,-0.165,0.190
6458,-0.160,0.205
6459,-0.140,0.230
6460,-0.150,0.225
6461,-0.185,0.205
6462,-0.185,0.190
6463,-0.170,0.175
6464,-0.165,0.175
6465,-0.125,0.195
6466,-0.115,0.170
6467,-0.095,0.145
6468,-0.115,0.155
6469,-0.130,0.145
6470,-0.135,0.140
6471,-0.145,0.155
6472,-0.160,0.175
6473,-0.125,0.175
6474,-0.125,0.175
6475,-0.120,0.170
6476,-0.120,0.190
6477,-0.095,0.205
6478,-0.090,0.175
6479,-0.095,0.150
6480,-0.105,0.150
6481,-0.125,0.165
6482,-0.105,0.205
6483,-0.090,0.195
6484,-0.085,0.165
6485,-0.095,0.150
6486,-0.100,0.145
6487,-0.115,0.150
6488,-0.125,0.155
6489,-0.130,0.165
6490,-0.130,0.170
6491,-0.135,0.165
6492,-0.095,0.135
6493,-0.095,0.125
6494,-0.085,0.150
6495,-0.085,0.175
6496,-0.085,0.180
6497,-0.105,0.160
6498,-0.130,0.135
6499,-0.130,0.110
6500,-0.125,0.120
6501,-0.110,0.170
6502,-0.095,0.185
6503,-0.095,0.155
6504,-0.110,0.105
6505,-0.100,0.070
6506,-0.120,0.080
6507,-0.120,0.130
6508,-0.110,0.155
6509,-0.090,0.155
6510,-0.085,0.135
6511,-0.085,0.145
6512,-0.095,0.140
6513,-0.095,0.135
6514,-0.095,0.130
6515,-0.100,0.140
6516,-0.105,0.145
6517,-0.110,0.150
6518,-0.095,0.180
6519,-0.065,0.205
6520,-0.050,0.200
6521,-0.050,0.165
6522,-0.070,0.140
6523,-0.095,0.130
6524,-0.115,0.140
6525,-0.125,0.140
6526,-0.135,0.155
6527,-0.145,0.160
6528,-0.145,0.150
6529,-0.125,0.170
6530,-0.100,0.185
6531,-0.090,0.190
6532,-0.100,0.170
6533,-0.115,0.140
6534,-0.125,0.130
6535,-0.120,0.155
6536,-0.090,0.200
6537,-0.070,0.220
6538,-0.055,0.210
6539,-0.040,0.190
6540,-0.040,0.175
6541,-0.040,0.175
6542,-0.015,0.205
6543,-0.015,0.230
6544,-0.005,0.245
6545,0.015,0.265
6546,0.035,0.290
6547,0.045,0.310
6548,0.030,0.315
6549,0.025,0.325
6550,0.020,0.330
6551,0.030,0.295
6552,0.015,0.240
6553,0.015,0.165
6554,0.035,0.095
6555,0.025,0.030
6556,-0.010,0.000
6557,-0.065,-0.025
6558,-0.110,-0.025
6559,-0.160,-0.015
6560,-0.170,0.015
6561,-0.150,0.060
6562,-0.150,0.065
6563,-0.145,0.055
6564,-0.165,0.035
6565,-0.205,0.015
6566,-0.185,-0.005
6567,-0.170,-0.005
6568,-0.165,-0.010
6569,-0.180,-0.015
6570,-0.205,0.005
6571,-0.220,0.000
6572,-0.205,0.010
6573,-0.205,0.035
6574,-0.195,0.030
6575,-0.220,-0.010
6576,-0.235,-0.035
6577,-0.250,-0.075
6578,-0.245,-0.070
6579,-0.235,-0.050
6580,-0.235,-0.040
6581,-0.255,-0.020
6582,-0.270,-0.015
6583,-0.270,-0.005
6584,-0.270,0.010
6585,-0.275,-0.005
6586,-0.245,-0.045
6587,-0.225,-0.065
6588,-0.230,-0.060
6589,-0.260,-0.035
6590,-0.275,-0.020
6591,-0.265,0.015
6592,-0.260,0.035
6593,-0.250,0.050
6594,-0.235,0.040
6595,-0.205,0.030
6596,-0.165,0.045
6597,-0.160,0.060
6598,-0.185,0.085
6599,-0.205,0.090
6600,-0.235,0.100
6601,-0.260,0.120
6602,-0.265,0.150
