'sample interval','MLII','V1'
'0.00277778 sec','mV','mV'
0,-0.320,-1.240
1,-0.320,-1.240
2,-0.320,-1.240
3,-0.320,-1.240
4,-0.320,-1.240
5,-0.320,-1.240
6,-0.320,-1.240
7,-0.320,-1.310
8,-0.025,-1.375
9,0.265,-1.445
10,0.580,-1.515
11,0.925,-1.565
12,1.310,-1.575
13,1.670,-1.575
14,2.010,-1.540
15,2.240,-1.465
16,2.315,-1.365
17,2.185,-1.245
18,1.770,-1.145
19,1.130,-1.055
20,0.490,-1.020
21,-0.150,-0.975
22,-0.790,-0.945
23,-1.430,-0.910
24,-1.640,-0.870
25,-1.385,-0.850
26,-1.105,-0.850
27,-0.920,-0.865
28,-0.855,-0.880
29,-0.900,-0.885
30,-0.995,-0.875
31,-1.090,-0.850
32,-1.170,-0.835
33,-1.200,-0.820
34,-1.180,-0.800
35,-1.185,-0.805
36,-1.155,-0.765
37,-1.145,-0.765
38,-1.125,-0.775
39,-1.135,-0.785
40,-1.155,-0.795
41,-1.165,-0.790
42,-1.175,-0.790
43,-1.185,-0.775
44,-1.185,-0.780
45,-1.185,-0.755
46,-1.145,-0.755
47,-1.135,-0.735
48,-1.120,-0.755
49,-1.100,-0.760
50,-1.075,-0.760
51,-1.090,-0.770
52,-1.100,-0.790
53,-1.105,-0.795
54,-1.110,-0.780
55,-1.110,-0.775
56,-1.115,-0.760
57,-1.110,-0.740
58,-1.075,-0.725
59,-1.080,-0.735
60,-1.050,-0.730
61,-1.035,-0.730
62,-1.035,-0.740
63,-1.025,-0.750
64,-1.020,-0.730
65,-1.010,-0.760
66,-1.000,-0.755
67,-1.000,-0.755
68,-0.980,-0.730
69,-0.960,-0.720
70,-0.935,-0.690
71,-0.920,-0.680
72,-0.895,-0.680
73,-0.885,-0.690
74,-0.895,-0.705
75,-0.865,-0.710
76,-0.840,-0.710
77,-0.830,-0.700
78,-0.820,-0.695
79,-0.810,-0.670
80,-0.775,-0.655
81,-0.735,-0.640
82,-0.695,-0.635
83,-0.655,-0.625
84,-0.610,-0.620
85,-0.575,-0.625
86,-0.555,-0.630
87,-0.515,-0.640
88,-0.515,-0.640
89,-0.490,-0.650
90,-0.485,-0.645
91,-0.470,-0.640
92,-0.470,-0.625
93,-0.445,-0.615
94,-0.425,-0.600
95,-0.395,-0.575
96,-0.355,-0.575
97,-0.340,-0.590
98,-0.335,-0.595
99,-0.340,-0.625
100,-0.350,-0.640
101,-0.375,-0.650
102,-0.390,-0.640
103,-0.415,-0.625
104,-0.440,-0.625
105,-0.480,-0.625
106,-0.495,-0.630
107,-0.530,-0.645
108,-0.565,-0.645
109,-0.605,-0.660
110,-0.660,-0.680
111,-0.700,-0.700
112,-0.740,-0.710
113,-0.800,-0.740
114,-0.835,-0.735
115,-0.895,-0.710
116,-0.945,-0.725
117,-0.990,-0.725
118,-1.020,-0.725
119,-1.050,-0.730
120,-1.060,-0.700
121,-1.090,-0.695
122,-1.120,-0.680
123,-1.120,-0.710
124,-1.145,-0.740
125,-1.170,-0.790
126,-1.205,-0.810
127,-1.255,-0.820
128,-1.260,-0.790
129,-1.260,-0.775
130,-1.245,-0.725
131,-1.225,-0.720
132,-1.215,-0.735
133,-1.215,-0.750
134,-1.230,-0.760
135,-1.240,-0.765
136,-1.245,-0.780
137,-1.260,-0.775
138,-1.265,-0.775
139,-1.275,-0.735
140,-1.270,-0.745
141,-1.280,-0.745
142,-1.260,-0.745
143,-1.260,-0.740
144,-1.235,-0.750
145,-1.240,-0.735
146,-1.240,-0.730
147,-1.235,-0.735
148,-1.245,-0.750
149,-1.245,-0.745
150,-1.250,-0.750
151,-1.270,-0.755
152,-1.265,-0.740
153,-1.245,-0.730
154,-1.230,-0.720
155,-1.210,-0.715
156,-1.205,-0.710
157,-1.215,-0.700
158,-1.230,-0.720
159,-1.235,-0.730
160,-1.250,-0.725
161,-1.265,-0.740
162,-1.265,-0.720
163,-1.270,-0.705
164,-1.270,-0.720
165,-1.265,-0.705
166,-1.250,-0.710
167,-1.240,-0.725
168,-1.225,-0.735
169,-1.235,-0.760
170,-1.245,-0.760
171,-1.260,-0.740
172,-1.280,-0.760
173,-1.300,-0.750
174,-1.300,-0.755
175,-1.305,-0.775
176,-1.305,-0.785
177,-1.285,-0.775
178,-1.290,-0.755
179,-1.295,-0.745
180,-1.295,-0.725
181,-1.300,-0.715
182,-1.305,-0.715
183,-1.310,-0.760
184,-1.325,-0.770
185,-1.315,-0.790
186,-1.340,-0.790
187,-1.340,-0.775
188,-1.345,-0.780
189,-1.325,-0.750
190,-1.330,-0.735
191,-1.315,-0.720
192,-1.305,-0.700
193,-1.295,-0.710
194,-1.305,-0.725
195,-1.300,-0.740
196,-1.305,-0.760
197,-1.320,-0.765
198,-1.335,-0.765
199,-1.335,-0.755
200,-1.360,-0.775
201,-1.355,-0.760
202,-1.350,-0.730
203,-1.355,-0.730
204,-1.340,-0.715
205,-1.345,-0.705
206,-1.350,-0.705
207,-1.375,-0.725
208,-1.385,-0.735
209,-1.385,-0.780
210,-1.365,-0.755
211,-1.365,-0.760
212,-1.370,-0.750
213,-1.360,-0.725
214,-1.345,-0.700
215,-1.325,-0.670
216,-1.305,-0.665
217,-1.270,-0.650
218,-1.270,-0.665
219,-1.265,-0.650
220,-1.275,-0.670
221,-1.305,-0.690
222,-1.325,-0.695
223,-1.330,-0.700
224,-1.325,-0.720
225,-1.300,-0.715
226,-1.270,-0.705
227,-1.255,-0.705
228,-1.240,-0.695
229,-1.235,-0.685
230,-1.210,-0.700
231,-1.195,-0.680
232,-1.195,-0.690
233,-1.200,-0.700
234,-1.205,-0.720
235,-1.200,-0.740
236,-1.200,-0.775
237,-1.205,-0.760
238,-1.215,-0.740
239,-1.210,-0.700
240,-1.215,-0.690
241,-1.230,-0.690
242,-1.245,-0.695
243,-1.260,-0.725
244,-1.280,-0.735
245,-1.300,-0.755
246,-1.310,-0.770
247,-1.350,-0.765
248,-1.375,-0.770
249,-1.385,-0.745
250,-1.400,-0.750
251,-1.400,-0.740
252,-1.400,-0.755
253,-1.400,-0.750
254,-1.390,-0.760
255,-1.375,-0.760
256,-1.385,-0.775
257,-1.380,-0.780
258,-1.390,-0.775
259,-1.410,-0.775
260,-1.425,-0.760
261,-1.430,-0.740
262,-1.420,-0.740
263,-1.420,-0.715
264,-1.400,-0.695
265,-1.385,-0.700
266,-1.395,-0.710
267,-1.395,-0.740
268,-1.395,-0.775
269,-1.375,-0.825
270,-1.340,-0.860
271,-1.290,-0.905
272,-1.205,-0.945
273,-1.045,-0.970
274,-0.870,-1.005
275,-0.625,-1.035
276,-0.380,-1.080
277,-0.105,-1.135
278,0.135,-1.195
279,0.395,-1.280
280,0.665,-1.350
281,0.975,-1.360
282,1.255,-1.310
283,1.430,-1.205
284,1.450,-1.080
285,1.205,-0.970
286,0.665,-0.920
287,0.025,-0.885
288,-0.615,-0.890
289,-1.255,-0.875
290,-1.895,-0.870
291,-2.070,-0.855
292,-1.900,-0.825
293,-1.640,-0.785
294,-1.390,-0.745
295,-1.235,-0.725
296,-1.185,-0.720
297,-1.200,-0.720
298,-1.240,-0.720
299,-1.285,-0.740
300,-1.320,-0.715
301,-1.350,-0.720
302,-1.360,-0.710
303,-1.360,-0.710
304,-1.365,-0.710
305,-1.365,-0.695
306,-1.365,-0.720
307,-1.395,-0.710
308,-1.395,-0.715
309,-1.380,-0.695
310,-1.380,-0.690
311,-1.365,-0.695
312,-1.335,-0.675
313,-1.305,-0.685
314,-1.290,-0.685
315,-1.285,-0.695
316,-1.295,-0.695
317,-1.300,-0.715
318,-1.290,-0.710
319,-1.290,-0.715
320,-1.295,-0.695
321,-1.275,-0.685
322,-1.260,-0.660
323,-1.235,-0.675
324,-1.225,-0.630
325,-1.225,-0.635
326,-1.215,-0.650
327,-1.210,-0.665
328,-1.230,-0.690
329,-1.215,-0.695
330,-1.195,-0.705
331,-1.190,-0.705
332,-1.180,-0.695
333,-1.155,-0.680
334,-1.135,-0.665
335,-1.100,-0.665
336,-1.075,-0.665
337,-1.065,-0.655
338,-1.045,-0.680
339,-1.035,-0.670
340,-1.040,-0.685
341,-1.045,-0.675
342,-1.025,-0.665
343,-1.025,-0.675
344,-1.015,-0.650
345,-0.980,-0.640
346,-0.945,-0.625
347,-0.925,-0.615
348,-0.875,-0.595
349,-0.855,-0.605
350,-0.830,-0.615
351,-0.810,-0.600
352,-0.770,-0.610
353,-0.750,-0.625
354,-0.730,-0.630
355,-0.755,-0.620
356,-0.700,-0.620
357,-0.705,-0.590
358,-0.685,-0.575
359,-0.660,-0.565
360,-0.635,-0.575
361,-0.610,-0.595
362,-0.600,-0.600
363,-0.600,-0.620
364,-0.600,-0.615
365,-0.600,-0.620
366,-0.605,-0.605
367,-0.620,-0.595
368,-0.615,-0.585
369,-0.640,-0.585
370,-0.640,-0.600
371,-0.650,-0.625
372,-0.665,-0.610
373,-0.700,-0.620
374,-0.750,-0.625
375,-0.770,-0.630
376,-0.830,-0.655
377,-0.885,-0.675
378,-0.925,-0.690
379,-0.975,-0.680
380,-0.995,-0.675
381,-1.010,-0.675
382,-1.055,-0.675
383,-1.065,-0.680
384,-1.070,-0.690
385,-1.080,-0.690
386,-1.115,-0.695
387,-1.130,-0.705
388,-1.155,-0.715
389,-1.180,-0.725
390,-1.210,-0.715
391,-1.235,-0.750
392,-1.240,-0.735
393,-1.230,-0.745
394,-1.225,-0.765
395,-1.220,-0.745
396,-1.215,-0.735
397,-1.220,-0.735
398,-1.210,-0.745
399,-1.230,-0.745
400,-1.235,-0.740
401,-1.245,-0.745
402,-1.250,-0.740
403,-1.250,-0.730
404,-1.255,-0.725
405,-1.250,-0.715
406,-1.240,-0.720
407,-1.230,-0.720
408,-1.215,-0.720
409,-1.200,-0.715
410,-1.205,-0.745
411,-1.200,-0.765
412,-1.215,-0.770
413,-1.220,-0.755
414,-1.190,-0.750
415,-1.200,-0.730
416,-1.190,-0.720
417,-1.185,-0.720
418,-1.165,-0.690
419,-1.150,-0.670
420,-1.150,-0.690
421,-1.140,-0.705
422,-1.145,-0.700
423,-1.145,-0.725
424,-1.155,-0.745
425,-1.165,-0.755
426,-1.155,-0.780
427,-1.150,-0.770
428,-1.150,-0.775
429,-1.150,-0.760
430,-1.160,-0.755
431,-1.160,-0.740
432,-1.155,-0.715
433,-1.145,-0.715
434,-1.140,-0.730
435,-1.120,-0.725
436,-1.135,-0.725
437,-1.135,-0.725
438,-1.135,-0.725
439,-1.165,-0.735
440,-1.160,-0.720
441,-1.150,-0.715
442,-1.145,-0.705
443,-1.145,-0.695
444,-1.135,-0.680
445,-1.140,-0.680
446,-1.175,-0.680
447,-1.170,-0.705
448,-1.185,-0.725
449,-1.195,-0.765
450,-1.190,-0.780
451,-1.190,-0.790
452,-1.210,-0.775
453,-1.205,-0.760
454,-1.180,-0.750
455,-1.175,-0.750
456,-1.160,-0.745
457,-1.170,-0.750
458,-1.175,-0.730
459,-1.185,-0.730
460,-1.175,-0.720
461,-1.185,-0.755
462,-1.195,-0.785
463,-1.200,-0.800
464,-1.200,-0.820
465,-1.205,-0.820
466,-1.210,-0.785
467,-1.210,-0.755
468,-1.175,-0.735
469,-1.175,-0.710
470,-1.165,-0.695
471,-1.150,-0.720
472,-1.165,-0.730
473,-1.190,-0.745
474,-1.205,-0.765
475,-1.235,-0.790
476,-1.240,-0.785
477,-1.220,-0.770
478,-1.205,-0.760
479,-1.200,-0.750
480,-1.190,-0.735
481,-1.205,-0.730
482,-1.195,-0.740
483,-1.200,-0.745
484,-1.225,-0.765
485,-1.205,-0.765
486,-1.215,-0.760
487,-1.210,-0.730
488,-1.205,-0.705
489,-1.200,-0.670
490,-1.160,-0.675
491,-1.140,-0.680
492,-1.125,-0.710
493,-1.120,-0.710
494,-1.115,-0.720
495,-1.105,-0.715
496,-1.090,-0.695
497,-1.090,-0.695
498,-1.105,-0.685
499,-1.105,-0.695
500,-1.110,-0.695
501,-1.115,-0.700
502,-1.095,-0.715
503,-1.090,-0.715
504,-1.075,-0.705
505,-1.050,-0.715
506,-1.050,-0.730
507,-1.015,-0.740
508,-0.995,-0.755
509,-0.985,-0.765
510,-0.970,-0.775
511,-0.965,-0.770
512,-0.990,-0.765
513,-1.005,-0.740
514,-1.015,-0.720
515,-0.995,-0.715
516,-0.995,-0.705
517,-0.985,-0.705
518,-0.990,-0.730
519,-1.005,-0.730
520,-1.035,-0.745
521,-1.065,-0.745
522,-1.075,-0.750
523,-1.110,-0.745
524,-1.145,-0.740
525,-1.155,-0.735
526,-1.185,-0.725
527,-1.180,-0.740
528,-1.185,-0.735
529,-1.200,-0.760
530,-1.210,-0.750
531,-1.210,-0.750
532,-1.220,-0.755
533,-1.205,-0.755
534,-1.210,-0.755
535,-1.205,-0.750
536,-1.205,-0.740
537,-1.200,-0.740
538,-1.200,-0.715
539,-1.200,-0.720
540,-1.185,-0.705
541,-1.175,-0.720
542,-1.175,-0.740
543,-1.170,-0.740
544,-1.205,-0.750
545,-1.230,-0.770
546,-1.215,-0.800
547,-1.205,-0.825
548,-1.190,-0.825
549,-1.135,-0.890
550,-1.020,-0.940
551,-0.870,-1.015
552,-0.660,-1.090
553,-0.360,-1.185
554,-0.020,-1.255
555,0.350,-1.340
556,0.740,-1.420
557,1.130,-1.510
558,1.520,-1.545
559,1.875,-1.560
560,2.135,-1.510
561,2.315,-1.420
562,2.375,-1.285
563,2.320,-1.170
564,2.070,-1.030
565,1.565,-0.950
566,0.925,-0.915
567,0.285,-0.915
568,-0.355,-0.905
569,-0.995,-0.885
570,-1.635,-0.855
571,-1.670,-0.800
572,-1.400,-0.765
573,-1.105,-0.725
574,-0.880,-0.720
575,-0.800,-0.690
576,-0.840,-0.710
577,-0.915,-0.725
578,-1.020,-0.745
579,-1.105,-0.750
580,-1.160,-0.765
581,-1.160,-0.755
582,-1.165,-0.730
583,-1.145,-0.720
584,-1.150,-0.705
585,-1.135,-0.675
586,-1.140,-0.660
587,-1.145,-0.660
588,-1.135,-0.675
589,-1.125,-0.665
590,-1.135,-0.680
591,-1.120,-0.685
592,-1.105,-0.705
593,-1.100,-0.705
594,-1.100,-0.690
595,-1.120,-0.710
596,-1.115,-0.700
597,-1.100,-0.705
598,-1.085,-0.700
599,-1.065,-0.675
600,-1.060,-0.665
601,-1.040,-0.655
602,-1.040,-0.655
603,-1.040,-0.640
604,-1.040,-0.665
605,-1.030,-0.680
606,-1.040,-0.690
607,-1.040,-0.700
608,-1.025,-0.705
609,-1.020,-0.675
610,-1.005,-0.670
611,-1.000,-0.640
612,-0.975,-0.635
613,-0.950,-0.640
614,-0.955,-0.640
615,-0.930,-0.670
616,-0.920,-0.680
617,-0.915,-0.675
618,-0.895,-0.670
619,-0.875,-0.655
620,-0.860,-0.650
621,-0.855,-0.620
622,-0.840,-0.605
623,-0.825,-0.615
624,-0.790,-0.610
625,-0.770,-0.610
626,-0.720,-0.610
627,-0.700,-0.615
628,-0.660,-0.625
629,-0.660,-0.620
630,-0.660,-0.630
631,-0.645,-0.640
632,-0.630,-0.645
633,-0.605,-0.620
634,-0.565,-0.595
635,-0.515,-0.595
636,-0.475,-0.560
637,-0.415,-0.560
638,-0.380,-0.560
639,-0.355,-0.555
640,-0.335,-0.565
641,-0.330,-0.590
642,-0.325,-0.575
643,-0.295,-0.570
644,-0.275,-0.560
645,-0.250,-0.535
646,-0.230,-0.530
647,-0.210,-0.525
648,-0.205,-0.550
649,-0.190,-0.555
650,-0.210,-0.575
651,-0.185,-0.585
652,-0.225,-0.580
653,-0.225,-0.585
654,-0.250,-0.590
655,-0.280,-0.590
656,-0.305,-0.615
657,-0.350,-0.605
658,-0.380,-0.630
659,-0.435,-0.630
660,-0.485,-0.640
661,-0.535,-0.630
662,-0.615,-0.640
663,-0.680,-0.665
664,-0.750,-0.685
665,-0.815,-0.715
666,-0.885,-0.740
667,-0.930,-0.760
668,-0.975,-0.740
669,-0.990,-0.730
670,-0.995,-0.710
671,-1.020,-0.680
672,-1.020,-0.675
673,-1.020,-0.675
674,-1.040,-0.700
675,-1.050,-0.710
676,-1.065,-0.740
677,-1.090,-0.735
678,-1.105,-0.745
679,-1.125,-0.730
680,-1.125,-0.730
681,-1.140,-0.715
682,-1.140,-0.710
683,-1.135,-0.695
684,-1.130,-0.665
685,-1.110,-0.670
686,-1.110,-0.700
687,-1.110,-0.715
688,-1.120,-0.745
689,-1.145,-0.765
690,-1.135,-0.770
691,-1.135,-0.745
692,-1.145,-0.720
693,-1.130,-0.720
694,-1.130,-0.685
695,-1.115,-0.675
696,-1.110,-0.670
697,-1.100,-0.670
698,-1.095,-0.700
699,-1.110,-0.695
700,-1.110,-0.710
701,-1.110,-0.720
702,-1.105,-0.740
703,-1.095,-0.725
704,-1.105,-0.730
705,-1.110,-0.730
706,-1.095,-0.710
707,-1.085,-0.710
708,-1.080,-0.690
709,-1.065,-0.690
710,-1.060,-0.690
711,-1.080,-0.685
712,-1.075,-0.690
713,-1.090,-0.700
714,-1.095,-0.705
715,-1.110,-0.695
716,-1.115,-0.710
717,-1.105,-0.700
718,-1.115,-0.700
719,-1.125,-0.690
720,-1.105,-0.675
721,-1.095,-0.670
722,-1.075,-0.700
723,-1.110,-0.705
724,-1.105,-0.720
725,-1.115,-0.705
726,-1.135,-0.725
727,-1.155,-0.720
728,-1.160,-0.700
729,-1.155,-0.700
730,-1.150,-0.705
731,-1.145,-0.705
732,-1.140,-0.705
733,-1.120,-0.715
734,-1.135,-0.710
735,-1.140,-0.695
736,-1.140,-0.720
737,-1.160,-0.720
738,-1.180,-0.730
739,-1.180,-0.720
740,-1.175,-0.720
741,-1.185,-0.715
742,-1.185,-0.705
743,-1.185,-0.690
744,-1.180,-0.685
745,-1.175,-0.680
746,-1.190,-0.670
747,-1.185,-0.685
748,-1.190,-0.690
749,-1.185,-0.695
750,-1.195,-0.730
751,-1.195,-0.730
752,-1.200,-0.725
753,-1.195,-0.730
754,-1.200,-0.725
755,-1.190,-0.710
756,-1.190,-0.695
757,-1.190,-0.690
758,-1.200,-0.695
759,-1.205,-0.685
760,-1.210,-0.695
761,-1.210,-0.720
762,-1.220,-0.735
763,-1.230,-0.715
764,-1.235,-0.720
765,-1.225,-0.705
766,-1.210,-0.675
767,-1.195,-0.660
768,-1.175,-0.645
769,-1.135,-0.620
770,-1.125,-0.605
771,-1.105,-0.605
772,-1.095,-0.605
773,-1.115,-0.615
774,-1.120,-0.645
775,-1.115,-0.655
776,-1.130,-0.660
777,-1.110,-0.665
778,-1.110,-0.665
779,-1.100,-0.665
780,-1.080,-0.630
781,-1.065,-0.645
782,-1.040,-0.650
783,-1.030,-0.665
784,-1.005,-0.690
785,-1.010,-0.710
786,-1.000,-0.715
787,-1.015,-0.710
788,-1.010,-0.700
789,-1.000,-0.685
790,-1.005,-0.690
791,-1.000,-0.655
792,-1.010,-0.655
793,-1.010,-0.660
794,-1.030,-0.680
795,-1.070,-0.695
796,-1.085,-0.710
797,-1.090,-0.700
798,-1.110,-0.690
799,-1.105,-0.690
800,-1.125,-0.680
801,-1.160,-0.680
802,-1.180,-0.685
803,-1.195,-0.675
804,-1.225,-0.685
805,-1.230,-0.680
806,-1.230,-0.690
807,-1.250,-0.710
808,-1.265,-0.725
809,-1.275,-0.735
810,-1.275,-0.730
811,-1.270,-0.725
812,-1.285,-0.695
813,-1.290,-0.680
814,-1.265,-0.675
815,-1.265,-0.655
816,-1.240,-0.650
817,-1.225,-0.655
818,-1.225,-0.675
819,-1.210,-0.680
820,-1.215,-0.675
821,-1.225,-0.670
822,-1.240,-0.685
823,-1.230,-0.720
824,-1.205,-0.765
825,-1.165,-0.810
826,-1.070,-0.875
827,-0.925,-0.985
828,-0.720,-1.060
829,-0.415,-1.140
830,-0.065,-1.220
831,0.315,-1.305
832,0.745,-1.385
833,1.175,-1.460
834,1.610,-1.505
835,1.975,-1.520
836,2.260,-1.460
837,2.435,-1.360
838,2.495,-1.225
839,2.440,-1.070
840,2.220,-0.930
841,1.790,-0.830
842,1.150,-0.785
843,0.510,-0.795
844,-0.130,-0.800
845,-0.770,-0.795
846,-1.410,-0.760
847,-1.750,-0.740
848,-1.505,-0.700
849,-1.200,-0.660
850,-0.945,-0.620
851,-0.820,-0.615
852,-0.820,-0.605
853,-0.890,-0.625
854,-1.020,-0.625
855,-1.110,-0.640
856,-1.165,-0.615
857,-1.185,-0.615
858,-1.185,-0.610
859,-1.165,-0.595
860,-1.150,-0.595
861,-1.135,-0.595
862,-1.115,-0.590
863,-1.145,-0.590
864,-1.150,-0.565
865,-1.165,-0.565
866,-1.175,-0.580
867,-1.175,-0.590
868,-1.170,-0.610
869,-1.165,-0.615
870,-1.160,-0.640
871,-1.115,-0.615
872,-1.100,-0.615
873,-1.110,-0.585
874,-1.100,-0.570
875,-1.100,-0.550
876,-1.090,-0.540
877,-1.050,-0.535
878,-1.055,-0.540
879,-1.040,-0.570
880,-1.055,-0.595
881,-1.050,-0.620
882,-1.050,-0.625
883,-1.050,-0.595
884,-1.050,-0.570
885,-1.030,-0.550
886,-1.020,-0.535
887,-1.000,-0.545
888,-0.970,-0.540
889,-0.950,-0.550
890,-0.930,-0.580
891,-0.920,-0.595
892,-0.930,-0.595
893,-0.925,-0.595
894,-0.930,-0.595
895,-0.910,-0.590
896,-0.890,-0.575
897,-0.865,-0.560
898,-0.840,-0.560
899,-0.825,-0.535
900,-0.795,-0.530
901,-0.770,-0.510
902,-0.745,-0.500
903,-0.700,-0.500
904,-0.680,-0.505
905,-0.675,-0.525
906,-0.675,-0.535
907,-0.630,-0.540
908,-0.615,-0.540
909,-0.580,-0.525
910,-0.540,-0.510
911,-0.500,-0.500
912,-0.450,-0.495
913,-0.400,-0.495
914,-0.365,-0.480
915,-0.325,-0.470
916,-0.310,-0.470
917,-0.305,-0.480
918,-0.280,-0.485
919,-0.270,-0.495
920,-0.275,-0.480
921,-0.255,-0.455
922,-0.250,-0.455
923,-0.230,-0.445
924,-0.230,-0.450
925,-0.225,-0.455
926,-0.240,-0.470
927,-0.230,-0.490
928,-0.240,-0.495
929,-0.275,-0.500
930,-0.310,-0.500
931,-0.355,-0.525
932,-0.390,-0.545
933,-0.445,-0.560
934,-0.485,-0.585
935,-0.550,-0.560
936,-0.600,-0.545
937,-0.650,-0.550
938,-0.715,-0.585
939,-0.760,-0.585
940,-0.810,-0.620
941,-0.880,-0.630
942,-0.935,-0.635
943,-0.995,-0.625
944,-1.030,-0.630
945,-1.065,-0.600
946,-1.055,-0.585
947,-1.075,-0.575
948,-1.075,-0.565
949,-1.090,-0.560
950,-1.085,-0.590
951,-1.105,-0.595
952,-1.125,-0.615
953,-1.125,-0.620
954,-1.150,-0.640
955,-1.160,-0.650
956,-1.165,-0.640
957,-1.165,-0.645
958,-1.175,-0.610
959,-1.170,-0.580
960,-1.175,-0.590
961,-1.175,-0.580
962,-1.135,-0.595
963,-1.160,-0.630
964,-1.175,-0.635
965,-1.175,-0.660
966,-1.175,-0.660
967,-1.180,-0.640
968,-1.175,-0.605
969,-1.160,-0.590
970,-1.135,-0.585
971,-1.130,-0.580
972,-1.110,-0.595
973,-1.100,-0.595
974,-1.120,-0.620
975,-1.110,-0.635
976,-1.140,-0.615
977,-1.150,-0.605
978,-1.145,-0.595
979,-1.150,-0.605
980,-1.150,-0.600
981,-1.160,-0.590
982,-1.145,-0.600
983,-1.140,-0.600
984,-1.140,-0.605
985,-1.145,-0.595
986,-1.140,-0.585
987,-1.145,-0.580
988,-1.120,-0.585
989,-1.135,-0.585
990,-1.150,-0.585
991,-1.150,-0.595
992,-1.170,-0.600
993,-1.155,-0.595
994,-1.160,-0.580
995,-1.145,-0.580
996,-1.150,-0.570
997,-1.145,-0.565
998,-1.150,-0.570
999,-1.170,-0.585
1000,-1.190,-0.590
1001,-1.215,-0.600
1002,-1.225,-0.605
1003,-1.235,-0.600
1004,-1.210,-0.600
1005,-1.225,-0.580
1006,-1.220,-0.575
1007,-1.200,-0.560
1008,-1.200,-0.570
1009,-1.205,-0.585
1010,-1.195,-0.595
1011,-1.205,-0.595
1012,-1.225,-0.605
1013,-1.230,-0.620
1014,-1.235,-0.600
1015,-1.250,-0.595
1016,-1.260,-0.580
1017,-1.280,-0.575
1018,-1.255,-0.550
1019,-1.245,-0.530
1020,-1.225,-0.545
1021,-1.235,-0.580
1022,-1.245,-0.600
1023,-1.260,-0.620
1024,-1.275,-0.615
1025,-1.280,-0.615
1026,-1.305,-0.595
1027,-1.310,-0.575
1028,-1.310,-0.580
1029,-1.285,-0.570
1030,-1.285,-0.560
1031,-1.275,-0.570
1032,-1.260,-0.545
1033,-1.265,-0.550
1034,-1.260,-0.560
1035,-1.270,-0.545
1036,-1.275,-0.565
1037,-1.290,-0.565
1038,-1.300,-0.575
1039,-1.295,-0.575
1040,-1.290,-0.545
1041,-1.280,-0.530
1042,-1.255,-0.510
1043,-1.240,-0.480
1044,-1.220,-0.465
1045,-1.195,-0.465
1046,-1.185,-0.490
1047,-1.210,-0.515
1048,-1.215,-0.515
1049,-1.215,-0.540
1050,-1.225,-0.535
1051,-1.210,-0.545
1052,-1.210,-0.535
1053,-1.180,-0.520
1054,-1.160,-0.520
1055,-1.140,-0.495
1056,-1.120,-0.520
1057,-1.105,-0.560
1058,-1.095,-0.570
1059,-1.090,-0.575
1060,-1.100,-0.585
1061,-1.140,-0.575
1062,-1.145,-0.545
1063,-1.180,-0.545
1064,-1.210,-0.530
1065,-1.215,-0.535
1066,-1.215,-0.525
1067,-1.230,-0.530
1068,-1.215,-0.540
1069,-1.240,-0.530
1070,-1.260,-0.535
1071,-1.285,-0.550
1072,-1.320,-0.550
1073,-1.345,-0.540
1074,-1.350,-0.530
1075,-1.365,-0.540
1076,-1.385,-0.540
1077,-1.390,-0.545
1078,-1.405,-0.535
1079,-1.400,-0.540
1080,-1.375,-0.525
1081,-1.385,-0.515
1082,-1.365,-0.510
1083,-1.365,-0.510
1084,-1.370,-0.510
1085,-1.380,-0.540
1086,-1.390,-0.545
1087,-1.405,-0.550
1088,-1.405,-0.545
1089,-1.400,-0.535
1090,-1.390,-0.510
1091,-1.370,-0.520
1092,-1.340,-0.520
1093,-1.305,-0.580
1094,-1.220,-0.665
1095,-1.140,-0.775
1096,-1.005,-0.875
1097,-0.785,-0.965
1098,-0.475,-1.070
1099,-0.075,-1.145
1100,0.380,-1.225
1101,0.915,-1.280
1102,1.435,-1.280
1103,1.900,-1.200
1104,2.225,-1.055
1105,2.330,-0.915
1106,2.130,-0.795
1107,1.580,-0.705
1108,0.940,-0.655
1109,0.300,-0.655
1110,-0.340,-0.655
1111,-0.980,-0.655
1112,-1.620,-0.605
1113,-1.975,-0.570
1114,-1.625,-0.545
1115,-1.280,-0.495
1116,-1.050,-0.480
1117,-0.980,-0.475
1118,-1.025,-0.480
1119,-1.125,-0.495
1120,-1.250,-0.520
1121,-1.355,-0.545
1122,-1.395,-0.525
1123,-1.405,-0.510
1124,-1.380,-0.475
1125,-1.350,-0.450
1126,-1.335,-0.440
1127,-1.310,-0.425
1128,-1.310,-0.430
1129,-1.300,-0.455
1130,-1.335,-0.470
1131,-1.325,-0.490
1132,-1.350,-0.500
1133,-1.340,-0.495
1134,-1.350,-0.495
1135,-1.335,-0.485
1136,-1.340,-0.490
1137,-1.340,-0.465
1138,-1.310,-0.450
1139,-1.305,-0.445
1140,-1.255,-0.390
1141,-1.255,-0.400
1142,-1.260,-0.425
1143,-1.245,-0.420
1144,-1.245,-0.445
1145,-1.250,-0.450
1146,-1.245,-0.475
1147,-1.240,-0.460
1148,-1.230,-0.460
1149,-1.220,-0.450
1150,-1.185,-0.420
1151,-1.185,-0.395
1152,-1.150,-0.410
1153,-1.130,-0.415
1154,-1.125,-0.425
1155,-1.125,-0.450
1156,-1.105,-0.450
1157,-1.105,-0.450
1158,-1.090,-0.450
1159,-1.080,-0.450
1160,-1.065,-0.440
1161,-1.050,-0.410
1162,-1.025,-0.415
1163,-1.010,-0.420
1164,-0.975,-0.390
1165,-0.975,-0.405
1166,-0.950,-0.395
1167,-0.955,-0.400
1168,-0.900,-0.405
1169,-0.875,-0.405
1170,-0.840,-0.390
1171,-0.820,-0.380
1172,-0.810,-0.375
1173,-0.775,-0.375
1174,-0.750,-0.370
1175,-0.705,-0.355
1176,-0.655,-0.345
1177,-0.610,-0.350
1178,-0.600,-0.365
1179,-0.595,-0.380
1180,-0.595,-0.395
1181,-0.580,-0.385
1182,-0.555,-0.375
1183,-0.545,-0.380
1184,-0.540,-0.375
1185,-0.505,-0.375
1186,-0.475,-0.360
1187,-0.450,-0.355
1188,-0.430,-0.335
1189,-0.430,-0.330
1190,-0.430,-0.355
1191,-0.445,-0.340
1192,-0.470,-0.365
1193,-0.495,-0.375
1194,-0.520,-0.410
1195,-0.570,-0.410
1196,-0.610,-0.420
1197,-0.675,-0.385
1198,-0.715,-0.365
1199,-0.740,-0.365
1200,-0.785,-0.380
1201,-0.835,-0.380
1202,-0.915,-0.415
1203,-0.965,-0.445
1204,-0.995,-0.450
1205,-1.035,-0.470
1206,-1.100,-0.460
1207,-1.155,-0.445
1208,-1.195,-0.450
1209,-1.225,-0.435
1210,-1.240,-0.435
1211,-1.260,-0.440
1212,-1.275,-0.445
1213,-1.295,-0.455
1214,-1.310,-0.470
1215,-1.335,-0.480
1216,-1.350,-0.465
1217,-1.380,-0.470
1218,-1.380,-0.480
1219,-1.395,-0.470
1220,-1.400,-0.460
1221,-1.385,-0.465
1222,-1.380,-0.450
1223,-1.395,-0.460
1224,-1.365,-0.445
1225,-1.365,-0.460
1226,-1.365,-0.460
1227,-1.370,-0.480
1228,-1.395,-0.475
1229,-1.390,-0.475
1230,-1.405,-0.450
1231,-1.415,-0.460
1232,-1.415,-0.460
1233,-1.400,-0.445
1234,-1.375,-0.460
1235,-1.365,-0.455
1236,-1.350,-0.455
1237,-1.345,-0.475
1238,-1.345,-0.500
1239,-1.350,-0.490
1240,-1.345,-0.500
1241,-1.355,-0.500
1242,-1.350,-0.490
1243,-1.355,-0.490
1244,-1.365,-0.465
1245,-1.370,-0.450
1246,-1.360,-0.445
1247,-1.345,-0.445
1248,-1.340,-0.445
1249,-1.330,-0.455
1250,-1.330,-0.470
1251,-1.335,-0.455
1252,-1.345,-0.470
1253,-1.360,-0.475
1254,-1.365,-0.470
1255,-1.365,-0.475
1256,-1.375,-0.475
1257,-1.365,-0.465
1258,-1.350,-0.470
1259,-1.350,-0.465
1260,-1.350,-0.450
1261,-1.360,-0.445
1262,-1.395,-0.450
1263,-1.405,-0.470
1264,-1.420,-0.480
1265,-1.420,-0.490
1266,-1.435,-0.470
1267,-1.415,-0.485
1268,-1.430,-0.475
1269,-1.435,-0.465
1270,-1.430,-0.460
1271,-1.405,-0.460
1272,-1.385,-0.450
1273,-1.385,-0.465
1274,-1.385,-0.460
1275,-1.405,-0.470
1276,-1.410,-0.470
1277,-1.420,-0.485
1278,-1.420,-0.455
1279,-1.445,-0.460
1280,-1.445,-0.460
1281,-1.445,-0.450
1282,-1.430,-0.445
1283,-1.435,-0.445
1284,-1.420,-0.445
1285,-1.425,-0.445
1286,-1.405,-0.450
1287,-1.415,-0.460
1288,-1.425,-0.475
1289,-1.410,-0.480
1290,-1.425,-0.475
1291,-1.435,-0.490
1292,-1.440,-0.505
1293,-1.445,-0.475
1294,-1.440,-0.480
1295,-1.440,-0.450
1296,-1.435,-0.445
1297,-1.435,-0.440
1298,-1.425,-0.440
1299,-1.440,-0.455
1300,-1.430,-0.440
1301,-1.425,-0.440
1302,-1.400,-0.410
1303,-1.405,-0.405
1304,-1.390,-0.390
1305,-1.360,-0.365
1306,-1.330,-0.380
1307,-1.325,-0.365
1308,-1.305,-0.390
1309,-1.310,-0.390
1310,-1.310,-0.415
1311,-1.310,-0.425
1312,-1.330,-0.430
1313,-1.325,-0.445
1314,-1.325,-0.460
1315,-1.330,-0.455
1316,-1.325,-0.455
1317,-1.335,-0.445
1318,-1.305,-0.445
1319,-1.275,-0.420
1320,-1.245,-0.425
1321,-1.215,-0.420
1322,-1.205,-0.430
1323,-1.195,-0.435
1324,-1.210,-0.455
1325,-1.230,-0.485
1326,-1.245,-0.480
1327,-1.275,-0.480
1328,-1.300,-0.470
1329,-1.305,-0.475
1330,-1.295,-0.450
1331,-1.295,-0.450
1332,-1.280,-0.435
1333,-1.295,-0.440
1334,-1.315,-0.455
1335,-1.335,-0.475
1336,-1.370,-0.470
1337,-1.405,-0.480
1338,-1.410,-0.470
1339,-1.415,-0.470
1340,-1.435,-0.460
1341,-1.430,-0.485
1342,-1.435,-0.455
1343,-1.435,-0.465
1344,-1.420,-0.430
1345,-1.430,-0.425
1346,-1.430,-0.440
1347,-1.425,-0.475
1348,-1.420,-0.490
1349,-1.425,-0.500
1350,-1.425,-0.490
1351,-1.435,-0.450
1352,-1.425,-0.430
1353,-1.410,-0.420
1354,-1.400,-0.425
1355,-1.385,-0.435
1356,-1.365,-0.450
1357,-1.340,-0.510
1358,-1.280,-0.570
1359,-1.230,-0.645
1360,-1.125,-0.720
1361,-0.965,-0.800
1362,-0.690,-0.870
1363,-0.390,-0.950
1364,0.015,-1.020
1365,0.470,-1.090
1366,0.930,-1.130
1367,1.395,-1.135
1368,1.845,-1.080
1369,2.120,-0.965
1370,2.185,-0.810
1371,2.000,-0.690
1372,1.475,-0.590
1373,0.835,-0.560
1374,0.195,-0.555
1375,-0.445,-0.585
1376,-1.085,-0.550
1377,-1.725,-0.520
1378,-2.095,-0.485
1379,-1.770,-0.465
1380,-1.420,-0.455
1381,-1.160,-0.465
1382,-1.050,-0.455
1383,-1.045,-0.450
1384,-1.100,-0.445
1385,-1.195,-0.450
1386,-1.265,-0.450
1387,-1.340,-0.440
1388,-1.360,-0.450
1389,-1.370,-0.435
1390,-1.355,-0.435
1391,-1.310,-0.425
1392,-1.305,-0.400
1393,-1.295,-0.405
1394,-1.295,-0.395
1395,-1.300,-0.390
1396,-1.305,-0.420
1397,-1.300,-0.420
1398,-1.290,-0.425
1399,-1.285,-0.415
1400,-1.285,-0.430
1401,-1.275,-0.410
1402,-1.260,-0.405
1403,-1.255,-0.385
1404,-1.225,-0.390
1405,-1.215,-0.385
1406,-1.215,-0.375
1407,-1.210,-0.385
1408,-1.220,-0.390
1409,-1.225,-0.395
1410,-1.220,-0.405
1411,-1.210,-0.400
1412,-1.190,-0.400
1413,-1.180,-0.385
1414,-1.135,-0.365
1415,-1.105,-0.360
1416,-1.085,-0.370
1417,-1.055,-0.385
1418,-1.050,-0.410
1419,-1.050,-0.425
1420,-1.055,-0.415
1421,-1.065,-0.410
1422,-1.060,-0.385
1423,-1.060,-0.390
1424,-1.060,-0.360
1425,-1.045,-0.355
1426,-0.995,-0.340
1427,-0.970,-0.345
1428,-0.940,-0.345
1429,-0.915,-0.380
1430,-0.865,-0.375
1431,-0.845,-0.375
1432,-0.830,-0.385
1433,-0.810,-0.375
1434,-0.795,-0.355
1435,-0.790,-0.345
1436,-0.785,-0.340
1437,-0.735,-0.310
1438,-0.695,-0.310
1439,-0.655,-0.300
1440,-0.610,-0.295
1441,-0.580,-0.305
1442,-0.545,-0.305
1443,-0.520,-0.315
1444,-0.505,-0.315
1445,-0.495,-0.315
1446,-0.465,-0.310
1447,-0.460,-0.285
1448,-0.445,-0.270
1449,-0.415,-0.265
1450,-0.395,-0.255
1451,-0.390,-0.275
1452,-0.370,-0.275
1453,-0.380,-0.290
1454,-0.390,-0.300
1455,-0.405,-0.315
1456,-0.420,-0.320
1457,-0.440,-0.320
1458,-0.470,-0.310
1459,-0.500,-0.315
1460,-0.535,-0.315
1461,-0.560,-0.300
1462,-0.605,-0.320
1463,-0.645,-0.310
1464,-0.675,-0.305
1465,-0.710,-0.325
1466,-0.755,-0.340
1467,-0.805,-0.380
1468,-0.865,-0.405
1469,-0.925,-0.420
1470,-0.975,-0.405
1471,-1.040,-0.400
1472,-1.080,-0.405
1473,-1.125,-0.385
1474,-1.155,-0.400
1475,-1.175,-0.380
1476,-1.170,-0.385
1477,-1.195,-0.380
1478,-1.215,-0.390
1479,-1.230,-0.395
1480,-1.255,-0.420
1481,-1.270,-0.450
1482,-1.285,-0.455
1483,-1.295,-0.440
1484,-1.325,-0.425
1485,-1.315,-0.400
1486,-1.320,-0.405
1487,-1.315,-0.390
1488,-1.280,-0.395
1489,-1.285,-0.410
1490,-1.275,-0.405
1491,-1.265,-0.450
1492,-1.280,-0.455
1493,-1.290,-0.440
1494,-1.280,-0.440
1495,-1.305,-0.430
1496,-1.310,-0.410
1497,-1.295,-0.390
1498,-1.260,-0.405
1499,-1.245,-0.410
1500,-1.235,-0.405
1501,-1.225,-0.405
1502,-1.225,-0.400
1503,-1.235,-0.385
1504,-1.225,-0.410
1505,-1.230,-0.420
1506,-1.225,-0.435
1507,-1.235,-0.450
1508,-1.250,-0.455
1509,-1.250,-0.425
1510,-1.240,-0.420
1511,-1.245,-0.415
1512,-1.230,-0.405
1513,-1.225,-0.405
1514,-1.220,-0.410
1515,-1.225,-0.400
1516,-1.235,-0.400
1517,-1.240,-0.395
1518,-1.250,-0.390
1519,-1.255,-0.425
1520,-1.270,-0.440
1521,-1.260,-0.445
1522,-1.250,-0.450
1523,-1.250,-0.450
1524,-1.240,-0.445
1525,-1.265,-0.430
1526,-1.260,-0.395
1527,-1.265,-0.405
1528,-1.275,-0.390
1529,-1.290,-0.400
1530,-1.315,-0.415
1531,-1.320,-0.445
1532,-1.330,-0.460
1533,-1.320,-0.445
1534,-1.320,-0.450
1535,-1.320,-0.435
1536,-1.305,-0.405
1537,-1.290,-0.405
1538,-1.300,-0.395
1539,-1.300,-0.410
1540,-1.300,-0.435
1541,-1.310,-0.455
1542,-1.330,-0.450
1543,-1.340,-0.450
1544,-1.350,-0.425
1545,-1.360,-0.415
1546,-1.345,-0.395
1547,-1.335,-0.400
1548,-1.325,-0.385
1549,-1.320,-0.405
1550,-1.320,-0.395
1551,-1.315,-0.420
1552,-1.330,-0.430
1553,-1.340,-0.465
1554,-1.340,-0.490
1555,-1.355,-0.480
1556,-1.350,-0.470
1557,-1.340,-0.450
1558,-1.330,-0.415
1559,-1.325,-0.400
1560,-1.330,-0.385
1561,-1.325,-0.400
1562,-1.330,-0.405
1563,-1.325,-0.420
1564,-1.340,-0.445
1565,-1.340,-0.480
1566,-1.360,-0.480
1567,-1.365,-0.465
1568,-1.375,-0.445
1569,-1.370,-0.420
1570,-1.380,-0.395
1571,-1.345,-0.375
1572,-1.320,-0.355
1573,-1.310,-0.370
1574,-1.290,-0.385
1575,-1.290,-0.395
1576,-1.280,-0.400
1577,-1.265,-0.400
1578,-1.265,-0.385
1579,-1.285,-0.390
1580,-1.275,-0.375
1581,-1.285,-0.375
1582,-1.280,-0.360
1583,-1.260,-0.375
1584,-1.235,-0.400
1585,-1.230,-0.440
1586,-1.215,-0.465
1587,-1.210,-0.470
1588,-1.200,-0.455
1589,-1.205,-0.435
1590,-1.205,-0.430
1591,-1.185,-0.435
1592,-1.155,-0.410
1593,-1.125,-0.430
1594,-1.120,-0.415
1595,-1.125,-0.425
1596,-1.125,-0.425
1597,-1.155,-0.425
1598,-1.185,-0.440
1599,-1.210,-0.440
1600,-1.240,-0.465
1601,-1.260,-0.465
1602,-1.270,-0.455
1603,-1.280,-0.450
1604,-1.290,-0.455
1605,-1.310,-0.440
1606,-1.340,-0.455
1607,-1.355,-0.450
1608,-1.365,-0.430
1609,-1.380,-0.450
1610,-1.375,-0.470
1611,-1.400,-0.475
1612,-1.420,-0.475
1613,-1.400,-0.490
1614,-1.405,-0.470
1615,-1.390,-0.475
1616,-1.400,-0.495
1617,-1.400,-0.480
1618,-1.410,-0.470
1619,-1.400,-0.460
1620,-1.370,-0.440
1621,-1.380,-0.420
1622,-1.370,-0.390
1623,-1.390,-0.410
1624,-1.395,-0.415
1625,-1.380,-0.450
1626,-1.370,-0.510
1627,-1.325,-0.570
1628,-1.260,-0.610
1629,-1.140,-0.660
1630,-0.960,-0.735
1631,-0.730,-0.790
1632,-0.440,-0.870
1633,-0.085,-0.985
1634,0.300,-1.090
1635,0.710,-1.190
1636,1.170,-1.250
1637,1.625,-1.270
1638,1.990,-1.215
1639,2.240,-1.065
1640,2.310,-0.915
1641,2.150,-0.735
1642,1.670,-0.635
1643,1.030,-0.575
1644,0.390,-0.555
1645,-0.250,-0.560
1646,-0.890,-0.545
1647,-1.530,-0.520
1648,-1.875,-0.505
1649,-1.605,-0.495
1650,-1.290,-0.470
1651,-1.070,-0.460
1652,-0.990,-0.430
1653,-1.000,-0.415
1654,-1.090,-0.395
1655,-1.195,-0.365
1656,-1.280,-0.365
1657,-1.310,-0.375
1658,-1.340,-0.380
1659,-1.325,-0.380
1660,-1.325,-0.395
1661,-1.300,-0.365
1662,-1.310,-0.370
1663,-1.305,-0.375
1664,-1.320,-0.360
1665,-1.315,-0.360
1666,-1.300,-0.350
1667,-1.300,-0.345
1668,-1.295,-0.355
1669,-1.265,-0.360
1670,-1.265,-0.370
1671,-1.250,-0.395
1672,-1.260,-0.415
1673,-1.265,-0.400
1674,-1.270,-0.410
1675,-1.270,-0.385
1676,-1.260,-0.395
1677,-1.260,-0.380
1678,-1.240,-0.365
1679,-1.215,-0.355
1680,-1.200,-0.355
1681,-1.170,-0.350
1682,-1.165,-0.345
1683,-1.170,-0.365
1684,-1.175,-0.355
1685,-1.165,-0.340
1686,-1.175,-0.350
1687,-1.170,-0.345
1688,-1.155,-0.330
1689,-1.145,-0.315
1690,-1.125,-0.335
1691,-1.080,-0.320
1692,-1.080,-0.340
1693,-1.030,-0.360
1694,-1.030,-0.385
1695,-1.015,-0.365
1696,-1.015,-0.370
1697,-1.010,-0.365
1698,-1.000,-0.365
1699,-0.995,-0.340
1700,-0.975,-0.330
1701,-0.950,-0.305
1702,-0.935,-0.295
1703,-0.895,-0.285
1704,-0.855,-0.285
1705,-0.820,-0.280
1706,-0.790,-0.275
1707,-0.760,-0.300
1708,-0.735,-0.310
1709,-0.700,-0.315
1710,-0.670,-0.325
1711,-0.640,-0.340
1712,-0.625,-0.330
1713,-0.595,-0.305
1714,-0.555,-0.270
1715,-0.540,-0.250
1716,-0.510,-0.245
1717,-0.500,-0.255
1718,-0.450,-0.245
1719,-0.425,-0.245
1720,-0.425,-0.265
1721,-0.400,-0.280
1722,-0.400,-0.285
1723,-0.395,-0.275
1724,-0.380,-0.260
1725,-0.365,-0.270
1726,-0.360,-0.260
1727,-0.345,-0.255
1728,-0.335,-0.260
1729,-0.370,-0.255
1730,-0.400,-0.280
1731,-0.435,-0.295
1732,-0.485,-0.320
1733,-0.515,-0.320
1734,-0.550,-0.335
1735,-0.595,-0.325
1736,-0.650,-0.330
1737,-0.700,-0.330
1738,-0.730,-0.325
1739,-0.780,-0.335
1740,-0.800,-0.305
1741,-0.855,-0.315
1742,-0.905,-0.350
1743,-0.955,-0.370
1744,-1.035,-0.400
1745,-1.085,-0.410
1746,-1.120,-0.425
1747,-1.165,-0.395
1748,-1.195,-0.380
1749,-1.215,-0.355
1750,-1.225,-0.345
1751,-1.230,-0.360
1752,-1.230,-0.370
1753,-1.235,-0.400
1754,-1.255,-0.410
1755,-1.260,-0.425
1756,-1.260,-0.405
1757,-1.270,-0.415
1758,-1.265,-0.370
1759,-1.285,-0.385
1760,-1.285,-0.370
1761,-1.295,-0.370
1762,-1.300,-0.370
1763,-1.290,-0.375
1764,-1.290,-0.360
1765,-1.290,-0.370
1766,-1.265,-0.365
1767,-1.275,-0.360
1768,-1.275,-0.380
1769,-1.280,-0.400
1770,-1.270,-0.420
1771,-1.280,-0.425
1772,-1.270,-0.400
1773,-1.260,-0.385
1774,-1.245,-0.360
1775,-1.245,-0.325
1776,-1.225,-0.330
1777,-1.220,-0.315
1778,-1.220,-0.350
1779,-1.225,-0.370
1780,-1.235,-0.390
1781,-1.255,-0.420
1782,-1.270,-0.405
1783,-1.275,-0.415
1784,-1.280,-0.395
1785,-1.265,-0.390
1786,-1.255,-0.365
1787,-1.235,-0.370
1788,-1.225,-0.360
1789,-1.215,-0.365
1790,-1.245,-0.365
1791,-1.255,-0.365
1792,-1.260,-0.380
1793,-1.255,-0.400
1794,-1.270,-0.415
1795,-1.275,-0.415
1796,-1.280,-0.410
1797,-1.280,-0.405
1798,-1.285,-0.390
1799,-1.280,-0.370
1800,-1.270,-0.360
1801,-1.265,-0.360
1802,-1.255,-0.370
1803,-1.275,-0.370
1804,-1.285,-0.370
1805,-1.300,-0.385
1806,-1.330,-0.380
1807,-1.340,-0.380
1808,-1.350,-0.385
1809,-1.345,-0.370
1810,-1.335,-0.395
1811,-1.310,-0.390
1812,-1.315,-0.400
1813,-1.310,-0.430
1814,-1.330,-0.390
1815,-1.335,-0.400
1816,-1.340,-0.375
1817,-1.340,-0.375
1818,-1.340,-0.375
1819,-1.345,-0.385
1820,-1.375,-0.385
1821,-1.380,-0.390
1822,-1.375,-0.395
1823,-1.370,-0.370
1824,-1.380,-0.370
1825,-1.335,-0.365
1826,-1.335,-0.355
1827,-1.345,-0.360
1828,-1.345,-0.400
1829,-1.360,-0.410
1830,-1.365,-0.415
1831,-1.380,-0.415
1832,-1.380,-0.405
1833,-1.385,-0.390
1834,-1.365,-0.385
1835,-1.340,-0.385
1836,-1.335,-0.360
1837,-1.335,-0.375
1838,-1.355,-0.365
1839,-1.360,-0.360
1840,-1.350,-0.360
1841,-1.360,-0.365
1842,-1.335,-0.370
1843,-1.330,-0.350
1844,-1.325,-0.345
1845,-1.310,-0.335
1846,-1.295,-0.315
1847,-1.280,-0.315
1848,-1.265,-0.310
1849,-1.255,-0.325
1850,-1.260,-0.355
1851,-1.260,-0.375
1852,-1.270,-0.385
1853,-1.250,-0.380
1854,-1.260,-0.370
1855,-1.220,-0.355
1856,-1.220,-0.345
1857,-1.195,-0.345
1858,-1.175,-0.330
1859,-1.155,-0.340
1860,-1.135,-0.345
1861,-1.130,-0.375
1862,-1.140,-0.380
1863,-1.170,-0.390
1864,-1.210,-0.395
1865,-1.235,-0.390
1866,-1.260,-0.380
1867,-1.280,-0.400
1868,-1.275,-0.400
1869,-1.280,-0.385
1870,-1.285,-0.390
1871,-1.270,-0.365
1872,-1.285,-0.365
1873,-1.295,-0.365
1874,-1.330,-0.365
1875,-1.375,-0.395
1876,-1.410,-0.405
1877,-1.410,-0.405
1878,-1.440,-0.395
1879,-1.450,-0.385
1880,-1.440,-0.385
1881,-1.410,-0.390
1882,-1.390,-0.380
1883,-1.375,-0.385
1884,-1.355,-0.370
1885,-1.365,-0.365
1886,-1.355,-0.355
1887,-1.375,-0.365
1888,-1.390,-0.365
1889,-1.410,-0.385
1890,-1.415,-0.375
1891,-1.425,-0.375
1892,-1.415,-0.360
1893,-1.400,-0.355
1894,-1.385,-0.370
1895,-1.355,-0.390
1896,-1.320,-0.400
1897,-1.260,-0.470
1898,-1.185,-0.535
1899,-1.070,-0.590
1900,-0.935,-0.685
1901,-0.740,-0.775
1902,-0.500,-0.835
1903,-0.225,-0.895
1904,0.090,-0.955
1905,0.440,-1.010
1906,0.840,-1.070
1907,1.275,-1.075
1908,1.680,-1.015
1909,1.990,-0.925
1910,2.145,-0.790
1911,2.040,-0.645
1912,1.615,-0.540
1913,0.975,-0.505
1914,0.335,-0.510
1915,-0.305,-0.550
1916,-0.945,-0.570
1917,-1.585,-0.520
1918,-2.055,-0.485
1919,-1.815,-0.430
1920,-1.475,-0.380
1921,-1.220,-0.335
1922,-1.055,-0.345
1923,-1.020,-0.340
1924,-1.090,-0.340
1925,-1.190,-0.355
1926,-1.295,-0.380
1927,-1.350,-0.385
1928,-1.395,-0.395
1929,-1.385,-0.380
1930,-1.380,-0.360
1931,-1.340,-0.360
1932,-1.335,-0.330
1933,-1.335,-0.320
1934,-1.345,-0.325
1935,-1.360,-0.320
1936,-1.350,-0.355
1937,-1.340,-0.360
1938,-1.350,-0.345
1939,-1.340,-0.355
1940,-1.335,-0.345
1941,-1.315,-0.335
1942,-1.300,-0.335
1943,-1.285,-0.340
1944,-1.270,-0.320
1945,-1.265,-0.320
1946,-1.270,-0.305
1947,-1.275,-0.330
1948,-1.280,-0.335
1949,-1.280,-0.335
1950,-1.290,-0.330
1951,-1.280,-0.350
1952,-1.270,-0.345
1953,-1.260,-0.335
1954,-1.250,-0.330
1955,-1.215,-0.310
1956,-1.205,-0.270
1957,-1.175,-0.275
1958,-1.160,-0.300
1959,-1.155,-0.335
1960,-1.160,-0.350
1961,-1.150,-0.375
1962,-1.135,-0.370
1963,-1.145,-0.320
1964,-1.125,-0.305
1965,-1.105,-0.270
1966,-1.100,-0.270
1967,-1.065,-0.265
1968,-1.040,-0.280
1969,-1.005,-0.300
1970,-0.990,-0.305
1971,-0.970,-0.325
1972,-0.970,-0.300
1973,-0.965,-0.320
1974,-0.960,-0.300
1975,-0.955,-0.305
1976,-0.915,-0.295
1977,-0.885,-0.285
1978,-0.830,-0.290
1979,-0.795,-0.255
1980,-0.760,-0.225
1981,-0.715,-0.200
1982,-0.705,-0.180
1983,-0.685,-0.205
1984,-0.670,-0.210
1985,-0.640,-0.230
1986,-0.625,-0.245
1987,-0.595,-0.275
1988,-0.575,-0.270
1989,-0.575,-0.280
1990,-0.570,-0.270
1991,-0.545,-0.220
1992,-0.520,-0.205
1993,-0.515,-0.195
1994,-0.490,-0.180
1995,-0.490,-0.200
1996,-0.510,-0.195
1997,-0.515,-0.230
1998,-0.540,-0.230
1999,-0.545,-0.235
2000,-0.565,-0.240
2001,-0.575,-0.245
2002,-0.600,-0.265
2003,-0.625,-0.270
2004,-0.650,-0.270
2005,-0.700,-0.275
2006,-0.750,-0.260
2007,-0.800,-0.270
2008,-0.855,-0.270
2009,-0.895,-0.295
2010,-0.945,-0.295
2011,-1.010,-0.290
2012,-1.050,-0.285
2013,-1.090,-0.270
2014,-1.115,-0.280
2015,-1.160,-0.305
2016,-1.170,-0.320
2017,-1.180,-0.345
2018,-1.220,-0.340
2019,-1.240,-0.370
2020,-1.270,-0.375
2021,-1.295,-0.390
2022,-1.310,-0.365
2023,-1.320,-0.370
2024,-1.330,-0.350
2025,-1.335,-0.345
2026,-1.325,-0.350
2027,-1.335,-0.335
2028,-1.335,-0.320
2029,-1.320,-0.325
2030,-1.335,-0.340
2031,-1.335,-0.335
2032,-1.345,-0.345
2033,-1.345,-0.355
2034,-1.345,-0.360
2035,-1.355,-0.375
2036,-1.340,-0.365
2037,-1.340,-0.360
2038,-1.330,-0.330
2039,-1.320,-0.335
2040,-1.315,-0.315
2041,-1.310,-0.335
2042,-1.310,-0.345
2043,-1.315,-0.380
2044,-1.320,-0.375
2045,-1.330,-0.380
2046,-1.335,-0.365
2047,-1.350,-0.375
2048,-1.370,-0.355
2049,-1.350,-0.335
2050,-1.335,-0.320
2051,-1.305,-0.325
2052,-1.295,-0.340
2053,-1.275,-0.345
2054,-1.265,-0.340
2055,-1.275,-0.355
2056,-1.280,-0.355
2057,-1.295,-0.360
2058,-1.315,-0.375
2059,-1.310,-0.355
2060,-1.320,-0.360
2061,-1.310,-0.345
2062,-1.305,-0.330
2063,-1.295,-0.330
2064,-1.300,-0.320
2065,-1.290,-0.345
2066,-1.305,-0.365
2067,-1.305,-0.370
2068,-1.310,-0.375
2069,-1.320,-0.390
2070,-1.310,-0.380
2071,-1.315,-0.395
2072,-1.315,-0.365
2073,-1.335,-0.360
2074,-1.345,-0.345
2075,-1.365,-0.340
2076,-1.370,-0.335
2077,-1.375,-0.345
2078,-1.385,-0.350
2079,-1.380,-0.375
2080,-1.395,-0.365
2081,-1.390,-0.390
2082,-1.400,-0.380
2083,-1.400,-0.385
2084,-1.410,-0.390
2085,-1.420,-0.385
2086,-1.400,-0.355
2087,-1.405,-0.340
2088,-1.400,-0.320
2089,-1.390,-0.340
2090,-1.385,-0.365
2091,-1.400,-0.380
2092,-1.400,-0.390
2093,-1.410,-0.395
2094,-1.425,-0.385
2095,-1.415,-0.395
2096,-1.420,-0.395
2097,-1.415,-0.385
2098,-1.400,-0.360
2099,-1.405,-0.360
2100,-1.390,-0.335
2101,-1.380,-0.345
2102,-1.385,-0.360
2103,-1.385,-0.370
2104,-1.395,-0.400
2105,-1.415,-0.400
2106,-1.415,-0.395
2107,-1.410,-0.395
2108,-1.435,-0.365
2109,-1.450,-0.370
2110,-1.440,-0.345
2111,-1.435,-0.350
2112,-1.430,-0.335
2113,-1.405,-0.320
2114,-1.380,-0.325
2115,-1.375,-0.315
2116,-1.335,-0.315
2117,-1.320,-0.330
2118,-1.330,-0.330
2119,-1.330,-0.330
2120,-1.335,-0.335
2121,-1.340,-0.320
2122,-1.340,-0.305
2123,-1.345,-0.310
2124,-1.320,-0.290
2125,-1.315,-0.290
2126,-1.305,-0.300
2127,-1.310,-0.345
2128,-1.310,-0.365
2129,-1.305,-0.380
2130,-1.290,-0.395
2131,-1.250,-0.385
2132,-1.240,-0.370
2133,-1.235,-0.335
2134,-1.235,-0.335
2135,-1.220,-0.330
2136,-1.230,-0.345
2137,-1.235,-0.360
2138,-1.250,-0.375
2139,-1.260,-0.370
2140,-1.300,-0.350
2141,-1.325,-0.370
2142,-1.330,-0.370
2143,-1.315,-0.370
2144,-1.310,-0.410
2145,-1.340,-0.400
2146,-1.335,-0.415
2147,-1.355,-0.405
2148,-1.380,-0.395
2149,-1.400,-0.390
2150,-1.430,-0.395
2151,-1.455,-0.405
2152,-1.460,-0.400
2153,-1.475,-0.390
2154,-1.480,-0.390
2155,-1.480,-0.385
2156,-1.465,-0.385
2157,-1.465,-0.380
2158,-1.455,-0.370
2159,-1.445,-0.360
2160,-1.420,-0.360
2161,-1.410,-0.350
2162,-1.415,-0.340
2163,-1.425,-0.325
2164,-1.445,-0.355
2165,-1.465,-0.375
2166,-1.450,-0.405
2167,-1.415,-0.455
2168,-1.365,-0.495
2169,-1.265,-0.560
2170,-1.125,-0.645
2171,-0.935,-0.720
2172,-0.665,-0.790
2173,-0.330,-0.880
2174,0.045,-0.955
2175,0.470,-1.035
2176,0.880,-1.115
2177,1.290,-1.155
2178,1.645,-1.135
2179,1.900,-1.085
2180,2.065,-0.980
2181,2.095,-0.840
2182,1.910,-0.710
2183,1.465,-0.615
2184,0.825,-0.580
2185,0.185,-0.535
2186,-0.455,-0.535
2187,-1.095,-0.525
2188,-1.735,-0.500
2189,-1.995,-0.450
2190,-1.735,-0.405
2191,-1.450,-0.375
2192,-1.230,-0.335
2193,-1.145,-0.335
2194,-1.145,-0.345
2195,-1.220,-0.350
2196,-1.310,-0.355
2197,-1.370,-0.365
2198,-1.415,-0.365
2199,-1.425,-0.360
2200,-1.420,-0.365
2201,-1.410,-0.365
2202,-1.410,-0.370
2203,-1.405,-0.350
2204,-1.400,-0.325
2205,-1.395,-0.310
2206,-1.400,-0.295
2207,-1.385,-0.295
2208,-1.390,-0.285
2209,-1.350,-0.290
2210,-1.330,-0.310
2211,-1.325,-0.335
2212,-1.325,-0.355
2213,-1.330,-0.365
2214,-1.340,-0.365
2215,-1.325,-0.350
2216,-1.335,-0.345
2217,-1.345,-0.340
2218,-1.330,-0.335
2219,-1.320,-0.305
2220,-1.305,-0.295
2221,-1.285,-0.285
2222,-1.260,-0.290
2223,-1.265,-0.280
2224,-1.255,-0.300
2225,-1.255,-0.310
2226,-1.265,-0.325
2227,-1.240,-0.340
2228,-1.235,-0.350
2229,-1.225,-0.345
2230,-1.190,-0.325
2231,-1.165,-0.290
2232,-1.130,-0.280
2233,-1.110,-0.255
2234,-1.095,-0.250
2235,-1.090,-0.235
2236,-1.090,-0.260
2237,-1.075,-0.275
2238,-1.065,-0.295
2239,-1.040,-0.305
2240,-1.030,-0.305
2241,-1.005,-0.340
2242,-0.975,-0.310
2243,-0.955,-0.295
2244,-0.950,-0.275
2245,-0.915,-0.255
2246,-0.880,-0.250
2247,-0.845,-0.235
2248,-0.830,-0.260
2249,-0.805,-0.230
2250,-0.810,-0.240
2251,-0.765,-0.230
2252,-0.730,-0.250
2253,-0.710,-0.235
2254,-0.675,-0.230
2255,-0.645,-0.220
2256,-0.605,-0.190
2257,-0.595,-0.195
2258,-0.565,-0.180
2259,-0.565,-0.185
2260,-0.570,-0.225
2261,-0.585,-0.230
2262,-0.600,-0.240
2263,-0.605,-0.230
2264,-0.620,-0.225
2265,-0.615,-0.215
2266,-0.605,-0.190
2267,-0.595,-0.170
2268,-0.625,-0.195
2269,-0.605,-0.215
2270,-0.635,-0.235
2271,-0.675,-0.245
2272,-0.725,-0.265
2273,-0.790,-0.285
2274,-0.845,-0.305
2275,-0.905,-0.320
2276,-0.945,-0.335
2277,-0.985,-0.340
2278,-1.015,-0.370
2279,-1.060,-0.375
2280,-1.100,-0.390
2281,-1.105,-0.380
2282,-1.125,-0.360
2283,-1.160,-0.365
2284,-1.190,-0.355
2285,-1.210,-0.370
2286,-1.250,-0.370
2287,-1.255,-0.385
2288,-1.285,-0.395
2289,-1.295,-0.390
2290,-1.290,-0.370
2291,-1.295,-0.360
2292,-1.295,-0.355
2293,-1.285,-0.355
2294,-1.295,-0.360
2295,-1.305,-0.390
2296,-1.340,-0.410
2297,-1.340,-0.365
2298,-1.335,-0.385
2299,-1.340,-0.380
2300,-1.345,-0.390
2301,-1.345,-0.380
2302,-1.325,-0.370
2303,-1.310,-0.360
2304,-1.300,-0.375
2305,-1.290,-0.380
2306,-1.290,-0.380
2307,-1.295,-0.390
2308,-1.305,-0.410
2309,-1.325,-0.395
2310,-1.315,-0.410
2311,-1.315,-0.415
2312,-1.315,-0.405
2313,-1.310,-0.405
2314,-1.300,-0.410
2315,-1.275,-0.380
2316,-1.270,-0.370
2317,-1.290,-0.360
2318,-1.280,-0.370
2319,-1.280,-0.370
2320,-1.270,-0.380
2321,-1.275,-0.400
2322,-1.285,-0.410
2323,-1.300,-0.430
2324,-1.295,-0.445
2325,-1.285,-0.420
2326,-1.280,-0.395
2327,-1.280,-0.385
2328,-1.255,-0.380
2329,-1.250,-0.375
2330,-1.255,-0.370
2331,-1.255,-0.370
2332,-1.265,-0.385
2333,-1.280,-0.380
2334,-1.295,-0.380
2335,-1.290,-0.385
2336,-1.290,-0.390
2337,-1.305,-0.395
2338,-1.295,-0.400
2339,-1.305,-0.400
2340,-1.285,-0.380
2341,-1.280,-0.385
2342,-1.285,-0.400
2343,-1.280,-0.410
2344,-1.310,-0.425
2345,-1.325,-0.420
2346,-1.330,-0.425
2347,-1.335,-0.420
2348,-1.320,-0.400
2349,-1.320,-0.390
2350,-1.305,-0.385
2351,-1.300,-0.400
2352,-1.300,-0.390
2353,-1.310,-0.410
2354,-1.315,-0.415
2355,-1.335,-0.410
2356,-1.340,-0.430
2357,-1.335,-0.415
2358,-1.335,-0.430
2359,-1.345,-0.420
2360,-1.340,-0.440
2361,-1.345,-0.430
2362,-1.335,-0.405
2363,-1.315,-0.400
2364,-1.315,-0.390
2365,-1.310,-0.395
2366,-1.315,-0.385
2367,-1.295,-0.395
2368,-1.315,-0.400
2369,-1.325,-0.420
2370,-1.320,-0.430
2371,-1.335,-0.410
2372,-1.345,-0.425
2373,-1.335,-0.415
2374,-1.340,-0.415
2375,-1.325,-0.400
2376,-1.325,-0.385
2377,-1.310,-0.380
2378,-1.300,-0.370
2379,-1.300,-0.365
2380,-1.295,-0.370
2381,-1.290,-0.365
2382,-1.280,-0.375
2383,-1.280,-0.360
2384,-1.265,-0.355
2385,-1.250,-0.360
2386,-1.240,-0.365
2387,-1.235,-0.365
2388,-1.225,-0.355
2389,-1.220,-0.350
2390,-1.210,-0.350
2391,-1.210,-0.355
2392,-1.220,-0.355
2393,-1.225,-0.375
2394,-1.210,-0.390
2395,-1.215,-0.395
2396,-1.195,-0.410
2397,-1.180,-0.385
2398,-1.160,-0.385
2399,-1.125,-0.365
2400,-1.120,-0.365
2401,-1.125,-0.360
2402,-1.115,-0.375
2403,-1.145,-0.385
2404,-1.160,-0.380
2405,-1.175,-0.405
2406,-1.205,-0.420
2407,-1.215,-0.420
2408,-1.225,-0.435
2409,-1.215,-0.450
2410,-1.225,-0.440
2411,-1.210,-0.430
2412,-1.220,-0.410
2413,-1.235,-0.405
2414,-1.260,-0.410
2415,-1.280,-0.420
2416,-1.315,-0.435
2417,-1.345,-0.445
2418,-1.365,-0.450
2419,-1.385,-0.445
2420,-1.390,-0.435
2421,-1.385,-0.440
2422,-1.380,-0.440
2423,-1.370,-0.430
2424,-1.355,-0.410
2425,-1.340,-0.385
2426,-1.330,-0.390
2427,-1.330,-0.410
2428,-1.345,-0.425
2429,-1.345,-0.430
2430,-1.355,-0.420
2431,-1.335,-0.420
2432,-1.345,-0.425
2433,-1.330,-0.430
2434,-1.315,-0.450
2435,-1.290,-0.500
2436,-1.235,-0.565
2437,-1.135,-0.665
2438,-1.000,-0.775
2439,-0.790,-0.860
2440,-0.510,-0.955
2441,-0.150,-1.055
2442,0.240,-1.130
2443,0.685,-1.205
2444,1.150,-1.235
2445,1.630,-1.235
2446,2.020,-1.175
2447,2.285,-1.075
2448,2.390,-0.945
2449,2.275,-0.840
2450,1.905,-0.765
2451,1.290,-0.710
2452,0.650,-0.680
2453,0.010,-0.675
2454,-0.630,-0.655
2455,-1.270,-0.625
2456,-1.860,-0.565
2457,-1.780,-0.515
2458,-1.520,-0.455
2459,-1.255,-0.405
2460,-1.065,-0.400
2461,-0.985,-0.420
2462,-1.000,-0.435
2463,-1.085,-0.450
2464,-1.195,-0.435
2465,-1.265,-0.430
2466,-1.310,-0.435
2467,-1.310,-0.425
2468,-1.330,-0.405
2469,-1.300,-0.370
2470,-1.270,-0.370
2471,-1.250,-0.370
2472,-1.250,-0.375
2473,-1.255,-0.385
2474,-1.255,-0.385
2475,-1.265,-0.390
2476,-1.260,-0.385
2477,-1.270,-0.390
2478,-1.270,-0.395
2479,-1.260,-0.405
2480,-1.265,-0.405
2481,-1.245,-0.385
2482,-1.230,-0.350
2483,-1.215,-0.335
2484,-1.200,-0.315
2485,-1.190,-0.310
2486,-1.185,-0.345
2487,-1.185,-0.370
2488,-1.195,-0.385
2489,-1.185,-0.390
2490,-1.190,-0.360
2491,-1.190,-0.335
2492,-1.180,-0.340
2493,-1.165,-0.340
2494,-1.160,-0.345
2495,-1.135,-0.365
2496,-1.105,-0.370
2497,-1.080,-0.360
2498,-1.075,-0.345
2499,-1.070,-0.360
2500,-1.045,-0.360
2501,-1.050,-0.355
2502,-1.035,-0.370
2503,-1.040,-0.375
2504,-1.015,-0.360
2505,-1.010,-0.345
2506,-0.975,-0.315
2507,-0.955,-0.305
2508,-0.920,-0.295
2509,-0.870,-0.305
2510,-0.830,-0.295
2511,-0.815,-0.300
2512,-0.810,-0.305
2513,-0.795,-0.290
2514,-0.780,-0.310
2515,-0.735,-0.305
2516,-0.745,-0.285
2517,-0.720,-0.265
2518,-0.680,-0.230
2519,-0.645,-0.235
2520,-0.590,-0.235
2521,-0.555,-0.235
2522,-0.545,-0.250
2523,-0.525,-0.260
2524,-0.515,-0.260
2525,-0.485,-0.250
2526,-0.485,-0.270
2527,-0.470,-0.255
2528,-0.475,-0.270
2529,-0.465,-0.245
2530,-0.460,-0.220
2531,-0.465,-0.225
2532,-0.475,-0.240
2533,-0.485,-0.225
2534,-0.480,-0.225
2535,-0.505,-0.245
2536,-0.540,-0.285
2537,-0.585,-0.320
2538,-0.615,-0.350
2539,-0.655,-0.370
2540,-0.705,-0.375
2541,-0.760,-0.345
2542,-0.810,-0.350
2543,-0.855,-0.345
2544,-0.905,-0.360
2545,-0.920,-0.390
2546,-0.975,-0.390
2547,-1.015,-0.410
2548,-1.065,-0.430
2549,-1.105,-0.450
2550,-1.150,-0.460
2551,-1.185,-0.465
2552,-1.195,-0.465
2553,-1.225,-0.450
2554,-1.215,-0.450
2555,-1.220,-0.445
2556,-1.230,-0.420
2557,-1.235,-0.415
2558,-1.245,-0.415
2559,-1.265,-0.430
2560,-1.265,-0.430
2561,-1.280,-0.455
2562,-1.280,-0.445
2563,-1.295,-0.460
2564,-1.310,-0.455
2565,-1.315,-0.450
2566,-1.310,-0.420
2567,-1.290,-0.435
2568,-1.280,-0.435
2569,-1.280,-0.415
2570,-1.275,-0.440
2571,-1.265,-0.430
2572,-1.275,-0.460
2573,-1.290,-0.475
2574,-1.285,-0.470
2575,-1.290,-0.490
2576,-1.295,-0.500
2577,-1.280,-0.480
2578,-1.280,-0.460
2579,-1.265,-0.450
2580,-1.260,-0.435
2581,-1.245,-0.415
2582,-1.255,-0.430
2583,-1.250,-0.430
2584,-1.240,-0.465
2585,-1.250,-0.475
2586,-1.250,-0.475
2587,-1.250,-0.470
2588,-1.265,-0.450
2589,-1.265,-0.425
2590,-1.280,-0.420
2591,-1.265,-0.410
2592,-1.265,-0.420
2593,-1.245,-0.430
2594,-1.220,-0.450
2595,-1.220,-0.465
2596,-1.230,-0.470
2597,-1.240,-0.470
2598,-1.255,-0.440
2599,-1.270,-0.455
2600,-1.285,-0.440
2601,-1.285,-0.445
2602,-1.285,-0.465
2603,-1.265,-0.465
2604,-1.275,-0.465
2605,-1.270,-0.465
2606,-1.295,-0.450
2607,-1.300,-0.445
2608,-1.315,-0.470
2609,-1.320,-0.465
2610,-1.295,-0.485
2611,-1.290,-0.505
2612,-1.315,-0.515
2613,-1.315,-0.500
2614,-1.325,-0.495
2615,-1.305,-0.465
2616,-1.305,-0.450
2617,-1.290,-0.435
2618,-1.275,-0.440
2619,-1.270,-0.465
2620,-1.280,-0.490
2621,-1.300,-0.485
2622,-1.310,-0.510
2623,-1.320,-0.505
2624,-1.330,-0.500
2625,-1.335,-0.530
2626,-1.330,-0.500
2627,-1.320,-0.505
2628,-1.320,-0.485
2629,-1.325,-0.490
2630,-1.335,-0.490
2631,-1.325,-0.490
2632,-1.325,-0.500
2633,-1.325,-0.485
2634,-1.325,-0.500
2635,-1.320,-0.500
2636,-1.335,-0.490
2637,-1.330,-0.500
2638,-1.330,-0.495
2639,-1.320,-0.505
2640,-1.305,-0.490
2641,-1.300,-0.495
2642,-1.300,-0.495
2643,-1.315,-0.490
2644,-1.300,-0.480
2645,-1.315,-0.500
2646,-1.330,-0.495
2647,-1.345,-0.485
2648,-1.355,-0.490
2649,-1.350,-0.475
2650,-1.320,-0.455
2651,-1.275,-0.445
2652,-1.240,-0.430
2653,-1.225,-0.420
2654,-1.210,-0.405
2655,-1.210,-0.400
2656,-1.210,-0.420
2657,-1.230,-0.435
2658,-1.230,-0.450
2659,-1.240,-0.475
2660,-1.245,-0.475
2661,-1.230,-0.455
2662,-1.210,-0.430
2663,-1.190,-0.420
2664,-1.170,-0.415
2665,-1.140,-0.430
2666,-1.135,-0.465
2667,-1.140,-0.480
2668,-1.130,-0.500
2669,-1.135,-0.515
2670,-1.145,-0.505
2671,-1.165,-0.500
2672,-1.180,-0.485
2673,-1.185,-0.480
2674,-1.190,-0.465
2675,-1.190,-0.475
2676,-1.205,-0.480
2677,-1.180,-0.485
2678,-1.195,-0.505
2679,-1.205,-0.515
2680,-1.215,-0.530
2681,-1.240,-0.545
2682,-1.275,-0.560
2683,-1.300,-0.545
2684,-1.330,-0.550
2685,-1.355,-0.535
2686,-1.355,-0.525
2687,-1.365,-0.515
2688,-1.365,-0.510
2689,-1.350,-0.510
2690,-1.335,-0.545
2691,-1.340,-0.555
2692,-1.330,-0.550
2693,-1.345,-0.540
2694,-1.345,-0.535
2695,-1.360,-0.535
2696,-1.365,-0.540
2697,-1.365,-0.535
2698,-1.360,-0.530
2699,-1.335,-0.505
2700,-1.320,-0.500
2701,-1.305,-0.495
2702,-1.320,-0.495
2703,-1.320,-0.495
2704,-1.310,-0.550
2705,-1.290,-0.590
2706,-1.255,-0.655
2707,-1.175,-0.730
2708,-1.060,-0.785
2709,-0.910,-0.860
2710,-0.700,-0.875
2711,-0.445,-0.920
2712,-0.185,-0.955
2713,0.095,-1.030
2714,0.375,-1.105
2715,0.665,-1.190
2716,1.000,-1.255
2717,1.345,-1.245
2718,1.640,-1.180
2719,1.835,-1.065
2720,1.845,-0.930
2721,1.575,-0.850
2722,1.020,-0.780
2723,0.380,-0.765
2724,-0.260,-0.740
2725,-0.900,-0.710
2726,-1.540,-0.665
2727,-1.910,-0.630
2728,-1.775,-0.590
2729,-1.525,-0.585
2730,-1.255,-0.575
2731,-1.075,-0.585
2732,-1.020,-0.565
2733,-1.045,-0.550
2734,-1.100,-0.545
2735,-1.170,-0.535
2736,-1.225,-0.520
2737,-1.245,-0.510
2738,-1.260,-0.520
2739,-1.245,-0.525
2740,-1.250,-0.525
2741,-1.235,-0.540
2742,-1.250,-0.570
2743,-1.255,-0.560
2744,-1.265,-0.555
2745,-1.265,-0.540
2746,-1.260,-0.520
2747,-1.240,-0.500
2748,-1.235,-0.490
2749,-1.220,-0.480
2750,-1.240,-0.500
2751,-1.220,-0.515
2752,-1.220,-0.540
2753,-1.225,-0.560
2754,-1.205,-0.570
2755,-1.190,-0.555
2756,-1.195,-0.550
2757,-1.175,-0.545
2758,-1.160,-0.520
2759,-1.170,-0.490
2760,-1.130,-0.480
2761,-1.140,-0.475
2762,-1.110,-0.480
2763,-1.125,-0.495
2764,-1.120,-0.515
2765,-1.130,-0.510
2766,-1.110,-0.520
2767,-1.100,-0.515
2768,-1.085,-0.515
2769,-1.075,-0.525
2770,-1.055,-0.515
2771,-1.040,-0.490
2772,-1.015,-0.495
2773,-1.000,-0.485
2774,-0.985,-0.475
2775,-0.975,-0.480
2776,-0.955,-0.485
2777,-0.935,-0.495
2778,-0.920,-0.490
2779,-0.895,-0.485
2780,-0.890,-0.480
2781,-0.875,-0.495
2782,-0.855,-0.490
2783,-0.840,-0.475
2784,-0.815,-0.450
2785,-0.785,-0.420
2786,-0.750,-0.425
2787,-0.725,-0.410
2788,-0.710,-0.430
2789,-0.670,-0.465
2790,-0.650,-0.465
2791,-0.615,-0.470
2792,-0.605,-0.460
2793,-0.580,-0.450
2794,-0.550,-0.435
2795,-0.515,-0.430
2796,-0.490,-0.405
2797,-0.435,-0.380
2798,-0.410,-0.390
2799,-0.380,-0.395
2800,-0.360,-0.395
2801,-0.350,-0.410
2802,-0.345,-0.405
2803,-0.350,-0.395
2804,-0.350,-0.410
2805,-0.360,-0.390
2806,-0.350,-0.405
2807,-0.325,-0.390
2808,-0.315,-0.385
2809,-0.290,-0.375
2810,-0.295,-0.390
2811,-0.315,-0.410
2812,-0.335,-0.440
2813,-0.380,-0.435
2814,-0.445,-0.450
2815,-0.495,-0.480
2816,-0.545,-0.470
2817,-0.600,-0.470
2818,-0.630,-0.480
2819,-0.670,-0.490
2820,-0.710,-0.470
2821,-0.730,-0.470
2822,-0.765,-0.485
2823,-0.815,-0.505
2824,-0.860,-0.535
2825,-0.895,-0.560
2826,-0.930,-0.570
2827,-0.950,-0.570
2828,-0.985,-0.585
2829,-0.995,-0.580
2830,-0.990,-0.545
2831,-1.005,-0.535
2832,-1.010,-0.525
2833,-1.030,-0.520
2834,-1.045,-0.525
2835,-1.050,-0.560
2836,-1.070,-0.565
2837,-1.080,-0.575
2838,-1.075,-0.605
2839,-1.080,-0.595
2840,-1.085,-0.580
2841,-1.090,-0.575
2842,-1.090,-0.550
2843,-1.075,-0.555
2844,-1.075,-0.550
2845,-1.050,-0.535
2846,-1.040,-0.560
2847,-1.035,-0.570
2848,-1.050,-0.580
2849,-1.065,-0.605
2850,-1.070,-0.615
2851,-1.085,-0.600
2852,-1.080,-0.600
2853,-1.075,-0.575
2854,-1.060,-0.575
2855,-1.045,-0.545
2856,-1.035,-0.530
2857,-1.015,-0.535
2858,-1.010,-0.550
2859,-1.000,-0.555
2860,-1.005,-0.550
2861,-1.020,-0.575
2862,-1.020,-0.590
2863,-1.025,-0.605
2864,-1.025,-0.605
2865,-1.030,-0.590
2866,-1.030,-0.585
2867,-1.015,-0.570
2868,-0.985,-0.555
2869,-0.970,-0.525
2870,-0.965,-0.535
2871,-0.985,-0.530
2872,-0.995,-0.550
2873,-1.010,-0.585
2874,-1.010,-0.590
2875,-1.020,-0.600
2876,-1.035,-0.610
2877,-1.040,-0.615
2878,-1.030,-0.615
2879,-1.035,-0.580
2880,-1.040,-0.565
2881,-1.035,-0.545
2882,-1.020,-0.540
2883,-1.020,-0.535
2884,-1.030,-0.550
2885,-1.050,-0.560
2886,-1.050,-0.570
2887,-1.065,-0.590
2888,-1.060,-0.600
2889,-1.065,-0.620
2890,-1.060,-0.615
2891,-1.055,-0.585
2892,-1.040,-0.600
2893,-1.030,-0.600
2894,-1.045,-0.580
2895,-1.055,-0.585
2896,-1.070,-0.595
2897,-1.080,-0.610
2898,-1.085,-0.620
2899,-1.075,-0.615
2900,-1.090,-0.600
2901,-1.085,-0.590
2902,-1.085,-0.585
2903,-1.075,-0.585
2904,-1.070,-0.585
2905,-1.050,-0.590
2906,-1.055,-0.605
2907,-1.055,-0.600
2908,-1.060,-0.620
2909,-1.085,-0.630
2910,-1.095,-0.640
2911,-1.095,-0.635
2912,-1.090,-0.620
2913,-1.085,-0.595
2914,-1.080,-0.585
2915,-1.090,-0.580
2916,-1.075,-0.595
2917,-1.040,-0.595
2918,-1.055,-0.605
2919,-1.050,-0.610
2920,-1.070,-0.595
2921,-1.065,-0.610
2922,-1.055,-0.590
2923,-1.045,-0.575
2924,-1.025,-0.555
2925,-0.990,-0.535
2926,-0.990,-0.520
2927,-0.960,-0.510
2928,-0.960,-0.525
2929,-0.940,-0.545
2930,-0.920,-0.570
2931,-0.920,-0.570
2932,-0.935,-0.575
2933,-0.940,-0.585
2934,-0.960,-0.575
2935,-0.950,-0.580
2936,-0.940,-0.590
2937,-0.915,-0.615
2938,-0.890,-0.610
2939,-0.870,-0.610
2940,-0.870,-0.620
2941,-0.860,-0.590
2942,-0.875,-0.580
2943,-0.875,-0.565
2944,-0.875,-0.565
2945,-0.890,-0.605
2946,-0.905,-0.610
2947,-0.905,-0.615
2948,-0.945,-0.630
2949,-0.960,-0.620
2950,-0.980,-0.605
2951,-0.995,-0.610
2952,-1.020,-0.595
2953,-1.025,-0.605
2954,-1.045,-0.605
2955,-1.060,-0.640
2956,-1.060,-0.665
2957,-1.085,-0.670
2958,-1.100,-0.670
2959,-1.130,-0.660
2960,-1.145,-0.650
2961,-1.130,-0.630
2962,-1.125,-0.625
2963,-1.095,-0.615
2964,-1.090,-0.620
2965,-1.080,-0.615
2966,-1.085,-0.615
2967,-1.075,-0.615
2968,-1.095,-0.615
2969,-1.105,-0.615
2970,-1.130,-0.630
2971,-1.135,-0.625
2972,-1.135,-0.635
2973,-1.130,-0.660
2974,-1.085,-0.670
2975,-1.030,-0.715
2976,-0.945,-0.755
2977,-0.830,-0.830
2978,-0.680,-0.925
2979,-0.470,-1.020
2980,-0.210,-1.120
2981,0.120,-1.240
2982,0.485,-1.310
2983,0.890,-1.395
2984,1.330,-1.445
2985,1.735,-1.450
2986,2.100,-1.400
2987,2.345,-1.295
2988,2.435,-1.170
2989,2.315,-1.035
2990,1.900,-0.940
2991,1.260,-0.870
2992,0.620,-0.835
2993,-0.020,-0.820
2994,-0.660,-0.805
2995,-1.300,-0.760
2996,-1.675,-0.730
2997,-1.425,-0.670
2998,-1.085,-0.625
2999,-0.800,-0.635
3000,-0.660,-0.630
3001,-0.650,-0.640
3002,-0.725,-0.625
3003,-0.845,-0.635
3004,-0.960,-0.650
3005,-1.035,-0.640
3006,-1.070,-0.635
3007,-1.085,-0.635
3008,-1.080,-0.630
3009,-1.060,-0.595
3010,-1.045,-0.580
3011,-1.030,-0.570
3012,-1.025,-0.565
3013,-1.015,-0.555
3014,-1.005,-0.590
3015,-1.000,-0.605
3016,-0.990,-0.605
3017,-0.990,-0.625
3018,-1.000,-0.615
3019,-1.000,-0.605
3020,-0.995,-0.605
3021,-1.015,-0.610
3022,-1.020,-0.595
3023,-1.005,-0.580
3024,-1.015,-0.580
3025,-0.990,-0.570
3026,-0.985,-0.545
3027,-0.965,-0.555
3028,-0.960,-0.545
3029,-0.960,-0.545
3030,-0.960,-0.555
3031,-0.950,-0.565
3032,-0.935,-0.580
3033,-0.920,-0.600
3034,-0.910,-0.590
3035,-0.900,-0.565
3036,-0.895,-0.565
3037,-0.870,-0.530
3038,-0.870,-0.510
3039,-0.865,-0.525
3040,-0.850,-0.530
3041,-0.870,-0.550
3042,-0.865,-0.560
3043,-0.840,-0.565
3044,-0.830,-0.570
3045,-0.810,-0.555
3046,-0.800,-0.550
3047,-0.775,-0.530
3048,-0.740,-0.505
3049,-0.705,-0.490
3050,-0.680,-0.490
3051,-0.665,-0.465
3052,-0.645,-0.480
3053,-0.635,-0.505
3054,-0.615,-0.485
3055,-0.610,-0.495
3056,-0.580,-0.485
3057,-0.550,-0.480
3058,-0.515,-0.465
3059,-0.490,-0.460
3060,-0.450,-0.455
3061,-0.430,-0.445
3062,-0.375,-0.440
3063,-0.340,-0.445
3064,-0.320,-0.440
3065,-0.305,-0.460
3066,-0.290,-0.480
3067,-0.290,-0.485
3068,-0.265,-0.465
3069,-0.255,-0.460
3070,-0.245,-0.425
3071,-0.225,-0.425
3072,-0.215,-0.410
3073,-0.180,-0.390
3074,-0.165,-0.395
3075,-0.165,-0.435
3076,-0.185,-0.445
3077,-0.200,-0.460
3078,-0.235,-0.485
3079,-0.255,-0.490
3080,-0.290,-0.495
3081,-0.330,-0.500
3082,-0.390,-0.510
3083,-0.420,-0.500
3084,-0.455,-0.480
3085,-0.500,-0.490
3086,-0.540,-0.490
3087,-0.585,-0.515
3088,-0.625,-0.540
3089,-0.685,-0.575
3090,-0.740,-0.590
3091,-0.755,-0.615
3092,-0.805,-0.615
3093,-0.820,-0.610
3094,-0.840,-0.580
3095,-0.870,-0.585
3096,-0.885,-0.605
3097,-0.910,-0.615
3098,-0.925,-0.630
3099,-0.950,-0.655
3100,-0.975,-0.660
3101,-0.990,-0.665
3102,-1.025,-0.645
3103,-1.025,-0.645
3104,-1.015,-0.645
3105,-1.040,-0.650
3106,-1.035,-0.640
3107,-1.005,-0.625
3108,-0.990,-0.630
3109,-0.980,-0.620
3110,-0.980,-0.620
3111,-0.970,-0.620
3112,-0.990,-0.635
3113,-0.985,-0.645
3114,-1.005,-0.655
3115,-1.010,-0.670
3116,-1.020,-0.665
3117,-1.010,-0.650
3118,-1.025,-0.625
3119,-1.010,-0.605
3120,-1.025,-0.610
3121,-1.010,-0.605
3122,-1.010,-0.625
3123,-1.010,-0.620
3124,-1.015,-0.635
3125,-1.010,-0.640
3126,-1.005,-0.635
3127,-0.995,-0.640
3128,-1.000,-0.620
3129,-1.000,-0.610
3130,-0.975,-0.625
3131,-0.980,-0.625
3132,-0.970,-0.625
3133,-0.960,-0.640
3134,-0.970,-0.640
3135,-0.980,-0.645
3136,-0.990,-0.655
3137,-1.020,-0.650
3138,-1.015,-0.640
3139,-1.010,-0.625
3140,-1.010,-0.625
3141,-1.015,-0.620
3142,-1.025,-0.640
3143,-1.010,-0.625
3144,-1.010,-0.620
3145,-0.990,-0.625
3146,-0.970,-0.630
3147,-0.980,-0.650
3148,-0.980,-0.645
3149,-1.005,-0.675
3150,-1.015,-0.690
3151,-1.030,-0.665
3152,-1.035,-0.680
3153,-1.030,-0.665
3154,-1.015,-0.650
3155,-1.010,-0.640
3156,-1.000,-0.630
3157,-0.990,-0.625
3158,-1.010,-0.640
3159,-1.035,-0.650
3160,-1.060,-0.685
3161,-1.060,-0.685
3162,-1.050,-0.695
3163,-1.055,-0.680
3164,-1.050,-0.680
3165,-1.030,-0.670
3166,-1.040,-0.655
3167,-1.050,-0.655
3168,-1.035,-0.655
3169,-1.040,-0.640
3170,-1.030,-0.635
3171,-1.020,-0.625
3172,-1.025,-0.650
3173,-1.050,-0.660
3174,-1.060,-0.675
3175,-1.055,-0.685
3176,-1.060,-0.690
3177,-1.050,-0.715
3178,-1.045,-0.675
3179,-1.045,-0.700
3180,-1.050,-0.675
3181,-1.040,-0.665
3182,-1.045,-0.660
3183,-1.070,-0.640
3184,-1.070,-0.645
3185,-1.075,-0.660
3186,-1.080,-0.675
3187,-1.090,-0.690
3188,-1.085,-0.685
3189,-1.080,-0.675
3190,-1.065,-0.645
3191,-1.050,-0.620
3192,-1.025,-0.600
3193,-0.985,-0.580
3194,-0.950,-0.605
3195,-0.940,-0.600
3196,-0.925,-0.635
3197,-0.915,-0.630
3198,-0.930,-0.645
3199,-0.925,-0.650
3200,-0.930,-0.630
3201,-0.940,-0.625
3202,-0.950,-0.635
3203,-0.945,-0.610
3204,-0.935,-0.615
3205,-0.920,-0.595
3206,-0.895,-0.595
3207,-0.855,-0.620
3208,-0.850,-0.640
3209,-0.835,-0.640
3210,-0.840,-0.645
3211,-0.860,-0.645
3212,-0.875,-0.650
3213,-0.885,-0.670
3214,-0.890,-0.650
3215,-0.890,-0.655
3216,-0.910,-0.645
3217,-0.915,-0.665
3218,-0.925,-0.670
3219,-0.930,-0.680
3220,-0.940,-0.680
3221,-0.965,-0.685
3222,-0.985,-0.660
3223,-1.000,-0.670
3224,-1.035,-0.690
3225,-1.070,-0.690
3226,-1.085,-0.710
3227,-1.100,-0.720
3228,-1.100,-0.695
3229,-1.095,-0.680
3230,-1.110,-0.665
3231,-1.105,-0.670
3232,-1.125,-0.685
3233,-1.130,-0.690
3234,-1.120,-0.700
3235,-1.125,-0.700
3236,-1.115,-0.700
3237,-1.125,-0.700
3238,-1.105,-0.690
3239,-1.100,-0.670
3240,-1.090,-0.665
3241,-1.085,-0.650
3242,-1.070,-0.660
3243,-1.075,-0.670
3244,-1.080,-0.695
3245,-1.050,-0.750
3246,-0.995,-0.830
3247,-0.880,-0.955
3248,-0.695,-1.065
3249,-0.410,-1.190
3250,-0.040,-1.305
3251,0.435,-1.390
3252,0.955,-1.470
3253,1.490,-1.510
3254,1.965,-1.490
3255,2.310,-1.425
3256,2.475,-1.310
3257,2.400,-1.180
3258,2.015,-1.065
3259,1.375,-1.000
3260,0.735,-0.950
3261,0.095,-0.935
3262,-0.545,-0.895
3263,-1.185,-0.845
3264,-1.805,-0.780
3265,-1.530,-0.735
3266,-1.155,-0.695
3267,-0.845,-0.660
3268,-0.690,-0.650
3269,-0.685,-0.665
3270,-0.775,-0.680
3271,-0.910,-0.685
3272,-1.010,-0.720
3273,-1.085,-0.715
3274,-1.110,-0.695
3275,-1.105,-0.660
3276,-1.085,-0.660
3277,-1.065,-0.615
3278,-1.035,-0.605
3279,-1.055,-0.640
3280,-1.050,-0.645
3281,-1.055,-0.675
3282,-1.055,-0.685
3283,-1.050,-0.695
3284,-1.060,-0.680
3285,-1.045,-0.660
3286,-1.055,-0.645
3287,-1.050,-0.630
3288,-1.025,-0.625
3289,-1.010,-0.630
3290,-1.015,-0.625
3291,-1.005,-0.615
3292,-0.985,-0.625
3293,-0.980,-0.630
3294,-0.980,-0.640
3295,-0.980,-0.650
3296,-0.975,-0.660
3297,-0.965,-0.645
3298,-0.965,-0.610
3299,-0.935,-0.575
3300,-0.905,-0.555
3301,-0.895,-0.550
3302,-0.885,-0.555
3303,-0.865,-0.585
3304,-0.870,-0.630
3305,-0.850,-0.640
3306,-0.865,-0.635
3307,-0.875,-0.640
3308,-0.860,-0.610
3309,-0.855,-0.615
3310,-0.840,-0.570
3311,-0.820,-0.560
3312,-0.800,-0.555
3313,-0.775,-0.565
3314,-0.740,-0.565
3315,-0.715,-0.550
3316,-0.685,-0.550
3317,-0.675,-0.540
3318,-0.640,-0.545
3319,-0.630,-0.550
3320,-0.605,-0.545
3321,-0.575,-0.540
3322,-0.555,-0.520
3323,-0.520,-0.520
3324,-0.475,-0.525
3325,-0.455,-0.510
3326,-0.425,-0.500
3327,-0.415,-0.485
3328,-0.405,-0.470
3329,-0.390,-0.475
3330,-0.370,-0.475
3331,-0.335,-0.485
3332,-0.310,-0.500
3333,-0.300,-0.495
3334,-0.270,-0.495
3335,-0.240,-0.485
3336,-0.220,-0.475
3337,-0.200,-0.480
3338,-0.185,-0.480
3339,-0.190,-0.500
3340,-0.195,-0.505
3341,-0.195,-0.510
3342,-0.215,-0.495
3343,-0.235,-0.505
3344,-0.250,-0.500
3345,-0.285,-0.500
3346,-0.305,-0.515
3347,-0.340,-0.530
3348,-0.355,-0.545
3349,-0.385,-0.560
3350,-0.430,-0.570
3351,-0.470,-0.600
3352,-0.520,-0.610
3353,-0.570,-0.625
3354,-0.605,-0.620
3355,-0.660,-0.630
3356,-0.705,-0.650
3357,-0.745,-0.665
3358,-0.780,-0.650
3359,-0.815,-0.645
3360,-0.845,-0.635
3361,-0.860,-0.615
3362,-0.880,-0.620
3363,-0.900,-0.640
3364,-0.925,-0.665
3365,-0.945,-0.700
3366,-0.965,-0.715
3367,-0.970,-0.725
3368,-0.975,-0.720
3369,-0.995,-0.695
3370,-0.990,-0.670
3371,-0.980,-0.670
3372,-0.990,-0.665
3373,-0.985,-0.660
3374,-0.980,-0.685
3375,-0.985,-0.690
3376,-0.995,-0.710
3377,-1.025,-0.705
3378,-1.040,-0.710
3379,-1.040,-0.680
3380,-1.035,-0.680
3381,-1.035,-0.670
3382,-1.050,-0.675
3383,-1.060,-0.680
3384,-1.030,-0.705
3385,-1.010,-0.695
3386,-1.010,-0.700
3387,-1.005,-0.690
3388,-1.010,-0.675
3389,-1.010,-0.665
3390,-1.015,-0.690
3391,-1.005,-0.695
3392,-1.005,-0.710
3393,-1.005,-0.710
3394,-1.010,-0.710
3395,-0.995,-0.690
3396,-1.005,-0.660
3397,-0.995,-0.655
3398,-0.995,-0.655
3399,-1.015,-0.680
3400,-1.000,-0.685
3401,-1.005,-0.700
3402,-1.015,-0.720
3403,-1.025,-0.690
3404,-1.020,-0.670
3405,-1.010,-0.665
3406,-0.995,-0.660
3407,-0.995,-0.655
3408,-1.000,-0.665
3409,-0.990,-0.665
3410,-0.980,-0.695
3411,-0.995,-0.720
3412,-1.005,-0.710
3413,-1.020,-0.730
3414,-1.020,-0.745
3415,-1.030,-0.735
3416,-1.045,-0.730
3417,-1.045,-0.685
3418,-1.060,-0.665
3419,-1.050,-0.680
3420,-1.070,-0.660
3421,-1.060,-0.640
3422,-1.040,-0.660
3423,-1.055,-0.670
3424,-1.060,-0.695
3425,-1.055,-0.720
3426,-1.075,-0.725
3427,-1.085,-0.725
3428,-1.095,-0.715
3429,-1.105,-0.700
3430,-1.115,-0.695
3431,-1.105,-0.695
3432,-1.105,-0.680
3433,-1.100,-0.680
3434,-1.090,-0.675
3435,-1.115,-0.695
3436,-1.125,-0.700
3437,-1.130,-0.695
3438,-1.135,-0.700
3439,-1.145,-0.700
3440,-1.140,-0.710
3441,-1.120,-0.715
3442,-1.115,-0.695
3443,-1.100,-0.705
3444,-1.110,-0.695
3445,-1.125,-0.680
3446,-1.120,-0.675
3447,-1.120,-0.670
3448,-1.125,-0.665
3449,-1.125,-0.680
3450,-1.150,-0.695
3451,-1.155,-0.690
3452,-1.180,-0.680
3453,-1.180,-0.710
3454,-1.170,-0.700
3455,-1.145,-0.700
3456,-1.135,-0.680
3457,-1.125,-0.675
3458,-1.125,-0.655
3459,-1.105,-0.655
3460,-1.115,-0.655
3461,-1.110,-0.670
3462,-1.100,-0.655
3463,-1.100,-0.665
3464,-1.070,-0.655
3465,-1.060,-0.675
3466,-1.050,-0.655
3467,-1.045,-0.630
3468,-1.045,-0.630
3469,-1.035,-0.605
3470,-1.050,-0.615
3471,-1.040,-0.635
3472,-1.055,-0.650
3473,-1.040,-0.670
3474,-1.040,-0.680
3475,-1.025,-0.680
3476,-1.005,-0.695
3477,-1.000,-0.685
3478,-0.985,-0.675
3479,-0.965,-0.660
3480,-0.940,-0.670
3481,-0.935,-0.660
3482,-0.930,-0.655
3483,-0.955,-0.665
3484,-0.955,-0.655
3485,-0.975,-0.660
3486,-1.005,-0.655
3487,-1.015,-0.670
3488,-1.035,-0.690
3489,-1.050,-0.710
3490,-1.055,-0.710
3491,-1.045,-0.700
3492,-1.060,-0.700
3493,-1.080,-0.680
3494,-1.085,-0.670
3495,-1.125,-0.700
3496,-1.160,-0.720
3497,-1.205,-0.750
3498,-1.235,-0.760
3499,-1.255,-0.760
3500,-1.265,-0.735
3501,-1.270,-0.710
3502,-1.245,-0.690
3503,-1.220,-0.685
3504,-1.205,-0.700
3505,-1.190,-0.700
3506,-1.195,-0.715
3507,-1.185,-0.725
3508,-1.170,-0.715
3509,-1.170,-0.735
3510,-1.160,-0.705
3511,-1.180,-0.710
3512,-1.180,-0.695
3513,-1.195,-0.690
3514,-1.195,-0.690
3515,-1.220,-0.700
3516,-1.200,-0.740
3517,-1.175,-0.780
3518,-1.110,-0.845
3519,-0.975,-0.930
3520,-0.805,-1.045
3521,-0.550,-1.140
3522,-0.230,-1.230
3523,0.145,-1.340
3524,0.600,-1.405
3525,1.070,-1.475
3526,1.570,-1.535
3527,2.000,-1.525
3528,2.310,-1.485
3529,2.485,-1.390
3530,2.510,-1.275
3531,2.345,-1.120
3532,1.930,-1.030
3533,1.290,-0.985
3534,0.650,-0.950
3535,0.010,-0.935
3536,-0.630,-0.900
3537,-1.270,-0.845
3538,-1.730,-0.780
3539,-1.455,-0.705
3540,-1.155,-0.670
3541,-0.935,-0.645
3542,-0.855,-0.630
3543,-0.885,-0.670
3544,-0.985,-0.685
3545,-1.100,-0.705
3546,-1.185,-0.700
3547,-1.220,-0.725
3548,-1.215,-0.695
3549,-1.215,-0.675
3550,-1.180,-0.670
3551,-1.165,-0.655
3552,-1.145,-0.650
3553,-1.145,-0.610
3554,-1.145,-0.625
3555,-1.160,-0.635
3556,-1.160,-0.635
3557,-1.160,-0.665
3558,-1.170,-0.650
3559,-1.165,-0.655
3560,-1.175,-0.640
3561,-1.165,-0.625
3562,-1.160,-0.620
3563,-1.135,-0.615
3564,-1.120,-0.610
3565,-1.100,-0.595
3566,-1.085,-0.600
3567,-1.080,-0.620
3568,-1.075,-0.635
3569,-1.090,-0.635
3570,-1.085,-0.650
3571,-1.085,-0.645
3572,-1.075,-0.650
3573,-1.065,-0.635
3574,-1.085,-0.625
3575,-1.065,-0.595
3576,-1.065,-0.605
3577,-1.035,-0.595
3578,-1.010,-0.600
3579,-0.985,-0.605
3580,-0.965,-0.605
3581,-0.945,-0.615
3582,-0.930,-0.605
3583,-0.930,-0.605
3584,-0.925,-0.610
3585,-0.915,-0.600
3586,-0.910,-0.600
3587,-0.880,-0.605
3588,-0.860,-0.600
3589,-0.820,-0.600
3590,-0.795,-0.585
3591,-0.775,-0.570
3592,-0.760,-0.565
3593,-0.745,-0.560
3594,-0.730,-0.560
3595,-0.725,-0.545
3596,-0.715,-0.535
3597,-0.675,-0.535
3598,-0.635,-0.525
3599,-0.605,-0.505
3600,-0.560,-0.520
3601,-0.535,-0.505
3602,-0.490,-0.510
3603,-0.470,-0.490
3604,-0.470,-0.505
3605,-0.460,-0.505
3606,-0.465,-0.515
3607,-0.460,-0.520
3608,-0.445,-0.520
3609,-0.430,-0.525
3610,-0.420,-0.520
3611,-0.405,-0.520
3612,-0.405,-0.510
3613,-0.400,-0.520
3614,-0.390,-0.520
3615,-0.400,-0.530
3616,-0.420,-0.530
3617,-0.445,-0.560
3618,-0.470,-0.575
3619,-0.515,-0.580
3620,-0.575,-0.585
3621,-0.605,-0.590
3622,-0.665,-0.605
3623,-0.700,-0.595
3624,-0.740,-0.630
3625,-0.790,-0.600
3626,-0.815,-0.605
3627,-0.865,-0.620
3628,-0.905,-0.630
3629,-0.940,-0.640
3630,-0.980,-0.650
3631,-1.015,-0.665
3632,-1.045,-0.665
3633,-1.070,-0.680
3634,-1.090,-0.670
3635,-1.090,-0.685
3636,-1.095,-0.680
3637,-1.120,-0.670
3638,-1.105,-0.665
3639,-1.130,-0.660
3640,-1.135,-0.660
3641,-1.135,-0.665
3642,-1.160,-0.665
3643,-1.160,-0.675
3644,-1.170,-0.690
3645,-1.165,-0.685
3646,-1.165,-0.695
3647,-1.165,-0.685
3648,-1.135,-0.670
3649,-1.125,-0.665
3650,-1.105,-0.670
3651,-1.120,-0.660
3652,-1.115,-0.660
3653,-1.120,-0.670
3654,-1.145,-0.685
3655,-1.135,-0.680
3656,-1.135,-0.685
3657,-1.130,-0.690
3658,-1.140,-0.675
3659,-1.125,-0.655
3660,-1.110,-0.640
3661,-1.105,-0.635
3662,-1.085,-0.635
3663,-1.075,-0.645
3664,-1.085,-0.650
3665,-1.090,-0.670
3666,-1.105,-0.690
3667,-1.125,-0.695
3668,-1.120,-0.720
3669,-1.115,-0.705
3670,-1.125,-0.700
3671,-1.130,-0.690
3672,-1.120,-0.680
3673,-1.120,-0.670
3674,-1.095,-0.675
3675,-1.090,-0.690
3676,-1.090,-0.690
3677,-1.100,-0.675
3678,-1.110,-0.685
3679,-1.120,-0.695
3680,-1.130,-0.675
3681,-1.135,-0.680
3682,-1.140,-0.695
3683,-1.130,-0.685
3684,-1.145,-0.690
3685,-1.150,-0.675
3686,-1.155,-0.690
3687,-1.155,-0.685
3688,-1.155,-0.690
3689,-1.165,-0.690
3690,-1.165,-0.700
3691,-1.170,-0.705
3692,-1.190,-0.700
3693,-1.175,-0.710
3694,-1.180,-0.680
3695,-1.160,-0.705
3696,-1.165,-0.695
3697,-1.165,-0.705
3698,-1.155,-0.685
3699,-1.150,-0.680
3700,-1.165,-0.680
3701,-1.185,-0.710
3702,-1.185,-0.710
3703,-1.195,-0.715
3704,-1.205,-0.710
3705,-1.190,-0.725
3706,-1.195,-0.725
3707,-1.180,-0.730
3708,-1.185,-0.700
3709,-1.170,-0.680
3710,-1.180,-0.660
3711,-1.195,-0.680
3712,-1.195,-0.675
3713,-1.200,-0.695
3714,-1.195,-0.715
3715,-1.210,-0.715
3716,-1.205,-0.700
3717,-1.220,-0.680
3718,-1.215,-0.690
3719,-1.205,-0.675
3720,-1.200,-0.685
3721,-1.190,-0.675
3722,-1.170,-0.690
3723,-1.180,-0.675
3724,-1.185,-0.665
3725,-1.190,-0.685
3726,-1.200,-0.690
3727,-1.235,-0.675
3728,-1.210,-0.680
3729,-1.200,-0.675
3730,-1.180,-0.675
3731,-1.165,-0.655
3732,-1.140,-0.665
3733,-1.110,-0.655
3734,-1.095,-0.650
3735,-1.095,-0.640
3736,-1.100,-0.630
3737,-1.105,-0.650
3738,-1.100,-0.665
3739,-1.115,-0.670
3740,-1.105,-0.670
3741,-1.115,-0.660
3742,-1.095,-0.650
3743,-1.080,-0.640
3744,-1.055,-0.630
3745,-1.035,-0.620
3746,-1.005,-0.630
3747,-0.990,-0.655
3748,-0.985,-0.685
3749,-1.000,-0.705
3750,-1.025,-0.720
3751,-1.040,-0.710
3752,-1.055,-0.700
3753,-1.060,-0.685
3754,-1.055,-0.685
3755,-1.055,-0.700
3756,-1.050,-0.695
3757,-1.050,-0.700
3758,-1.070,-0.700
3759,-1.075,-0.695
3760,-1.100,-0.695
3761,-1.125,-0.695
3762,-1.155,-0.710
3763,-1.180,-0.720
3764,-1.195,-0.730
3765,-1.215,-0.760
3766,-1.235,-0.765
3767,-1.255,-0.745
3768,-1.270,-0.720
3769,-1.265,-0.695
3770,-1.260,-0.700
3771,-1.245,-0.700
3772,-1.215,-0.720
3773,-1.205,-0.730
3774,-1.225,-0.735
3775,-1.235,-0.715
3776,-1.225,-0.710
3777,-1.235,-0.695
3778,-1.225,-0.685
3779,-1.220,-0.685
3780,-1.240,-0.675
3781,-1.245,-0.690
3782,-1.230,-0.710
3783,-1.210,-0.715
3784,-1.160,-0.750
3785,-1.080,-0.830
3786,-0.970,-0.885
3787,-0.815,-0.995
3788,-0.615,-1.075
3789,-0.350,-1.170
3790,0.005,-1.275
3791,0.395,-1.305
3792,0.830,-1.375
3793,1.310,-1.405
3794,1.755,-1.400
3795,2.105,-1.385
3796,2.295,-1.280
3797,2.315,-1.190
3798,2.090,-1.075
3799,1.610,-1.005
3800,0.970,-0.960
3801,0.330,-0.920
3802,-0.310,-0.870
3803,-0.950,-0.850
3804,-1.590,-0.795
3805,-1.675,-0.745
3806,-1.400,-0.710
3807,-1.120,-0.680
3808,-0.895,-0.670
3809,-0.810,-0.670
3810,-0.820,-0.680
3811,-0.905,-0.680
3812,-0.985,-0.680
3813,-1.070,-0.665
3814,-1.130,-0.665
3815,-1.150,-0.660
3816,-1.150,-0.630
3817,-1.125,-0.610
3818,-1.125,-0.605
3819,-1.095,-0.590
3820,-1.090,-0.615
3821,-1.100,-0.620
3822,-1.110,-0.635
3823,-1.120,-0.640
3824,-1.110,-0.650
3825,-1.115,-0.630
3826,-1.100,-0.620
3827,-1.085,-0.610
3828,-1.080,-0.595
3829,-1.055,-0.600
3830,-1.035,-0.605
3831,-1.035,-0.610
3832,-1.040,-0.605
3833,-1.040,-0.620
3834,-1.035,-0.630
3835,-1.035,-0.620
3836,-1.030,-0.625
3837,-1.030,-0.605
3838,-1.020,-0.625
3839,-1.005,-0.590
3840,-0.995,-0.585
3841,-0.975,-0.570
3842,-0.955,-0.575
3843,-0.935,-0.580
3844,-0.960,-0.585
3845,-0.940,-0.600
3846,-0.930,-0.600
3847,-0.920,-0.610
3848,-0.910,-0.600
3849,-0.885,-0.595
3850,-0.865,-0.575
3851,-0.845,-0.560
3852,-0.825,-0.565
3853,-0.805,-0.550
3854,-0.760,-0.550
3855,-0.765,-0.560
3856,-0.750,-0.585
3857,-0.745,-0.605
3858,-0.720,-0.580
3859,-0.740,-0.585
3860,-0.720,-0.560
3861,-0.700,-0.545
3862,-0.670,-0.535
3863,-0.630,-0.525
3864,-0.595,-0.525
3865,-0.550,-0.515
3866,-0.500,-0.510
3867,-0.450,-0.515
3868,-0.430,-0.525
3869,-0.415,-0.520
3870,-0.410,-0.510
3871,-0.415,-0.525
3872,-0.400,-0.525
3873,-0.395,-0.535
3874,-0.385,-0.535
3875,-0.355,-0.525
3876,-0.340,-0.510
3877,-0.340,-0.495
3878,-0.320,-0.490
3879,-0.305,-0.505
3880,-0.320,-0.490
3881,-0.320,-0.515
3882,-0.320,-0.535
3883,-0.335,-0.545
3884,-0.345,-0.545
3885,-0.375,-0.555
3886,-0.400,-0.555
3887,-0.425,-0.560
3888,-0.465,-0.555
3889,-0.495,-0.575
3890,-0.535,-0.595
3891,-0.575,-0.600
3892,-0.625,-0.625
3893,-0.675,-0.645
3894,-0.725,-0.655
3895,-0.770,-0.665
3896,-0.800,-0.670
3897,-0.855,-0.675
3898,-0.880,-0.670
3899,-0.895,-0.665
3900,-0.910,-0.665
3901,-0.925,-0.650
3902,-0.930,-0.660
3903,-0.965,-0.635
3904,-0.990,-0.645
3905,-0.995,-0.665
3906,-1.025,-0.680
3907,-1.030,-0.685
3908,-1.050,-0.680
3909,-1.055,-0.670
3910,-1.075,-0.670
3911,-1.070,-0.645
3912,-1.070,-0.655
3913,-1.050,-0.650
3914,-1.030,-0.670
3915,-1.040,-0.685
3916,-1.040,-0.705
3917,-1.045,-0.700
3918,-1.060,-0.715
3919,-1.070,-0.715
3920,-1.075,-0.700
3921,-1.060,-0.715
3922,-1.060,-0.695
3923,-1.050,-0.690
3924,-1.040,-0.675
3925,-1.030,-0.670
3926,-1.025,-0.660
3927,-1.015,-0.665
3928,-1.020,-0.680
3929,-1.040,-0.695
3930,-1.035,-0.700
3931,-1.035,-0.725
3932,-1.035,-0.725
3933,-1.050,-0.725
3934,-1.040,-0.715
3935,-1.020,-0.705
3936,-0.995,-0.680
3937,-0.995,-0.660
3938,-0.990,-0.665
3939,-0.980,-0.685
3940,-0.980,-0.695
3941,-0.990,-0.720
3942,-1.000,-0.730
3943,-1.015,-0.725
3944,-1.030,-0.720
3945,-1.045,-0.720
3946,-1.045,-0.715
3947,-1.055,-0.700
3948,-1.050,-0.705
3949,-1.040,-0.695
3950,-1.020,-0.675
3951,-1.025,-0.665
3952,-1.030,-0.690
3953,-1.045,-0.715
3954,-1.045,-0.730
3955,-1.045,-0.755
3956,-1.045,-0.750
3957,-1.065,-0.760
3958,-1.095,-0.740
3959,-1.085,-0.760
3960,-1.090,-0.740
3961,-1.065,-0.715
3962,-1.055,-0.710
3963,-1.055,-0.695
3964,-1.080,-0.705
3965,-1.060,-0.725
3966,-1.065,-0.745
3967,-1.085,-0.760
3968,-1.100,-0.770
3969,-1.110,-0.765
3970,-1.110,-0.740
3971,-1.110,-0.730
3972,-1.095,-0.695
3973,-1.090,-0.680
3974,-1.085,-0.680
3975,-1.090,-0.675
3976,-1.085,-0.690
3977,-1.085,-0.710
3978,-1.100,-0.720
3979,-1.120,-0.715
3980,-1.125,-0.750
3981,-1.135,-0.755
3982,-1.130,-0.760
3983,-1.115,-0.765
3984,-1.095,-0.760
3985,-1.095,-0.745
3986,-1.085,-0.715
3987,-1.080,-0.705
3988,-1.095,-0.725
3989,-1.105,-0.740
3990,-1.115,-0.765
3991,-1.140,-0.770
3992,-1.145,-0.755
3993,-1.130,-0.760
3994,-1.135,-0.740
3995,-1.135,-0.725
3996,-1.135,-0.710
3997,-1.115,-0.680
3998,-1.085,-0.665
3999,-1.075,-0.665
4000,-1.045,-0.655
4001,-1.035,-0.660
4002,-1.030,-0.675
4003,-1.025,-0.690
4004,-1.010,-0.710
4005,-1.015,-0.700
4006,-1.020,-0.705
4007,-0.995,-0.685
4008,-1.000,-0.660
4009,-0.980,-0.670
4010,-0.970,-0.670
4011,-0.980,-0.675
4012,-0.985,-0.695
4013,-0.985,-0.680
4014,-0.970,-0.690
4015,-0.975,-0.705
4016,-0.935,-0.715
4017,-0.930,-0.735
4018,-0.930,-0.725
4019,-0.910,-0.700
4020,-0.910,-0.680
4021,-0.920,-0.670
4022,-0.905,-0.670
4023,-0.915,-0.695
4024,-0.940,-0.745
4025,-0.950,-0.765
4026,-0.975,-0.785
4027,-0.990,-0.785
4028,-1.010,-0.785
4029,-1.030,-0.770
4030,-1.070,-0.745
4031,-1.095,-0.720
4032,-1.120,-0.730
4033,-1.120,-0.730
4034,-1.120,-0.725
4035,-1.140,-0.735
4036,-1.145,-0.750
4037,-1.175,-0.750
4038,-1.185,-0.770
4039,-1.195,-0.780
4040,-1.190,-0.775
4041,-1.200,-0.775
4042,-1.185,-0.775
4043,-1.170,-0.760
4044,-1.165,-0.735
4045,-1.160,-0.710
4046,-1.140,-0.725
4047,-1.130,-0.705
4048,-1.140,-0.715
4049,-1.140,-0.715
4050,-1.170,-0.740
4051,-1.175,-0.750
4052,-1.175,-0.785
4053,-1.190,-0.805
4054,-1.160,-0.850
4055,-1.090,-0.890
4056,-0.965,-0.975
4057,-0.775,-1.080
4058,-0.525,-1.190
4059,-0.180,-1.290
4060,0.180,-1.385
4061,0.600,-1.475
4062,1.025,-1.540
4063,1.455,-1.625
4064,1.860,-1.660
4065,2.165,-1.650
4066,2.370,-1.625
4067,2.475,-1.515
4068,2.460,-1.390
4069,2.345,-1.260
4070,2.090,-1.150
4071,1.595,-1.050
4072,0.955,-1.005
4073,0.315,-0.975
4074,-0.325,-0.960
4075,-0.965,-0.910
4076,-1.605,-0.885
4077,-1.615,-0.815
4078,-1.350,-0.800
4079,-1.060,-0.750
4080,-0.850,-0.740
4081,-0.765,-0.745
4082,-0.800,-0.740
4083,-0.880,-0.765
4084,-0.995,-0.790
4085,-1.090,-0.790
4086,-1.155,-0.795
4087,-1.165,-0.780
4088,-1.155,-0.740
4089,-1.140,-0.730
4090,-1.130,-0.710
4091,-1.110,-0.715
4092,-1.095,-0.700
4093,-1.105,-0.720
4094,-1.095,-0.725
4095,-1.095,-0.720
4096,-1.125,-0.745
4097,-1.130,-0.750
4098,-1.130,-0.735
4099,-1.135,-0.720
4100,-1.135,-0.720
4101,-1.135,-0.745
4102,-1.140,-0.735
4103,-1.125,-0.730
4104,-1.105,-0.715
4105,-1.085,-0.700
4106,-1.065,-0.680
4107,-1.045,-0.690
4108,-1.040,-0.675
4109,-1.020,-0.705
4110,-1.020,-0.730
4111,-1.030,-0.735
4112,-1.020,-0.735
4113,-1.025,-0.735
4114,-1.015,-0.735
4115,-1.005,-0.720
4116,-0.985,-0.690
4117,-0.980,-0.665
4118,-0.960,-0.635
4119,-0.940,-0.645
4120,-0.945,-0.655
4121,-0.925,-0.660
4122,-0.915,-0.685
4123,-0.910,-0.690
4124,-0.900,-0.690
4125,-0.890,-0.685
4126,-0.875,-0.675
4127,-0.855,-0.660
4128,-0.835,-0.655
4129,-0.810,-0.640
4130,-0.770,-0.640
4131,-0.745,-0.630
4132,-0.745,-0.620
4133,-0.720,-0.640
4134,-0.705,-0.640
4135,-0.695,-0.645
4136,-0.675,-0.635
4137,-0.655,-0.640
4138,-0.645,-0.635
4139,-0.600,-0.605
4140,-0.565,-0.605
4141,-0.545,-0.585
4142,-0.505,-0.575
4143,-0.470,-0.570
4144,-0.450,-0.570
4145,-0.430,-0.570
4146,-0.410,-0.575
4147,-0.400,-0.595
4148,-0.385,-0.585
4149,-0.385,-0.585
4150,-0.370,-0.580
4151,-0.355,-0.565
4152,-0.325,-0.560
4153,-0.315,-0.590
4154,-0.295,-0.570
4155,-0.295,-0.600
4156,-0.290,-0.610
4157,-0.315,-0.625
4158,-0.350,-0.635
4159,-0.350,-0.635
4160,-0.355,-0.625
4161,-0.395,-0.620
4162,-0.410,-0.610
4163,-0.435,-0.605
4164,-0.460,-0.625
4165,-0.480,-0.640
4166,-0.500,-0.665
4167,-0.540,-0.670
4168,-0.615,-0.695
4169,-0.660,-0.730
4170,-0.725,-0.745
4171,-0.785,-0.745
4172,-0.825,-0.755
4173,-0.875,-0.755
4174,-0.900,-0.750
4175,-0.935,-0.735
4176,-0.945,-0.730
4177,-0.970,-0.735
4178,-0.975,-0.735
4179,-1.000,-0.750
4180,-1.005,-0.765
4181,-1.025,-0.785
4182,-1.045,-0.775
4183,-1.065,-0.790
4184,-1.080,-0.780
4185,-1.105,-0.790
4186,-1.120,-0.780
4187,-1.115,-0.770
4188,-1.120,-0.760
4189,-1.115,-0.750
4190,-1.080,-0.730
4191,-1.085,-0.750
4192,-1.085,-0.775
4193,-1.095,-0.785
4194,-1.105,-0.785
4195,-1.100,-0.805
4196,-1.100,-0.815
4197,-1.100,-0.800
4198,-1.095,-0.795
4199,-1.090,-0.785
4200,-1.080,-0.765
4201,-1.085,-0.740
4202,-1.065,-0.730
4203,-1.055,-0.725
4204,-1.055,-0.755
4205,-1.055,-0.755
4206,-1.060,-0.775
4207,-1.075,-0.790
4208,-1.085,-0.800
4209,-1.095,-0.795
4210,-1.085,-0.795
4211,-1.075,-0.780
4212,-1.065,-0.755
4213,-1.040,-0.765
4214,-1.030,-0.740
4215,-1.015,-0.745
4216,-1.015,-0.750
4217,-1.020,-0.760
4218,-1.045,-0.765
4219,-1.045,-0.785
4220,-1.060,-0.790
4221,-1.060,-0.805
4222,-1.080,-0.795
4223,-1.070,-0.780
4224,-1.040,-0.760
4225,-1.030,-0.745
4226,-1.025,-0.720
4227,-1.010,-0.720
4228,-1.020,-0.735
4229,-1.030,-0.755
4230,-1.040,-0.770
4231,-1.035,-0.775
4232,-1.060,-0.790
4233,-1.070,-0.780
4234,-1.080,-0.770
4235,-1.070,-0.770
4236,-1.070,-0.760
4237,-1.065,-0.760
4238,-1.055,-0.745
4239,-1.055,-0.750
4240,-1.075,-0.760
4241,-1.070,-0.785
4242,-1.090,-0.785
4243,-1.100,-0.810
4244,-1.110,-0.815
4245,-1.130,-0.815
4246,-1.115,-0.825
4247,-1.110,-0.795
4248,-1.095,-0.775
4249,-1.080,-0.760
4250,-1.085,-0.760
4251,-1.090,-0.755
4252,-1.080,-0.760
4253,-1.100,-0.780
4254,-1.105,-0.795
4255,-1.100,-0.800
4256,-1.115,-0.805
4257,-1.130,-0.790
4258,-1.135,-0.780
4259,-1.125,-0.760
4260,-1.110,-0.745
4261,-1.110,-0.745
4262,-1.095,-0.750
4263,-1.095,-0.765
4264,-1.090,-0.755
4265,-1.110,-0.765
4266,-1.110,-0.775
4267,-1.125,-0.795
4268,-1.120,-0.800
4269,-1.130,-0.780
4270,-1.120,-0.780
4271,-1.140,-0.745
4272,-1.130,-0.740
4273,-1.125,-0.735
4274,-1.125,-0.730
4275,-1.120,-0.740
4276,-1.120,-0.740
4277,-1.110,-0.745
4278,-1.100,-0.760
4279,-1.085,-0.755
4280,-1.070,-0.765
4281,-1.045,-0.755
4282,-1.035,-0.735
4283,-1.020,-0.720
4284,-0.995,-0.710
4285,-1.000,-0.705
4286,-1.000,-0.690
4287,-0.990,-0.705
4288,-0.980,-0.710
4289,-0.975,-0.715
4290,-0.970,-0.710
4291,-0.950,-0.735
4292,-0.925,-0.740
4293,-0.910,-0.745
4294,-0.885,-0.765
4295,-0.880,-0.755
4296,-0.880,-0.755
4297,-0.895,-0.715
4298,-0.885,-0.740
4299,-0.900,-0.725
4300,-0.910,-0.725
4301,-0.925,-0.760
4302,-0.950,-0.775
4303,-0.965,-0.775
4304,-1.000,-0.800
4305,-1.010,-0.785
4306,-1.045,-0.790
4307,-1.045,-0.785
4308,-1.060,-0.770
4309,-1.055,-0.770
4310,-1.050,-0.760
4311,-1.060,-0.775
4312,-1.085,-0.775
4313,-1.115,-0.790
4314,-1.165,-0.810
4315,-1.155,-0.815
4316,-1.170,-0.815
4317,-1.170,-0.790
4318,-1.175,-0.795
4319,-1.170,-0.780
4320,-1.170,-0.770
4321,-1.170,-0.755
4322,-1.160,-0.755
4323,-1.150,-0.760
4324,-1.130,-0.755
4325,-1.135,-0.760
4326,-1.140,-0.735
4327,-1.145,-0.740
4328,-1.155,-0.760
4329,-1.160,-0.790
4330,-1.155,-0.800
4331,-1.130,-0.825
4332,-1.080,-0.870
4333,-1.005,-0.925
4334,-0.870,-0.985
4335,-0.660,-1.070
4336,-0.385,-1.160
4337,-0.065,-1.255
4338,0.305,-1.345
4339,0.665,-1.420
4340,1.040,-1.495
4341,1.430,-1.560
4342,1.760,-1.600
4343,2.075,-1.560
4344,2.305,-1.490
4345,2.410,-1.350
4346,2.355,-1.215
4347,2.105,-1.090
4348,1.555,-1.000
4349,0.915,-0.960
4350,0.275,-0.930
4351,-0.365,-0.935
4352,-1.005,-0.910
4353,-1.645,-0.860
4354,-1.555,-0.805
4355,-1.200,-0.765
4356,-0.900,-0.745
4357,-0.725,-0.720
4358,-0.685,-0.720
4359,-0.755,-0.730
4360,-0.880,-0.720
4361,-0.990,-0.725
4362,-1.085,-0.740
4363,-1.115,-0.745
4364,-1.120,-0.735
4365,-1.110,-0.725
4366,-1.095,-0.715
4367,-1.095,-0.700
4368,-1.090,-0.700
4369,-1.085,-0.685
4370,-1.080,-0.680
4371,-1.075,-0.680
4372,-1.070,-0.680
4373,-1.060,-0.680
4374,-1.065,-0.695
4375,-1.050,-0.695
4376,-1.060,-0.695
4377,-1.050,-0.700
4378,-1.040,-0.700
4379,-1.030,-0.695
4380,-1.005,-0.670
4381,-0.995,-0.670
4382,-0.985,-0.660
4383,-0.990,-0.650
4384,-0.995,-0.685
4385,-1.030,-0.665
4386,-1.020,-0.670
4387,-1.015,-0.675
4388,-0.995,-0.685
4389,-0.985,-0.685
4390,-0.975,-0.700
4391,-0.950,-0.670
4392,-0.925,-0.665
4393,-0.915,-0.650
4394,-0.890,-0.640
4395,-0.880,-0.645
4396,-0.880,-0.660
4397,-0.855,-0.660
4398,-0.850,-0.680
4399,-0.840,-0.665
4400,-0.835,-0.665
4401,-0.835,-0.645
4402,-0.820,-0.610
4403,-0.785,-0.615
4404,-0.755,-0.605
4405,-0.725,-0.595
4406,-0.680,-0.575
4407,-0.650,-0.590
4408,-0.615,-0.590
4409,-0.605,-0.595
4410,-0.585,-0.615
4411,-0.560,-0.615
4412,-0.555,-0.620
4413,-0.530,-0.610
4414,-0.490,-0.595
4415,-0.460,-0.575
4416,-0.405,-0.555
4417,-0.370,-0.540
4418,-0.330,-0.525
4419,-0.305,-0.540
4420,-0.285,-0.560
4421,-0.275,-0.585
4422,-0.245,-0.575
4423,-0.250,-0.570
4424,-0.245,-0.555
4425,-0.260,-0.550
4426,-0.260,-0.540
4427,-0.250,-0.530
4428,-0.250,-0.540
4429,-0.245,-0.535
4430,-0.235,-0.535
4431,-0.235,-0.530
4432,-0.245,-0.545
4433,-0.275,-0.585
4434,-0.320,-0.610
4435,-0.365,-0.630
4436,-0.410,-0.655
4437,-0.460,-0.680
4438,-0.505,-0.670
4439,-0.560,-0.670
4440,-0.600,-0.665
4441,-0.630,-0.670
4442,-0.675,-0.665
4443,-0.705,-0.670
4444,-0.735,-0.690
4445,-0.785,-0.700
4446,-0.830,-0.715
4447,-0.875,-0.735
4448,-0.910,-0.745
4449,-0.945,-0.725
4450,-0.950,-0.715
4451,-0.955,-0.695
4452,-0.965,-0.705
4453,-0.975,-0.695
4454,-0.970,-0.695
4455,-0.985,-0.710
4456,-1.025,-0.720
4457,-1.030,-0.735
4458,-1.050,-0.750
4459,-1.075,-0.770
4460,-1.090,-0.760
4461,-1.100,-0.760
4462,-1.105,-0.745
4463,-1.075,-0.735
4464,-1.055,-0.735
4465,-1.050,-0.735
4466,-1.025,-0.740
4467,-1.025,-0.725
4468,-1.030,-0.735
4469,-1.045,-0.745
4470,-1.055,-0.735
4471,-1.070,-0.740
4472,-1.075,-0.740
4473,-1.075,-0.755
4474,-1.055,-0.730
4475,-1.045,-0.740
4476,-1.045,-0.730
4477,-1.035,-0.720
4478,-1.035,-0.745
4479,-1.025,-0.735
4480,-1.025,-0.725
4481,-1.015,-0.750
4482,-1.020,-0.765
4483,-1.015,-0.730
4484,-1.020,-0.740
4485,-1.025,-0.730
4486,-1.030,-0.730
4487,-1.040,-0.705
4488,-1.040,-0.715
4489,-1.020,-0.700
4490,-1.005,-0.700
4491,-0.995,-0.730
4492,-1.015,-0.720
4493,-1.000,-0.740
4494,-1.015,-0.735
4495,-1.040,-0.735
4496,-1.045,-0.745
4497,-1.055,-0.750
4498,-1.055,-0.745
4499,-1.035,-0.740
4500,-1.035,-0.715
4501,-1.025,-0.705
4502,-1.015,-0.680
4503,-1.010,-0.680
4504,-1.005,-0.685
4505,-1.005,-0.710
4506,-1.040,-0.730
4507,-1.075,-0.750
4508,-1.110,-0.755
4509,-1.125,-0.760
4510,-1.120,-0.750
4511,-1.120,-0.730
4512,-1.110,-0.705
4513,-1.090,-0.680
4514,-1.065,-0.675
4515,-1.060,-0.690
4516,-1.065,-0.740
4517,-1.080,-0.740
4518,-1.095,-0.740
4519,-1.115,-0.765
4520,-1.125,-0.760
4521,-1.135,-0.760
4522,-1.135,-0.740
4523,-1.140,-0.710
4524,-1.130,-0.715
4525,-1.125,-0.715
4526,-1.105,-0.705
4527,-1.095,-0.695
4528,-1.095,-0.700
4529,-1.105,-0.705
4530,-1.110,-0.720
4531,-1.120,-0.725
4532,-1.115,-0.735
4533,-1.115,-0.745
4534,-1.125,-0.735
4535,-1.145,-0.720
4536,-1.125,-0.720
4537,-1.125,-0.715
4538,-1.120,-0.715
4539,-1.110,-0.710
4540,-1.115,-0.720
4541,-1.130,-0.735
4542,-1.130,-0.735
4543,-1.145,-0.720
4544,-1.165,-0.715
4545,-1.170,-0.700
4546,-1.150,-0.700
4547,-1.150,-0.680
4548,-1.140,-0.670
4549,-1.120,-0.660
4550,-1.095,-0.640
4551,-1.085,-0.660
4552,-1.035,-0.660
4553,-1.035,-0.660
4554,-1.020,-0.655
4555,-1.020,-0.685
4556,-1.015,-0.660
4557,-1.030,-0.670
4558,-1.030,-0.650
4559,-1.035,-0.645
4560,-1.015,-0.640
4561,-1.015,-0.630
4562,-0.995,-0.635
4563,-0.960,-0.650
4564,-0.930,-0.675
4565,-0.925,-0.690
4566,-0.930,-0.720
4567,-0.945,-0.705
4568,-0.970,-0.710
4569,-0.975,-0.710
4570,-0.995,-0.700
4571,-0.980,-0.685
4572,-0.995,-0.685
4573,-0.985,-0.680
4574,-1.000,-0.685
4575,-1.005,-0.670
4576,-1.025,-0.665
4577,-1.035,-0.690
4578,-1.065,-0.710
4579,-1.110,-0.735
4580,-1.135,-0.750
4581,-1.160,-0.770
4582,-1.190,-0.785
4583,-1.220,-0.765
4584,-1.225,-0.725
4585,-1.225,-0.710
4586,-1.225,-0.695
4587,-1.215,-0.685
4588,-1.225,-0.710
4589,-1.205,-0.725
4590,-1.200,-0.730
4591,-1.205,-0.740
4592,-1.215,-0.740
4593,-1.200,-0.745
4594,-1.225,-0.725
4595,-1.220,-0.705
4596,-1.210,-0.685
4597,-1.200,-0.670
4598,-1.190,-0.660
4599,-1.180,-0.680
4600,-1.180,-0.710
4601,-1.185,-0.765
4602,-1.160,-0.825
4603,-1.115,-0.880
4604,-1.000,-0.950
4605,-0.815,-1.030
4606,-0.570,-1.115
4607,-0.220,-1.185
4608,0.140,-1.275
4609,0.540,-1.325
4610,0.925,-1.380
4611,1.340,-1.445
4612,1.705,-1.475
4613,2.035,-1.490
4614,2.235,-1.455
4615,2.325,-1.345
4616,2.245,-1.225
4617,2.010,-1.080
4618,1.515,-0.970
4619,0.875,-0.905
4620,0.235,-0.865
4621,-0.405,-0.840
4622,-1.045,-0.805
4623,-1.685,-0.770
4624,-1.605,-0.740
4625,-1.315,-0.710
4626,-1.035,-0.695
4627,-0.865,-0.685
4628,-0.835,-0.670
4629,-0.890,-0.690
4630,-1.000,-0.695
4631,-1.100,-0.690
4632,-1.170,-0.675
4633,-1.205,-0.665
4634,-1.210,-0.660
4635,-1.180,-0.650
4636,-1.175,-0.640
4637,-1.175,-0.640
4638,-1.170,-0.645
4639,-1.170,-0.660
4640,-1.180,-0.655
4641,-1.195,-0.670
4642,-1.185,-0.675
4643,-1.185,-0.655
4644,-1.175,-0.655
4645,-1.150,-0.655
4646,-1.130,-0.635
4647,-1.120,-0.635
4648,-1.115,-0.620
4649,-1.130,-0.630
4650,-1.135,-0.625
4651,-1.145,-0.635
4652,-1.140,-0.640
4653,-1.120,-0.635
4654,-1.100,-0.650
4655,-1.100,-0.655
4656,-1.100,-0.650
4657,-1.090,-0.615
4658,-1.080,-0.610
4659,-1.065,-0.610
4660,-1.045,-0.590
4661,-1.050,-0.615
4662,-1.035,-0.605
4663,-1.050,-0.615
4664,-1.040,-0.630
4665,-1.025,-0.635
4666,-1.005,-0.640
4667,-0.990,-0.635
4668,-0.960,-0.615
4669,-0.925,-0.575
4670,-0.910,-0.540
4671,-0.890,-0.530
4672,-0.870,-0.535
4673,-0.860,-0.540
4674,-0.855,-0.575
4675,-0.865,-0.585
4676,-0.840,-0.600
4677,-0.820,-0.605
4678,-0.830,-0.595
4679,-0.790,-0.580
4680,-0.755,-0.580
4681,-0.720,-0.560
4682,-0.675,-0.535
4683,-0.655,-0.535
4684,-0.600,-0.520
4685,-0.600,-0.535
4686,-0.565,-0.535
4687,-0.550,-0.535
4688,-0.540,-0.535
4689,-0.545,-0.550
4690,-0.530,-0.535
4691,-0.490,-0.525
4692,-0.455,-0.505
4693,-0.445,-0.500
4694,-0.395,-0.485
4695,-0.365,-0.480
4696,-0.340,-0.470
4697,-0.345,-0.495
4698,-0.340,-0.505
4699,-0.360,-0.530
4700,-0.365,-0.535
4701,-0.380,-0.530
4702,-0.400,-0.535
4703,-0.425,-0.530
4704,-0.440,-0.505
4705,-0.465,-0.500
4706,-0.500,-0.495
4707,-0.540,-0.515
4708,-0.600,-0.525
4709,-0.645,-0.545
4710,-0.710,-0.585
4711,-0.755,-0.620
4712,-0.805,-0.625
4713,-0.850,-0.645
4714,-0.885,-0.650
4715,-0.920,-0.635
4716,-0.950,-0.620
4717,-0.990,-0.615
4718,-1.020,-0.620
4719,-1.055,-0.615
4720,-1.080,-0.625
4721,-1.105,-0.640
4722,-1.145,-0.660
4723,-1.165,-0.685
4724,-1.185,-0.690
4725,-1.195,-0.685
4726,-1.200,-0.690
4727,-1.195,-0.665
4728,-1.210,-0.650
4729,-1.210,-0.640
4730,-1.205,-0.635
4731,-1.185,-0.640
4732,-1.185,-0.665
4733,-1.160,-0.675
4734,-1.175,-0.695
4735,-1.210,-0.680
4736,-1.220,-0.680
4737,-1.255,-0.670
4738,-1.255,-0.665
4739,-1.245,-0.660
4740,-1.235,-0.635
4741,-1.215,-0.615
4742,-1.195,-0.620
4743,-1.185,-0.630
4744,-1.185,-0.625
4745,-1.185,-0.655
4746,-1.185,-0.650
4747,-1.190,-0.690
4748,-1.205,-0.695
4749,-1.210,-0.700
4750,-1.215,-0.690
4751,-1.215,-0.670
4752,-1.210,-0.645
4753,-1.190,-0.645
4754,-1.190,-0.640
4755,-1.185,-0.630
4756,-1.180,-0.645
4757,-1.175,-0.665
4758,-1.185,-0.660
4759,-1.200,-0.675
4760,-1.205,-0.670
4761,-1.200,-0.675
4762,-1.205,-0.650
4763,-1.210,-0.650
4764,-1.210,-0.650
4765,-1.195,-0.630
4766,-1.205,-0.625
4767,-1.195,-0.635
4768,-1.205,-0.625
4769,-1.205,-0.640
4770,-1.205,-0.640
4771,-1.205,-0.655
4772,-1.195,-0.665
4773,-1.215,-0.680
4774,-1.230,-0.675
4775,-1.235,-0.675
4776,-1.260,-0.680
4777,-1.265,-0.680
4778,-1.275,-0.665
4779,-1.275,-0.640
4780,-1.275,-0.650
4781,-1.260,-0.665
4782,-1.265,-0.660
4783,-1.265,-0.670
4784,-1.300,-0.680
4785,-1.300,-0.685
4786,-1.315,-0.695
4787,-1.315,-0.690
4788,-1.310,-0.675
4789,-1.280,-0.655
4790,-1.265,-0.645
4791,-1.250,-0.645
4792,-1.265,-0.650
4793,-1.275,-0.670
4794,-1.310,-0.690
4795,-1.320,-0.710
4796,-1.335,-0.695
4797,-1.325,-0.690
4798,-1.325,-0.680
4799,-1.325,-0.670
4800,-1.320,-0.660
4801,-1.315,-0.645
4802,-1.295,-0.655
4803,-1.285,-0.655
4804,-1.280,-0.660
4805,-1.285,-0.670
4806,-1.295,-0.670
4807,-1.305,-0.670
4808,-1.320,-0.675
4809,-1.325,-0.690
4810,-1.320,-0.685
4811,-1.330,-0.675
4812,-1.330,-0.660
4813,-1.305,-0.665
4814,-1.305,-0.650
4815,-1.285,-0.630
4816,-1.275,-0.640
4817,-1.260,-0.645
4818,-1.255,-0.650
4819,-1.245,-0.655
4820,-1.265,-0.665
4821,-1.265,-0.645
4822,-1.265,-0.620
4823,-1.265,-0.600
4824,-1.260,-0.590
4825,-1.225,-0.580
4826,-1.200,-0.605
4827,-1.180,-0.605
4828,-1.185,-0.640
4829,-1.190,-0.645
4830,-1.200,-0.635
4831,-1.200,-0.660
4832,-1.195,-0.635
4833,-1.175,-0.655
4834,-1.175,-0.660
4835,-1.170,-0.665
4836,-1.170,-0.655
4837,-1.160,-0.645
4838,-1.160,-0.630
4839,-1.160,-0.645
4840,-1.150,-0.655
4841,-1.155,-0.665
4842,-1.155,-0.650
4843,-1.170,-0.665
4844,-1.190,-0.670
4845,-1.190,-0.665
4846,-1.195,-0.690
4847,-1.205,-0.680
4848,-1.210,-0.685
4849,-1.225,-0.695
4850,-1.235,-0.670
4851,-1.250,-0.660
4852,-1.275,-0.665
4853,-1.305,-0.690
4854,-1.320,-0.695
4855,-1.355,-0.730
4856,-1.380,-0.730
4857,-1.360,-0.725
4858,-1.370,-0.730
4859,-1.355,-0.690
4860,-1.340,-0.655
4861,-1.320,-0.650
4862,-1.345,-0.640
4863,-1.350,-0.650
4864,-1.365,-0.660
4865,-1.365,-0.675
4866,-1.380,-0.690
4867,-1.370,-0.685
4868,-1.365,-0.670
4869,-1.360,-0.650
4870,-1.350,-0.645
4871,-1.340,-0.640
4872,-1.330,-0.655
4873,-1.310,-0.650
4874,-1.275,-0.690
4875,-1.185,-0.760
4876,-1.080,-0.825
4877,-0.905,-0.905
4878,-0.680,-1.010
4879,-0.400,-1.085
4880,-0.065,-1.185
4881,0.290,-1.245
4882,0.695,-1.295
4883,1.125,-1.355
4884,1.545,-1.380
4885,1.885,-1.370
4886,2.140,-1.300
4887,2.230,-1.220
4888,2.165,-1.105
4889,1.880,-1.000
4890,1.340,-0.940
4891,0.700,-0.925
4892,0.060,-0.930
4893,-0.580,-0.920
4894,-1.220,-0.885
4895,-1.860,-0.835
4896,-1.860,-0.775
4897,-1.620,-0.720
4898,-1.365,-0.700
4899,-1.150,-0.695
4900,-1.050,-0.685
4901,-1.035,-0.685
4902,-1.085,-0.695
4903,-1.135,-0.670
4904,-1.190,-0.680
4905,-1.245,-0.650
4906,-1.270,-0.675
4907,-1.275,-0.685
4908,-1.270,-0.680
4909,-1.260,-0.685
4910,-1.250,-0.660
4911,-1.220,-0.655
4912,-1.225,-0.650
4913,-1.230,-0.655
4914,-1.245,-0.670
4915,-1.260,-0.685
4916,-1.265,-0.695
4917,-1.250,-0.695
4918,-1.245,-0.700
4919,-1.235,-0.690
4920,-1.215,-0.655
4921,-1.210,-0.640
4922,-1.170,-0.635
4923,-1.145,-0.645
4924,-1.125,-0.675
4925,-1.135,-0.675
4926,-1.155,-0.690
4927,-1.155,-0.670
4928,-1.170,-0.665
4929,-1.165,-0.650
4930,-1.150,-0.635
4931,-1.135,-0.640
4932,-1.120,-0.655
4933,-1.105,-0.665
4934,-1.090,-0.650
4935,-1.095,-0.655
4936,-1.090,-0.650
4937,-1.090,-0.660
4938,-1.065,-0.655
4939,-1.065,-0.660
4940,-1.055,-0.660
4941,-1.050,-0.665
4942,-1.060,-0.655
4943,-1.040,-0.650
4944,-1.020,-0.635
4945,-0.970,-0.625
4946,-0.955,-0.610
4947,-0.910,-0.600
4948,-0.885,-0.615
4949,-0.890,-0.650
4950,-0.860,-0.645
4951,-0.875,-0.655
4952,-0.870,-0.655
4953,-0.845,-0.645
4954,-0.830,-0.630
4955,-0.790,-0.585
4956,-0.735,-0.560
4957,-0.680,-0.550
4958,-0.625,-0.550
4959,-0.600,-0.570
4960,-0.580,-0.590
4961,-0.570,-0.605
4962,-0.565,-0.610
4963,-0.580,-0.620
4964,-0.570,-0.600
4965,-0.550,-0.575
4966,-0.525,-0.565
4967,-0.500,-0.535
4968,-0.480,-0.535
4969,-0.460,-0.550
4970,-0.455,-0.525
4971,-0.430,-0.535
4972,-0.440,-0.525
4973,-0.405,-0.535
4974,-0.395,-0.540
4975,-0.395,-0.565
4976,-0.400,-0.570
4977,-0.420,-0.575
4978,-0.450,-0.585
4979,-0.480,-0.565
4980,-0.480,-0.545
4981,-0.495,-0.540
4982,-0.510,-0.535
4983,-0.535,-0.565
4984,-0.580,-0.595
4985,-0.605,-0.610
4986,-0.660,-0.620
4987,-0.710,-0.635
4988,-0.735,-0.650
4989,-0.780,-0.650
4990,-0.815,-0.655
4991,-0.850,-0.670
4992,-0.875,-0.660
4993,-0.890,-0.665
4994,-0.900,-0.640
4995,-0.930,-0.650
4996,-0.970,-0.660
4997,-1.020,-0.675
4998,-1.055,-0.675
4999,-1.095,-0.700
5000,-1.125,-0.695
5001,-1.140,-0.700
5002,-1.160,-0.695
5003,-1.155,-0.710
5004,-1.150,-0.690
5005,-1.140,-0.700
5006,-1.130,-0.690
5007,-1.105,-0.680
5008,-1.100,-0.700
5009,-1.100,-0.700
5010,-1.105,-0.705
5011,-1.115,-0.710
5012,-1.135,-0.700
5013,-1.150,-0.710
5014,-1.135,-0.715
5015,-1.130,-0.730
5016,-1.125,-0.725
5017,-1.115,-0.715
5018,-1.095,-0.710
5019,-1.085,-0.700
5020,-1.075,-0.725
5021,-1.075,-0.730
5022,-1.060,-0.740
5023,-1.065,-0.740
5024,-1.080,-0.745
5025,-1.080,-0.730
5026,-1.095,-0.720
5027,-1.090,-0.705
5028,-1.085,-0.690
5029,-1.085,-0.700
5030,-1.090,-0.715
5031,-1.085,-0.715
5032,-1.070,-0.735
5033,-1.070,-0.725
5034,-1.055,-0.715
5035,-1.050,-0.735
5036,-1.060,-0.730
5037,-1.050,-0.745
5038,-1.055,-0.760
5039,-1.065,-0.750
5040,-1.060,-0.725
5041,-1.055,-0.715
5042,-1.050,-0.700
5043,-1.040,-0.685
5044,-1.040,-0.695
5045,-1.045,-0.705
5046,-1.060,-0.740
5047,-1.075,-0.755
5048,-1.095,-0.760
5049,-1.100,-0.760
5050,-1.125,-0.765
5051,-1.120,-0.765
5052,-1.100,-0.730
5053,-1.080,-0.720
5054,-1.055,-0.705
5055,-1.040,-0.725
5056,-1.055,-0.730
5057,-1.080,-0.725
5058,-1.125,-0.745
5059,-1.160,-0.750
5060,-1.165,-0.735
5061,-1.160,-0.740
5062,-1.150,-0.740
5063,-1.120,-0.735
5064,-1.105,-0.735
5065,-1.125,-0.720
5066,-1.130,-0.705
5067,-1.125,-0.705
5068,-1.110,-0.720
5069,-1.135,-0.715
5070,-1.120,-0.735
5071,-1.125,-0.765
5072,-1.120,-0.760
5073,-1.125,-0.780
5074,-1.140,-0.775
5075,-1.155,-0.760
5076,-1.180,-0.720
5077,-1.200,-0.710
5078,-1.195,-0.720
5079,-1.185,-0.710
5080,-1.175,-0.715
5081,-1.175,-0.735
5082,-1.165,-0.730
5083,-1.165,-0.750
5084,-1.155,-0.740
5085,-1.140,-0.750
5086,-1.135,-0.750
5087,-1.125,-0.750
5088,-1.110,-0.740
5089,-1.125,-0.730
5090,-1.140,-0.730
5091,-1.130,-0.700
5092,-1.135,-0.705
5093,-1.110,-0.700
5094,-1.130,-0.695
5095,-1.110,-0.690
5096,-1.100,-0.695
5097,-1.110,-0.705
5098,-1.105,-0.705
5099,-1.105,-0.705
5100,-1.075,-0.715
5101,-1.055,-0.685
5102,-1.035,-0.665
5103,-1.000,-0.650
5104,-1.015,-0.650
5105,-1.020,-0.660
5106,-1.025,-0.685
5107,-1.045,-0.715
5108,-1.045,-0.725
5109,-1.040,-0.700
5110,-1.050,-0.695
5111,-1.025,-0.695
5112,-0.990,-0.680
5113,-0.965,-0.695
5114,-0.930,-0.695
5115,-0.900,-0.725
5116,-0.905,-0.720
5117,-0.915,-0.700
5118,-0.920,-0.720
5119,-0.925,-0.720
5120,-0.945,-0.715
5121,-0.960,-0.705
5122,-0.995,-0.725
5123,-1.015,-0.720
5124,-1.030,-0.735
5125,-1.025,-0.730
5126,-1.045,-0.720
5127,-1.035,-0.715
5128,-1.040,-0.720
5129,-1.085,-0.725
5130,-1.115,-0.755
5131,-1.160,-0.755
5132,-1.195,-0.770
5133,-1.220,-0.770
5134,-1.240,-0.745
5135,-1.225,-0.735
5136,-1.205,-0.740
5137,-1.190,-0.735
5138,-1.160,-0.725
5139,-1.135,-0.730
5140,-1.130,-0.760
5141,-1.125,-0.770
5142,-1.150,-0.775
5143,-1.155,-0.775
5144,-1.175,-0.765
5145,-1.195,-0.740
5146,-1.190,-0.720
5147,-1.180,-0.700
5148,-1.175,-0.670
5149,-1.170,-0.685
5150,-1.175,-0.720
5151,-1.135,-0.755
5152,-1.100,-0.810
5153,-1.030,-0.870
5154,-0.920,-0.965
5155,-0.755,-1.060
5156,-0.520,-1.155
5157,-0.205,-1.255
5158,0.160,-1.355
5159,0.575,-1.425
5160,1.020,-1.495
5161,1.450,-1.550
5162,1.860,-1.540
5163,2.195,-1.495
5164,2.375,-1.400
5165,2.425,-1.265
5166,2.290,-1.165
5167,1.910,-1.050
5168,1.280,-1.000
5169,0.640,-0.955
5170,0.000,-0.935
5171,-0.640,-0.910
5172,-1.280,-0.875
5173,-1.825,-0.845
5174,-1.600,-0.785
5175,-1.240,-0.750
5176,-0.940,-0.735
5177,-0.770,-0.755
5178,-0.735,-0.750
5179,-0.820,-0.735
5180,-0.955,-0.750
5181,-1.060,-0.750
5182,-1.145,-0.745
5183,-1.150,-0.730
5184,-1.150,-0.700
5185,-1.140,-0.670
5186,-1.125,-0.660
5187,-1.110,-0.655
5188,-1.115,-0.670
5189,-1.100,-0.680
5190,-1.105,-0.705
5191,-1.115,-0.725
5192,-1.125,-0.720
5193,-1.105,-0.715
5194,-1.110,-0.725
5195,-1.135,-0.730
5196,-1.130,-0.710
5197,-1.125,-0.700
5198,-1.105,-0.695
5199,-1.095,-0.680
5200,-1.070,-0.670
5201,-1.050,-0.670
5202,-1.065,-0.680
5203,-1.035,-0.690
5204,-1.040,-0.705
5205,-1.050,-0.695
5206,-1.060,-0.710
5207,-1.050,-0.690
5208,-1.040,-0.700
5209,-1.025,-0.690
5210,-1.015,-0.690
5211,-0.985,-0.680
5212,-0.985,-0.635
5213,-0.985,-0.655
5214,-0.975,-0.670
5215,-0.965,-0.675
5216,-0.985,-0.700
5217,-0.970,-0.690
5218,-0.945,-0.685
5219,-0.945,-0.665
5220,-0.930,-0.670
5221,-0.915,-0.630
5222,-0.895,-0.610
5223,-0.860,-0.610
5224,-0.845,-0.615
5225,-0.815,-0.605
5226,-0.810,-0.615
5227,-0.805,-0.630
5228,-0.790,-0.640
5229,-0.780,-0.640
5230,-0.765,-0.625
5231,-0.740,-0.630
5232,-0.720,-0.610
5233,-0.660,-0.600
5234,-0.640,-0.565
5235,-0.600,-0.565
5236,-0.550,-0.570
5237,-0.520,-0.585
5238,-0.490,-0.605
5239,-0.475,-0.600
5240,-0.460,-0.610
5241,-0.440,-0.580
5242,-0.450,-0.555
5243,-0.440,-0.550
5244,-0.425,-0.540
5245,-0.385,-0.520
5246,-0.350,-0.525
5247,-0.305,-0.530
5248,-0.280,-0.530
5249,-0.270,-0.535
5250,-0.260,-0.550
5251,-0.265,-0.570
5252,-0.265,-0.560
5253,-0.270,-0.545
5254,-0.290,-0.550
5255,-0.290,-0.545
5256,-0.330,-0.550
5257,-0.335,-0.555
5258,-0.380,-0.555
5259,-0.395,-0.565
5260,-0.425,-0.580
5261,-0.475,-0.590
5262,-0.500,-0.630
5263,-0.550,-0.650
5264,-0.590,-0.645
5265,-0.635,-0.655
5266,-0.700,-0.655
5267,-0.740,-0.675
5268,-0.770,-0.665
5269,-0.800,-0.685
5270,-0.840,-0.695
5271,-0.865,-0.720
5272,-0.900,-0.715
5273,-0.930,-0.715
5274,-0.970,-0.710
5275,-0.990,-0.700
5276,-1.030,-0.695
5277,-1.055,-0.695
5278,-1.075,-0.715
5279,-1.080,-0.715
5280,-1.085,-0.715
5281,-1.085,-0.715
5282,-1.080,-0.695
5283,-1.080,-0.685
5284,-1.085,-0.680
5285,-1.115,-0.695
5286,-1.125,-0.720
5287,-1.130,-0.730
5288,-1.110,-0.740
5289,-1.105,-0.755
5290,-1.120,-0.740
5291,-1.110,-0.750
5292,-1.120,-0.725
5293,-1.110,-0.730
5294,-1.135,-0.710
5295,-1.110,-0.690
5296,-1.110,-0.705
5297,-1.085,-0.705
5298,-1.100,-0.705
5299,-1.100,-0.720
5300,-1.105,-0.725
5301,-1.105,-0.735
5302,-1.115,-0.740
5303,-1.125,-0.725
5304,-1.110,-0.715
5305,-1.100,-0.700
5306,-1.095,-0.695
5307,-1.070,-0.685
5308,-1.080,-0.680
5309,-1.070,-0.670
5310,-1.065,-0.675
5311,-1.080,-0.690
5312,-1.105,-0.705
5313,-1.100,-0.715
5314,-1.125,-0.715
5315,-1.135,-0.715
5316,-1.120,-0.690
5317,-1.100,-0.670
5318,-1.095,-0.675
5319,-1.075,-0.675
5320,-1.065,-0.700
5321,-1.070,-0.710
5322,-1.065,-0.720
5323,-1.090,-0.725
5324,-1.120,-0.730
5325,-1.125,-0.725
5326,-1.150,-0.695
5327,-1.150,-0.690
5328,-1.150,-0.680
5329,-1.145,-0.685
5330,-1.135,-0.665
5331,-1.120,-0.670
5332,-1.115,-0.640
5333,-1.115,-0.660
5334,-1.115,-0.685
5335,-1.130,-0.710
5336,-1.135,-0.735
5337,-1.150,-0.750
5338,-1.180,-0.755
5339,-1.190,-0.750
5340,-1.180,-0.735
5341,-1.155,-0.720
5342,-1.145,-0.700
5343,-1.135,-0.675
5344,-1.155,-0.680
5345,-1.175,-0.690
5346,-1.175,-0.710
5347,-1.175,-0.730
5348,-1.185,-0.750
5349,-1.200,-0.735
5350,-1.200,-0.725
5351,-1.205,-0.730
5352,-1.215,-0.715
5353,-1.210,-0.715
5354,-1.190,-0.715
5355,-1.180,-0.700
5356,-1.155,-0.685
5357,-1.155,-0.690
5358,-1.155,-0.700
5359,-1.155,-0.695
5360,-1.190,-0.720
5361,-1.210,-0.725
5362,-1.230,-0.730
5363,-1.220,-0.740
5364,-1.210,-0.730
5365,-1.195,-0.715
5366,-1.180,-0.700
5367,-1.180,-0.655
5368,-1.165,-0.655
5369,-1.180,-0.655
5370,-1.175,-0.660
5371,-1.150,-0.640
5372,-1.125,-0.645
5373,-1.120,-0.640
5374,-1.130,-0.625
5375,-1.135,-0.635
5376,-1.135,-0.625
5377,-1.105,-0.620
5378,-1.100,-0.630
5379,-1.075,-0.635
5380,-1.080,-0.645
5381,-1.070,-0.655
5382,-1.080,-0.685
5383,-1.090,-0.685
5384,-1.095,-0.705
5385,-1.060,-0.700
5386,-1.040,-0.705
5387,-1.050,-0.690
5388,-1.025,-0.685
5389,-1.010,-0.685
5390,-1.025,-0.670
5391,-1.025,-0.675
5392,-1.040,-0.670
5393,-1.055,-0.700
5394,-1.085,-0.690
5395,-1.085,-0.705
5396,-1.100,-0.720
5397,-1.110,-0.730
5398,-1.125,-0.710
5399,-1.135,-0.710
5400,-1.135,-0.690
5401,-1.130,-0.670
5402,-1.145,-0.650
5403,-1.150,-0.675
5404,-1.170,-0.700
5405,-1.200,-0.715
5406,-1.220,-0.725
5407,-1.250,-0.725
5408,-1.275,-0.715
5409,-1.280,-0.700
5410,-1.285,-0.710
5411,-1.280,-0.715
5412,-1.270,-0.725
5413,-1.265,-0.700
5414,-1.250,-0.675
5415,-1.235,-0.660
5416,-1.225,-0.660
5417,-1.220,-0.650
5418,-1.225,-0.665
5419,-1.215,-0.710
5420,-1.220,-0.720
5421,-1.230,-0.755
5422,-1.220,-0.760
5423,-1.170,-0.820
5424,-1.110,-0.855
5425,-0.995,-0.940
5426,-0.820,-1.035
5427,-0.560,-1.120
5428,-0.210,-1.190
5429,0.200,-1.270
5430,0.680,-1.350
5431,1.180,-1.430
5432,1.650,-1.475
5433,2.050,-1.485
5434,2.290,-1.430
5435,2.380,-1.315
5436,2.290,-1.175
5437,1.955,-1.035
5438,1.340,-0.945
5439,0.700,-0.900
5440,0.060,-0.900
5441,-0.580,-0.880
5442,-1.220,-0.850
5443,-1.860,-0.815
5444,-1.685,-0.750
5445,-1.390,-0.710
5446,-1.130,-0.695
5447,-0.970,-0.660
5448,-0.930,-0.660
5449,-0.995,-0.665
5450,-1.100,-0.655
5451,-1.180,-0.635
5452,-1.230,-0.640
5453,-1.255,-0.645
5454,-1.245,-0.640
5455,-1.230,-0.675
5456,-1.215,-0.680
5457,-1.195,-0.685
5458,-1.205,-0.695
5459,-1.200,-0.655
5460,-1.200,-0.640
5461,-1.205,-0.625
5462,-1.205,-0.620
5463,-1.180,-0.630
5464,-1.165,-0.650
5465,-1.155,-0.655
5466,-1.145,-0.650
5467,-1.145,-0.660
5468,-1.140,-0.655
5469,-1.120,-0.650
5470,-1.130,-0.650
5471,-1.125,-0.620
5472,-1.120,-0.615
5473,-1.120,-0.615
5474,-1.125,-0.610
5475,-1.090,-0.590
5476,-1.085,-0.615
5477,-1.065,-0.600
5478,-1.070,-0.595
5479,-1.075,-0.610
5480,-1.080,-0.615
5481,-1.065,-0.630
5482,-1.055,-0.640
5483,-1.040,-0.620
5484,-1.030,-0.600
5485,-1.005,-0.580
5486,-0.975,-0.560
5487,-0.945,-0.570
5488,-0.935,-0.565
5489,-0.910,-0.570
5490,-0.895,-0.550
5491,-0.885,-0.570
5492,-0.870,-0.560
5493,-0.865,-0.555
5494,-0.845,-0.530
5495,-0.850,-0.520
5496,-0.810,-0.525
5497,-0.775,-0.530
5498,-0.740,-0.535
5499,-0.705,-0.515
5500,-0.680,-0.515
5501,-0.650,-0.520
5502,-0.630,-0.510
5503,-0.615,-0.505
5504,-0.590,-0.490
5505,-0.570,-0.490
5506,-0.560,-0.485
5507,-0.540,-0.480
5508,-0.515,-0.460
5509,-0.475,-0.465
5510,-0.455,-0.445
5511,-0.450,-0.445
5512,-0.435,-0.455
5513,-0.440,-0.475
5514,-0.425,-0.495
5515,-0.435,-0.515
5516,-0.455,-0.525
5517,-0.465,-0.530
5518,-0.495,-0.500
5519,-0.505,-0.500
5520,-0.500,-0.485
5521,-0.525,-0.495
5522,-0.560,-0.470
5523,-0.580,-0.460
5524,-0.615,-0.500
5525,-0.675,-0.505
5526,-0.720,-0.560
5527,-0.770,-0.590
5528,-0.830,-0.610
5529,-0.885,-0.630
5530,-0.945,-0.645
5531,-1.005,-0.630
5532,-1.030,-0.620
5533,-1.035,-0.610
5534,-1.055,-0.595
5535,-1.050,-0.590
5536,-1.065,-0.590
5537,-1.100,-0.595
5538,-1.140,-0.625
5539,-1.175,-0.640
5540,-1.190,-0.640
5541,-1.210,-0.655
5542,-1.210,-0.645
5543,-1.215,-0.650
5544,-1.225,-0.640
5545,-1.225,-0.615
5546,-1.220,-0.615
5547,-1.230,-0.590
5548,-1.260,-0.590
5549,-1.255,-0.595
5550,-1.265,-0.610
5551,-1.265,-0.625
5552,-1.270,-0.650
5553,-1.255,-0.660
5554,-1.255,-0.660
5555,-1.255,-0.660
5556,-1.270,-0.645
5557,-1.245,-0.630
5558,-1.235,-0.615
5559,-1.205,-0.595
5560,-1.210,-0.605
5561,-1.205,-0.615
5562,-1.220,-0.635
5563,-1.245,-0.645
5564,-1.260,-0.675
5565,-1.250,-0.665
5566,-1.255,-0.680
5567,-1.240,-0.655
5568,-1.220,-0.650
5569,-1.215,-0.615
5570,-1.195,-0.605
5571,-1.180,-0.610
5572,-1.195,-0.615
5573,-1.200,-0.615
5574,-1.215,-0.645
5575,-1.220,-0.630
5576,-1.220,-0.640
5577,-1.215,-0.615
5578,-1.220,-0.610
5579,-1.235,-0.605
5580,-1.240,-0.610
5581,-1.225,-0.615
5582,-1.215,-0.630
5583,-1.200,-0.630
5584,-1.190,-0.625
5585,-1.190,-0.640
5586,-1.180,-0.635
5587,-1.210,-0.620
5588,-1.205,-0.635
5589,-1.220,-0.645
5590,-1.250,-0.645
5591,-1.255,-0.665
5592,-1.245,-0.635
5593,-1.250,-0.640
5594,-1.235,-0.630
5595,-1.215,-0.630
5596,-1.210,-0.630
5597,-1.215,-0.640
5598,-1.220,-0.660
5599,-1.220,-0.660
5600,-1.235,-0.670
5601,-1.260,-0.670
5602,-1.260,-0.650
5603,-1.275,-0.645
5604,-1.285,-0.610
5605,-1.295,-0.610
5606,-1.295,-0.595
5607,-1.295,-0.630
5608,-1.280,-0.655
5609,-1.245,-0.670
5610,-1.225,-0.670
5611,-1.235,-0.675
5612,-1.235,-0.680
5613,-1.240,-0.685
5614,-1.265,-0.670
5615,-1.285,-0.665
5616,-1.285,-0.635
5617,-1.295,-0.600
5618,-1.290,-0.585
5619,-1.270,-0.600
5620,-1.265,-0.620
5621,-1.270,-0.650
5622,-1.265,-0.660
5623,-1.270,-0.660
5624,-1.280,-0.670
5625,-1.280,-0.660
5626,-1.295,-0.660
5627,-1.295,-0.665
5628,-1.290,-0.660
5629,-1.275,-0.660
5630,-1.265,-0.640
5631,-1.255,-0.630
5632,-1.235,-0.635
5633,-1.235,-0.615
5634,-1.245,-0.650
5635,-1.270,-0.660
5636,-1.265,-0.675
5637,-1.260,-0.665
5638,-1.245,-0.650
5639,-1.230,-0.625
5640,-1.215,-0.600
5641,-1.185,-0.590
5642,-1.180,-0.575
5643,-1.175,-0.580
5644,-1.155,-0.565
5645,-1.155,-0.560
5646,-1.150,-0.600
5647,-1.145,-0.620
5648,-1.160,-0.625
5649,-1.175,-0.630
5650,-1.175,-0.650
5651,-1.180,-0.665
5652,-1.160,-0.640
5653,-1.145,-0.650
5654,-1.120,-0.655
5655,-1.090,-0.665
5656,-1.065,-0.655
5657,-1.075,-0.675
5658,-1.070,-0.650
5659,-1.070,-0.670
5660,-1.085,-0.655
5661,-1.090,-0.645
5662,-1.105,-0.650
5663,-1.115,-0.665
5664,-1.130,-0.645
5665,-1.120,-0.655
5666,-1.115,-0.655
5667,-1.105,-0.635
5668,-1.110,-0.655
5669,-1.130,-0.650
5670,-1.160,-0.680
5671,-1.180,-0.675
5672,-1.210,-0.710
5673,-1.235,-0.705
5674,-1.235,-0.685
5675,-1.255,-0.690
5676,-1.260,-0.670
5677,-1.245,-0.680
5678,-1.245,-0.690
5679,-1.230,-0.675
5680,-1.225,-0.690
5681,-1.235,-0.685
5682,-1.250,-0.690
5683,-1.255,-0.690
5684,-1.265,-0.695
5685,-1.265,-0.710
5686,-1.270,-0.695
5687,-1.255,-0.705
5688,-1.245,-0.680
5689,-1.220,-0.655
5690,-1.220,-0.625
5691,-1.200,-0.630
5692,-1.205,-0.655
5693,-1.180,-0.690
5694,-1.140,-0.750
5695,-1.085,-0.810
5696,-0.990,-0.890
5697,-0.835,-0.965
5698,-0.640,-1.040
5699,-0.410,-1.105
5700,-0.105,-1.170
5701,0.225,-1.230
5702,0.590,-1.285
5703,1.025,-1.335
5704,1.445,-1.375
5705,1.810,-1.370
5706,2.070,-1.305
5707,2.155,-1.185
5708,2.025,-1.090
5709,1.605,-1.005
5710,0.965,-0.960
5711,0.325,-0.930
5712,-0.315,-0.895
5713,-0.955,-0.845
5714,-1.595,-0.795
5715,-1.675,-0.730
5716,-1.405,-0.705
5717,-1.135,-0.695
5718,-0.930,-0.700
5719,-0.845,-0.700
5720,-0.875,-0.715
5721,-0.955,-0.715
5722,-1.050,-0.725
5723,-1.115,-0.695
5724,-1.155,-0.675
5725,-1.165,-0.665
5726,-1.135,-0.645
5727,-1.115,-0.630
5728,-1.100,-0.630
5729,-1.090,-0.645
5730,-1.095,-0.660
5731,-1.100,-0.665
5732,-1.105,-0.680
5733,-1.105,-0.660
5734,-1.095,-0.650
5735,-1.070,-0.645
5736,-1.055,-0.630
5737,-1.050,-0.640
5738,-1.045,-0.640
5739,-1.040,-0.630
5740,-1.035,-0.635
5741,-1.050,-0.650
5742,-1.045,-0.640
5743,-1.060,-0.660
5744,-1.050,-0.660
5745,-1.035,-0.660
5746,-1.035,-0.670
5747,-1.035,-0.655
5748,-1.030,-0.645
5749,-1.030,-0.635
5750,-1.010,-0.620
5751,-0.990,-0.615
5752,-0.965,-0.610
5753,-0.950,-0.615
5754,-0.925,-0.630
5755,-0.925,-0.665
5756,-0.925,-0.670
5757,-0.925,-0.675
5758,-0.935,-0.695
5759,-0.925,-0.660
5760,-0.910,-0.655
5761,-0.875,-0.620
5762,-0.860,-0.610
5763,-0.820,-0.585
5764,-0.800,-0.565
5765,-0.775,-0.570
5766,-0.765,-0.565
5767,-0.740,-0.585
5768,-0.740,-0.580
5769,-0.725,-0.610
5770,-0.715,-0.605
5771,-0.685,-0.595
5772,-0.635,-0.585
5773,-0.585,-0.565
5774,-0.550,-0.545
5775,-0.520,-0.515
5776,-0.495,-0.510
5777,-0.500,-0.530
5778,-0.505,-0.540
5779,-0.480,-0.525
5780,-0.460,-0.535
5781,-0.460,-0.510
5782,-0.430,-0.525
5783,-0.410,-0.525
5784,-0.395,-0.495
5785,-0.370,-0.480
5786,-0.350,-0.500
5787,-0.325,-0.475
5788,-0.300,-0.490
5789,-0.290,-0.525
5790,-0.305,-0.540
5791,-0.325,-0.535
5792,-0.355,-0.535
5793,-0.365,-0.520
5794,-0.380,-0.520
5795,-0.410,-0.535
5796,-0.450,-0.530
5797,-0.450,-0.560
5798,-0.470,-0.570
5799,-0.480,-0.580
5800,-0.500,-0.590
5801,-0.550,-0.605
5802,-0.615,-0.635
5803,-0.680,-0.660
5804,-0.765,-0.690
5805,-0.810,-0.710
5806,-0.855,-0.715
5807,-0.895,-0.710
5808,-0.925,-0.695
5809,-0.935,-0.705
5810,-0.945,-0.695
5811,-0.945,-0.695
5812,-0.945,-0.680
5813,-0.950,-0.695
5814,-0.970,-0.705
5815,-0.985,-0.720
5816,-0.995,-0.720
5817,-1.000,-0.715
5818,-1.005,-0.715
5819,-1.025,-0.705
5820,-1.045,-0.685
5821,-1.045,-0.700
5822,-1.060,-0.700
5823,-1.065,-0.700
5824,-1.040,-0.690
5825,-1.050,-0.700
5826,-1.050,-0.700
5827,-1.045,-0.705
5828,-1.035,-0.730
5829,-1.045,-0.745
5830,-1.035,-0.770
5831,-1.045,-0.785
5832,-1.035,-0.755
5833,-1.040,-0.720
5834,-1.030,-0.685
5835,-1.035,-0.650
5836,-1.030,-0.660
5837,-1.035,-0.695
5838,-1.055,-0.720
5839,-1.060,-0.745
5840,-1.045,-0.770
5841,-1.045,-0.775
5842,-1.035,-0.745
5843,-1.035,-0.710
5844,-1.015,-0.685
5845,-1.015,-0.655
5846,-1.010,-0.670
5847,-0.995,-0.680
5848,-0.980,-0.720
5849,-0.980,-0.740
5850,-0.995,-0.725
5851,-0.995,-0.745
5852,-1.010,-0.750
5853,-1.020,-0.755
5854,-1.025,-0.760
5855,-1.035,-0.765
5856,-1.015,-0.760
5857,-1.000,-0.730
5858,-1.000,-0.705
5859,-0.980,-0.665
5860,-0.980,-0.660
5861,-0.980,-0.675
5862,-0.985,-0.695
5863,-0.985,-0.720
5864,-1.000,-0.735
5865,-1.015,-0.735
5866,-1.045,-0.730
5867,-1.060,-0.740
5868,-1.075,-0.730
5869,-1.065,-0.725
5870,-1.060,-0.730
5871,-1.045,-0.720
5872,-1.040,-0.720
5873,-1.035,-0.730
5874,-1.040,-0.735
5875,-1.025,-0.735
5876,-1.045,-0.745
5877,-1.060,-0.755
5878,-1.075,-0.765
5879,-1.090,-0.765
5880,-1.090,-0.755
5881,-1.070,-0.730
5882,-1.055,-0.725
5883,-1.055,-0.720
5884,-1.070,-0.710
5885,-1.085,-0.720
5886,-1.065,-0.730
5887,-1.060,-0.755
5888,-1.055,-0.775
5889,-1.060,-0.770
5890,-1.065,-0.770
5891,-1.065,-0.765
5892,-1.070,-0.740
5893,-1.060,-0.730
5894,-1.050,-0.725
5895,-1.055,-0.725
5896,-1.050,-0.740
5897,-1.040,-0.730
5898,-1.060,-0.735
5899,-1.090,-0.760
5900,-1.115,-0.755
5901,-1.125,-0.755
5902,-1.125,-0.755
5903,-1.095,-0.750
5904,-1.095,-0.740
5905,-1.095,-0.740
5906,-1.080,-0.725
5907,-1.065,-0.725
5908,-1.065,-0.735
5909,-1.055,-0.745
5910,-1.040,-0.720
5911,-1.035,-0.710
5912,-1.000,-0.730
5913,-0.990,-0.705
5914,-0.990,-0.685
5915,-1.000,-0.685
5916,-0.990,-0.680
5917,-0.985,-0.660
5918,-0.980,-0.670
5919,-0.950,-0.655
5920,-0.925,-0.665
5921,-0.935,-0.680
5922,-0.930,-0.690
5923,-0.930,-0.730
5924,-0.910,-0.735
5925,-0.910,-0.750
5926,-0.875,-0.755
5927,-0.875,-0.740
5928,-0.870,-0.745
5929,-0.865,-0.730
5930,-0.865,-0.735
5931,-0.865,-0.725
5932,-0.845,-0.710
5933,-0.845,-0.715
5934,-0.840,-0.720
5935,-0.860,-0.735
5936,-0.875,-0.740
5937,-0.900,-0.755
5938,-0.955,-0.740
5939,-0.975,-0.735
5940,-1.005,-0.735
5941,-1.015,-0.720
5942,-1.035,-0.715
5943,-1.040,-0.720
5944,-1.055,-0.730
5945,-1.080,-0.730
5946,-1.095,-0.735
5947,-1.125,-0.755
5948,-1.165,-0.775
5949,-1.165,-0.760
5950,-1.140,-0.775
5951,-1.135,-0.770
5952,-1.120,-0.745
5953,-1.100,-0.725
5954,-1.100,-0.715
5955,-1.080,-0.695
5956,-1.065,-0.695
5957,-1.070,-0.710
5958,-1.070,-0.720
5959,-1.075,-0.740
5960,-1.090,-0.750
5961,-1.095,-0.760
5962,-1.095,-0.780
5963,-1.080,-0.805
5964,-1.055,-0.820
5965,-0.990,-0.880
5966,-0.895,-0.940
5967,-0.745,-1.025
5968,-0.515,-1.115
5969,-0.240,-1.195
5970,0.100,-1.300
5971,0.475,-1.395
5972,0.895,-1.475
5973,1.350,-1.530
5974,1.775,-1.590
5975,2.115,-1.580
5976,2.375,-1.560
5977,2.485,-1.480
5978,2.495,-1.370
5979,2.390,-1.250
5980,2.135,-1.145
5981,1.660,-1.045
5982,1.020,-0.980
5983,0.380,-0.960
5984,-0.260,-0.930
5985,-0.900,-0.910
5986,-1.540,-0.880
5987,-1.560,-0.825
5988,-1.250,-0.790
5989,-0.940,-0.765
5990,-0.760,-0.745
5991,-0.700,-0.740
5992,-0.740,-0.730
5993,-0.870,-0.720
5994,-0.990,-0.720
5995,-1.070,-0.735
5996,-1.115,-0.725
5997,-1.130,-0.720
5998,-1.110,-0.720
5999,-1.100,-0.725
6000,-1.075,-0.710
6001,-1.060,-0.705
6002,-1.055,-0.700
6003,-1.050,-0.690
6004,-1.045,-0.715
6005,-1.050,-0.715
6006,-1.045,-0.710
6007,-1.045,-0.720
6008,-1.045,-0.720
6009,-1.060,-0.715
6010,-1.050,-0.715
6011,-1.055,-0.690
6012,-1.035,-0.675
6013,-1.010,-0.665
6014,-1.000,-0.675
6015,-0.980,-0.665
6016,-0.960,-0.675
6017,-0.965,-0.690
6018,-0.975,-0.695
6019,-1.000,-0.690
6020,-1.000,-0.675
6021,-1.000,-0.670
6022,-0.975,-0.665
6023,-0.995,-0.665
6024,-0.970,-0.660
6025,-0.955,-0.670
6026,-0.940,-0.655
6027,-0.920,-0.650
6028,-0.875,-0.635
6029,-0.870,-0.635
6030,-0.870,-0.655
6031,-0.880,-0.675
6032,-0.890,-0.675
6033,-0.880,-0.675
6034,-0.875,-0.660
6035,-0.870,-0.640
6036,-0.840,-0.615
6037,-0.835,-0.600
6038,-0.780,-0.600
6039,-0.735,-0.580
6040,-0.695,-0.580
6041,-0.670,-0.575
6042,-0.640,-0.575
6043,-0.630,-0.585
6044,-0.620,-0.595
6045,-0.615,-0.585
6046,-0.595,-0.600
6047,-0.565,-0.585
6048,-0.545,-0.580
6049,-0.500,-0.555
6050,-0.455,-0.540
6051,-0.415,-0.505
6052,-0.370,-0.500
6053,-0.340,-0.495
6054,-0.335,-0.500
6055,-0.330,-0.535
6056,-0.325,-0.540
6057,-0.330,-0.550
6058,-0.345,-0.555
6059,-0.335,-0.545
6060,-0.340,-0.535
6061,-0.325,-0.520
6062,-0.300,-0.510
6063,-0.290,-0.490
6064,-0.265,-0.505
6065,-0.285,-0.535
6066,-0.295,-0.560
6067,-0.325,-0.585
6068,-0.350,-0.600
6069,-0.375,-0.605
6070,-0.415,-0.620
6071,-0.445,-0.620
6072,-0.505,-0.630
6073,-0.555,-0.620
6074,-0.585,-0.640
6075,-0.635,-0.650
6076,-0.665,-0.665
6077,-0.720,-0.665
6078,-0.800,-0.690
6079,-0.830,-0.695
6080,-0.885,-0.705
6081,-0.910,-0.715
6082,-0.935,-0.720
6083,-0.975,-0.740
6084,-0.965,-0.740
6085,-0.980,-0.745
6086,-0.985,-0.725
6087,-0.995,-0.720
6088,-1.015,-0.730
6089,-1.020,-0.725
6090,-1.025,-0.710
6091,-1.035,-0.715
6092,-1.030,-0.740
6093,-1.045,-0.740
6094,-1.065,-0.765
6095,-1.065,-0.745
6096,-1.065,-0.745
6097,-1.060,-0.725
6098,-1.065,-0.705
6099,-1.055,-0.685
6100,-1.055,-0.705
6101,-1.060,-0.735
6102,-1.065,-0.750
6103,-1.060,-0.775
6104,-1.050,-0.755
6105,-1.045,-0.765
6106,-1.045,-0.740
6107,-1.035,-0.715
6108,-1.035,-0.705
6109,-1.035,-0.710
6110,-1.040,-0.705
6111,-1.040,-0.710
6112,-1.035,-0.725
6113,-1.040,-0.740
6114,-1.045,-0.755
6115,-1.045,-0.755
6116,-1.045,-0.755
6117,-1.055,-0.745
6118,-1.060,-0.740
6119,-1.065,-0.750
6120,-1.070,-0.740
6121,-1.060,-0.735
6122,-1.045,-0.720
6123,-1.040,-0.685
6124,-1.015,-0.670
6125,-1.010,-0.705
6126,-1.010,-0.715
6127,-1.015,-0.735
6128,-1.005,-0.735
6129,-1.025,-0.750
6130,-1.030,-0.750
6131,-1.050,-0.755
6132,-1.065,-0.740
6133,-1.065,-0.735
6134,-1.045,-0.725
6135,-1.045,-0.725
6136,-1.045,-0.720
6137,-1.040,-0.720
6138,-1.050,-0.735
6139,-1.050,-0.750
6140,-1.060,-0.735
6141,-1.060,-0.740
6142,-1.070,-0.725
6143,-1.070,-0.725
6144,-1.075,-0.725
6145,-1.070,-0.730
6146,-1.095,-0.715
6147,-1.075,-0.710
6148,-1.075,-0.725
6149,-1.060,-0.735
6150,-1.055,-0.750
6151,-1.070,-0.755
6152,-1.075,-0.745
6153,-1.090,-0.745
6154,-1.100,-0.745
6155,-1.130,-0.760
6156,-1.130,-0.750
6157,-1.105,-0.750
6158,-1.095,-0.750
6159,-1.090,-0.730
6160,-1.070,-0.745
6161,-1.080,-0.730
6162,-1.085,-0.760
6163,-1.105,-0.745
6164,-1.120,-0.745
6165,-1.135,-0.735
6166,-1.135,-0.740
6167,-1.135,-0.750
6168,-1.125,-0.770
6169,-1.110,-0.745
6170,-1.105,-0.755
6171,-1.110,-0.760
6172,-1.110,-0.755
6173,-1.120,-0.745
6174,-1.145,-0.730
6175,-1.140,-0.740
6176,-1.145,-0.745
6177,-1.145,-0.725
6178,-1.135,-0.725
6179,-1.150,-0.730
6180,-1.145,-0.740
6181,-1.130,-0.735
6182,-1.120,-0.710
6183,-1.105,-0.705
6184,-1.085,-0.680
6185,-1.075,-0.695
6186,-1.080,-0.690
6187,-1.080,-0.720
6188,-1.080,-0.735
6189,-1.070,-0.730
6190,-1.060,-0.720
6191,-1.055,-0.710
6192,-1.040,-0.690
6193,-1.030,-0.685
6194,-1.030,-0.680
6195,-1.015,-0.690
6196,-1.020,-0.685
6197,-1.015,-0.665
6198,-1.005,-0.695
6199,-0.985,-0.700
6200,-0.980,-0.700
6201,-0.965,-0.715
6202,-0.945,-0.735
6203,-0.935,-0.755
6204,-0.920,-0.765
6205,-0.915,-0.730
6206,-0.905,-0.725
6207,-0.890,-0.680
6208,-0.895,-0.665
6209,-0.905,-0.640
6210,-0.925,-0.650
6211,-0.950,-0.670
6212,-0.975,-0.685
6213,-0.995,-0.710
6214,-0.995,-0.720
6215,-1.010,-0.740
6216,-1.015,-0.735
6217,-1.030,-0.740
6218,-1.045,-0.740
6219,-1.085,-0.750
6220,-1.090,-0.750
6221,-1.115,-0.755
6222,-1.130,-0.765
6223,-1.155,-0.775
6224,-1.170,-0.765
6225,-1.185,-0.750
6226,-1.195,-0.720
6227,-1.205,-0.725
6228,-1.190,-0.725
6229,-1.180,-0.740
6230,-1.180,-0.730
6231,-1.165,-0.745
6232,-1.155,-0.730
6233,-1.145,-0.730
6234,-1.145,-0.710
6235,-1.135,-0.725
6236,-1.135,-0.715
6237,-1.150,-0.700
6238,-1.140,-0.705
6239,-1.150,-0.720
6240,-1.160,-0.735
6241,-1.145,-0.795
6242,-1.105,-0.840
6243,-1.030,-0.905
6244,-0.890,-1.000
6245,-0.700,-1.075
6246,-0.440,-1.170
6247,-0.110,-1.250
6248,0.260,-1.325
6249,0.685,-1.405
6250,1.105,-1.485
6251,1.515,-1.550
6252,1.890,-1.570
6253,2.180,-1.570
6254,2.365,-1.505
6255,2.435,-1.395
6256,2.385,-1.265
6257,2.210,-1.125
6258,1.815,-1.040
6259,1.175,-0.970
6260,0.535,-0.925
6261,-0.105,-0.925
6262,-0.745,-0.885
6263,-1.385,-0.850
6264,-1.655,-0.795
6265,-1.420,-0.740
6266,-1.115,-0.695
6267,-0.875,-0.675
6268,-0.755,-0.680
6269,-0.765,-0.680
6270,-0.840,-0.705
6271,-0.970,-0.715
6272,-1.085,-0.725
6273,-1.155,-0.745
6274,-1.180,-0.730
6275,-1.175,-0.720
6276,-1.155,-0.705
6277,-1.115,-0.685
6278,-1.090,-0.665
6279,-1.085,-0.660
6280,-1.075,-0.655
6281,-1.080,-0.665
6282,-1.085,-0.675
6283,-1.115,-0.685
6284,-1.120,-0.695
6285,-1.145,-0.685
6286,-1.145,-0.685
6287,-1.120,-0.680
6288,-1.100,-0.665
6289,-1.075,-0.665
6290,-1.055,-0.670
6291,-1.035,-0.660
6292,-1.035,-0.655
6293,-1.035,-0.690
6294,-1.030,-0.695
6295,-1.020,-0.695
6296,-1.020,-0.695
6297,-1.010,-0.680
6298,-1.015,-0.665
6299,-1.020,-0.660
6300,-1.030,-0.650
6301,-1.015,-0.640
6302,-0.995,-0.625
6303,-0.995,-0.620
6304,-0.975,-0.610
6305,-0.965,-0.625
6306,-0.955,-0.640
6307,-0.935,-0.635
6308,-0.925,-0.640
6309,-0.910,-0.645
6310,-0.905,-0.640
6311,-0.910,-0.645
6312,-0.905,-0.615
6313,-0.890,-0.600
6314,-0.860,-0.600
6315,-0.810,-0.575
6316,-0.765,-0.595
6317,-0.745,-0.610
6318,-0.720,-0.630
6319,-0.705,-0.610
6320,-0.700,-0.605
6321,-0.690,-0.605
6322,-0.680,-0.600
6323,-0.665,-0.585
6324,-0.645,-0.565
6325,-0.585,-0.555
6326,-0.550,-0.540
6327,-0.525,-0.535
6328,-0.500,-0.505
6329,-0.460,-0.520
6330,-0.435,-0.530
6331,-0.430,-0.545
6332,-0.400,-0.560
6333,-0.370,-0.560
6334,-0.355,-0.550
6335,-0.335,-0.575
6336,-0.315,-0.555
6337,-0.305,-0.525
6338,-0.285,-0.515
6339,-0.285,-0.515
6340,-0.270,-0.510
6341,-0.270,-0.530
6342,-0.280,-0.555
6343,-0.295,-0.545
6344,-0.315,-0.570
6345,-0.335,-0.575
6346,-0.345,-0.580
6347,-0.370,-0.570
6348,-0.385,-0.565
6349,-0.400,-0.570
6350,-0.420,-0.575
6351,-0.455,-0.585
6352,-0.495,-0.605
6353,-0.560,-0.615
6354,-0.620,-0.610
6355,-0.660,-0.635
6356,-0.710,-0.655
6357,-0.765,-0.670
6358,-0.820,-0.680
6359,-0.880,-0.725
6360,-0.925,-0.715
6361,-0.940,-0.710
6362,-0.960,-0.685
6363,-0.965,-0.670
6364,-0.980,-0.665
6365,-0.995,-0.670
6366,-1.020,-0.680
6367,-1.045,-0.710
6368,-1.070,-0.720
6369,-1.090,-0.730
6370,-1.100,-0.730
6371,-1.105,-0.715
6372,-1.115,-0.695
6373,-1.095,-0.695
6374,-1.100,-0.700
6375,-1.085,-0.685
6376,-1.090,-0.700
6377,-1.110,-0.720
6378,-1.105,-0.715
6379,-1.120,-0.725
6380,-1.105,-0.700
6381,-1.090,-0.730
6382,-1.110,-0.720
6383,-1.125,-0.730
6384,-1.140,-0.715
6385,-1.160,-0.715
