'sample interval','MLII','V1'
'0.00277778 sec','mV','mV'
0,-0.695,-0.955
1,-0.695,-0.955
2,-0.695,-0.955
3,-0.695,-0.955
4,-0.695,-0.955
5,-0.695,-0.955
6,-0.695,-0.955
7,-0.695,-0.925
8,-0.695,-0.905
9,-0.695,-0.860
10,-0.700,-0.830
11,-0.710,-0.810
12,-0.700,-0.795
13,-0.700,-0.780
14,-0.685,-0.780
15,-0.680,-0.765
16,-0.670,-0.770
17,-0.670,-0.750
18,-0.665,-0.765
19,-0.665,-0.780
20,-0.670,-0.760
21,-0.675,-0.765
22,-0.680,-0.760
23,-0.695,-0.745
24,-0.695,-0.740
25,-0.695,-0.740
26,-0.690,-0.730
27,-0.695,-0.735
28,-0.705,-0.750
29,-0.705,-0.750
30,-0.730,-0.760
31,-0.745,-0.765
32,-0.750,-0.765
33,-0.770,-0.790
34,-0.765,-0.770
35,-0.790,-0.775
36,-0.770,-0.755
37,-0.780,-0.765
38,-0.785,-0.770
39,-0.790,-0.780
40,-0.800,-0.785
41,-0.815,-0.795
42,-0.840,-0.805
43,-0.860,-0.810
44,-0.875,-0.825
45,-0.895,-0.825
46,-0.905,-0.825
47,-0.885,-0.820
48,-0.885,-0.810
49,-0.870,-0.795
50,-0.860,-0.790
51,-0.855,-0.795
52,-0.865,-0.810
53,-0.875,-0.815
54,-0.890,-0.830
55,-0.910,-0.840
56,-0.925,-0.855
57,-0.940,-0.860
58,-0.940,-0.850
59,-0.950,-0.855
60,-0.955,-0.850
61,-0.965,-0.850
62,-0.980,-0.835
63,-0.975,-0.845
64,-0.985,-0.860
65,-1.005,-0.860
66,-1.025,-0.890
67,-1.040,-0.900
68,-1.045,-0.915
69,-1.065,-0.940
70,-1.080,-0.935
71,-1.100,-0.950
72,-1.105,-0.940
73,-1.120,-0.960
74,-1.115,-0.970
75,-1.115,-0.975
76,-1.135,-1.005
77,-1.145,-1.015
78,-1.165,-1.025
79,-1.165,-1.045
80,-1.170,-1.065
81,-1.175,-1.080
82,-1.140,-1.075
83,-1.125,-1.070
84,-1.090,-1.075
85,-1.075,-1.060
86,-1.040,-1.060
87,-1.010,-1.055
88,-1.000,-1.045
89,-0.960,-1.035
90,-0.935,-1.025
91,-0.920,-1.015
92,-0.895,-1.005
93,-0.865,-1.000
94,-0.840,-0.975
95,-0.830,-0.965
96,-0.800,-0.945
97,-0.765,-0.920
98,-0.735,-0.900
99,-0.695,-0.885
100,-0.680,-0.885
101,-0.660,-0.860
102,-0.650,-0.870
103,-0.655,-0.870
104,-0.625,-0.860
105,-0.620,-0.865
106,-0.615,-0.850
107,-0.620,-0.840
108,-0.610,-0.835
109,-0.605,-0.830
110,-0.595,-0.830
111,-0.595,-0.825
112,-0.590,-0.830
113,-0.590,-0.840
114,-0.615,-0.840
115,-0.620,-0.860
116,-0.625,-0.860
117,-0.625,-0.850
118,-0.615,-0.855
119,-0.625,-0.860
120,-0.620,-0.840
121,-0.610,-0.835
122,-0.615,-0.830
123,-0.595,-0.820
124,-0.600,-0.835
125,-0.600,-0.825
126,-0.610,-0.840
127,-0.600,-0.840
128,-0.605,-0.840
129,-0.600,-0.845
130,-0.605,-0.825
131,-0.585,-0.830
132,-0.575,-0.820
133,-0.560,-0.795
134,-0.560,-0.785
135,-0.545,-0.780
136,-0.555,-0.785
137,-0.565,-0.775
138,-0.570,-0.780
139,-0.565,-0.795
140,-0.555,-0.805
141,-0.560,-0.795
142,-0.555,-0.790
143,-0.545,-0.795
144,-0.550,-0.780
145,-0.545,-0.770
146,-0.540,-0.760
147,-0.525,-0.755
148,-0.530,-0.765
149,-0.520,-0.765
150,-0.505,-0.770
151,-0.520,-0.780
152,-0.535,-0.785
153,-0.535,-0.775
154,-0.525,-0.765
155,-0.520,-0.760
156,-0.505,-0.740
157,-0.490,-0.730
158,-0.480,-0.720
159,-0.470,-0.720
160,-0.470,-0.725
161,-0.475,-0.725
162,-0.485,-0.745
163,-0.495,-0.755
164,-0.505,-0.775
165,-0.510,-0.770
166,-0.510,-0.770
167,-0.515,-0.760
168,-0.520,-0.760
169,-0.515,-0.760
170,-0.515,-0.755
171,-0.520,-0.755
172,-0.530,-0.775
173,-0.530,-0.765
174,-0.540,-0.790
175,-0.545,-0.800
176,-0.550,-0.800
177,-0.565,-0.810
178,-0.565,-0.795
179,-0.575,-0.795
180,-0.570,-0.795
181,-0.560,-0.785
182,-0.565,-0.785
183,-0.550,-0.780
184,-0.555,-0.805
185,-0.560,-0.795
186,-0.575,-0.810
187,-0.590,-0.810
188,-0.585,-0.830
189,-0.595,-0.825
190,-0.615,-0.815
191,-0.615,-0.815
192,-0.605,-0.810
193,-0.595,-0.795
194,-0.585,-0.785
195,-0.570,-0.795
196,-0.575,-0.805
197,-0.570,-0.800
198,-0.585,-0.815
199,-0.590,-0.835
200,-0.595,-0.835
201,-0.595,-0.840
202,-0.585,-0.830
203,-0.575,-0.830
204,-0.560,-0.830
205,-0.560,-0.835
206,-0.565,-0.825
207,-0.555,-0.840
208,-0.555,-0.835
209,-0.560,-0.840
210,-0.575,-0.850
211,-0.585,-0.855
212,-0.585,-0.865
213,-0.600,-0.860
214,-0.605,-0.855
215,-0.590,-0.860
216,-0.590,-0.850
217,-0.585,-0.850
218,-0.560,-0.840
219,-0.560,-0.845
220,-0.545,-0.840
221,-0.545,-0.860
222,-0.535,-0.860
223,-0.530,-0.855
224,-0.545,-0.870
225,-0.550,-0.875
226,-0.555,-0.880
227,-0.555,-0.870
228,-0.550,-0.865
229,-0.555,-0.855
230,-0.565,-0.850
231,-0.550,-0.850
232,-0.560,-0.855
233,-0.560,-0.870
234,-0.570,-0.860
235,-0.575,-0.865
236,-0.575,-0.875
237,-0.585,-0.880
238,-0.580,-0.870
239,-0.600,-0.875
240,-0.590,-0.870
241,-0.595,-0.865
242,-0.580,-0.860
243,-0.585,-0.850
244,-0.585,-0.860
245,-0.585,-0.875
246,-0.590,-0.875
247,-0.595,-0.880
248,-0.615,-0.890
249,-0.605,-0.880
250,-0.590,-0.875
251,-0.595,-0.865
252,-0.590,-0.850
253,-0.575,-0.845
254,-0.570,-0.850
255,-0.560,-0.840
256,-0.560,-0.840
257,-0.560,-0.845
258,-0.560,-0.845
259,-0.565,-0.850
260,-0.560,-0.850
261,-0.555,-0.845
262,-0.555,-0.845
263,-0.540,-0.835
264,-0.540,-0.815
265,-0.520,-0.810
266,-0.510,-0.805
267,-0.510,-0.805
268,-0.505,-0.810
269,-0.510,-0.810
270,-0.505,-0.815
271,-0.505,-0.815
272,-0.505,-0.825
273,-0.505,-0.820
274,-0.520,-0.815
275,-0.525,-0.805
276,-0.520,-0.800
277,-0.525,-0.775
278,-0.535,-0.765
279,-0.525,-0.750
280,-0.540,-0.770
281,-0.540,-0.760
282,-0.560,-0.765
283,-0.585,-0.770
284,-0.600,-0.770
285,-0.625,-0.785
286,-0.640,-0.780
287,-0.645,-0.770
288,-0.630,-0.770
289,-0.575,-0.735
290,-0.450,-0.695
291,-0.275,-0.615
292,-0.075,-0.540
293,0.160,-0.450
294,0.410,-0.365
295,0.690,-0.295
296,0.965,-0.230
297,1.215,-0.150
298,1.435,-0.060
299,1.610,0.025
300,1.690,0.145
301,1.695,0.255
302,1.660,0.365
303,1.540,0.375
304,1.305,0.220
305,0.900,-0.125
306,0.370,-0.590
307,-0.175,-1.105
308,-0.585,-1.575
309,-0.800,-1.870
310,-0.860,-1.925
311,-0.820,-1.795
312,-0.745,-1.580
313,-0.675,-1.350
314,-0.630,-1.185
315,-0.620,-1.095
316,-0.640,-1.050
317,-0.680,-1.030
318,-0.710,-1.010
319,-0.730,-1.010
320,-0.740,-0.980
321,-0.730,-0.960
322,-0.730,-0.930
323,-0.725,-0.900
324,-0.715,-0.880
325,-0.710,-0.875
326,-0.720,-0.865
327,-0.705,-0.860
328,-0.710,-0.865
329,-0.705,-0.855
330,-0.720,-0.870
331,-0.720,-0.870
332,-0.745,-0.860
333,-0.740,-0.870
334,-0.755,-0.870
335,-0.760,-0.850
336,-0.750,-0.855
337,-0.760,-0.835
338,-0.765,-0.835
339,-0.760,-0.830
340,-0.775,-0.855
341,-0.780,-0.855
342,-0.805,-0.870
343,-0.805,-0.880
344,-0.815,-0.890
345,-0.820,-0.885
346,-0.810,-0.870
347,-0.820,-0.875
348,-0.825,-0.850
349,-0.810,-0.860
350,-0.810,-0.840
351,-0.800,-0.825
352,-0.785,-0.815
353,-0.790,-0.805
354,-0.795,-0.805
355,-0.800,-0.810
356,-0.810,-0.810
357,-0.820,-0.835
358,-0.830,-0.815
359,-0.840,-0.815
360,-0.840,-0.810
361,-0.850,-0.800
362,-0.850,-0.790
363,-0.855,-0.795
364,-0.865,-0.815
365,-0.875,-0.820
366,-0.880,-0.840
367,-0.890,-0.835
368,-0.890,-0.860
369,-0.905,-0.855
370,-0.910,-0.855
371,-0.915,-0.855
372,-0.910,-0.855
373,-0.920,-0.860
374,-0.915,-0.855
375,-0.925,-0.845
376,-0.940,-0.875
377,-0.950,-0.875
378,-0.975,-0.890
379,-0.995,-0.900
380,-1.020,-0.920
381,-1.020,-0.930
382,-1.035,-0.935
383,-1.030,-0.940
384,-1.040,-0.935
385,-1.055,-0.940
386,-1.065,-0.940
387,-1.060,-0.960
388,-1.085,-0.995
389,-1.100,-1.005
390,-1.100,-1.020
391,-1.120,-1.040
392,-1.150,-1.070
393,-1.170,-1.075
394,-1.175,-1.095
395,-1.180,-1.110
396,-1.195,-1.100
397,-1.190,-1.110
398,-1.195,-1.120
399,-1.190,-1.120
400,-1.195,-1.155
401,-1.200,-1.165
402,-1.205,-1.180
403,-1.205,-1.195
404,-1.205,-1.205
405,-1.200,-1.210
406,-1.165,-1.195
407,-1.135,-1.190
408,-1.085,-1.175
409,-1.065,-1.165
410,-1.015,-1.135
411,-0.960,-1.115
412,-0.930,-1.095
413,-0.900,-1.095
414,-0.865,-1.070
415,-0.845,-1.060
416,-0.815,-1.050
417,-0.795,-1.030
418,-0.775,-0.985
419,-0.740,-0.955
420,-0.710,-0.930
421,-0.695,-0.900
422,-0.680,-0.880
423,-0.670,-0.850
424,-0.665,-0.845
425,-0.660,-0.830
426,-0.675,-0.820
427,-0.685,-0.825
428,-0.690,-0.830
429,-0.680,-0.835
430,-0.675,-0.825
431,-0.680,-0.815
432,-0.660,-0.805
433,-0.660,-0.805
434,-0.640,-0.785
435,-0.635,-0.785
436,-0.625,-0.795
437,-0.625,-0.795
438,-0.620,-0.790
439,-0.630,-0.805
440,-0.625,-0.805
441,-0.635,-0.815
442,-0.640,-0.800
443,-0.630,-0.800
444,-0.625,-0.790
445,-0.610,-0.780
446,-0.600,-0.770
447,-0.575,-0.765
448,-0.580,-0.780
449,-0.575,-0.775
450,-0.565,-0.775
451,-0.565,-0.780
452,-0.575,-0.790
453,-0.575,-0.790
454,-0.575,-0.770
455,-0.575,-0.770
456,-0.590,-0.760
457,-0.590,-0.755
458,-0.605,-0.750
459,-0.595,-0.745
460,-0.595,-0.755
461,-0.600,-0.765
462,-0.610,-0.780
463,-0.610,-0.785
464,-0.610,-0.795
465,-0.600,-0.790
466,-0.595,-0.795
467,-0.600,-0.785
468,-0.590,-0.780
469,-0.580,-0.765
470,-0.565,-0.750
471,-0.555,-0.735
472,-0.545,-0.750
473,-0.545,-0.735
474,-0.550,-0.750
475,-0.555,-0.755
476,-0.540,-0.755
477,-0.550,-0.750
478,-0.545,-0.725
479,-0.545,-0.735
480,-0.530,-0.725
481,-0.530,-0.710
482,-0.535,-0.700
483,-0.525,-0.695
484,-0.525,-0.700
485,-0.535,-0.700
486,-0.550,-0.705
487,-0.555,-0.710
488,-0.575,-0.720
489,-0.570,-0.720
490,-0.570,-0.710
491,-0.575,-0.715
492,-0.560,-0.680
493,-0.545,-0.685
494,-0.540,-0.670
495,-0.530,-0.670
496,-0.525,-0.675
497,-0.530,-0.665
498,-0.530,-0.680
499,-0.535,-0.695
500,-0.550,-0.700
501,-0.560,-0.690
502,-0.560,-0.685
503,-0.570,-0.685
504,-0.560,-0.685
505,-0.560,-0.680
506,-0.555,-0.680
507,-0.545,-0.675
508,-0.545,-0.685
509,-0.545,-0.695
510,-0.545,-0.700
511,-0.550,-0.710
512,-0.560,-0.700
513,-0.575,-0.715
514,-0.580,-0.715
515,-0.585,-0.720
516,-0.600,-0.725
517,-0.610,-0.710
518,-0.620,-0.715
519,-0.610,-0.715
520,-0.630,-0.725
521,-0.615,-0.725
522,-0.615,-0.750
523,-0.620,-0.755
524,-0.620,-0.760
525,-0.625,-0.780
526,-0.630,-0.770
527,-0.610,-0.765
528,-0.605,-0.750
529,-0.600,-0.745
530,-0.590,-0.745
531,-0.580,-0.740
532,-0.565,-0.745
533,-0.580,-0.750
534,-0.575,-0.750
535,-0.580,-0.745
536,-0.585,-0.750
537,-0.595,-0.745
538,-0.600,-0.735
539,-0.590,-0.735
540,-0.585,-0.735
541,-0.585,-0.740
542,-0.580,-0.730
543,-0.575,-0.730
544,-0.570,-0.745
545,-0.565,-0.740
546,-0.570,-0.755
547,-0.590,-0.760
548,-0.595,-0.765
549,-0.605,-0.770
550,-0.595,-0.760
551,-0.605,-0.755
552,-0.590,-0.760
553,-0.585,-0.750
554,-0.585,-0.730
555,-0.570,-0.735
556,-0.565,-0.745
557,-0.565,-0.740
558,-0.565,-0.760
559,-0.570,-0.780
560,-0.575,-0.770
561,-0.600,-0.765
562,-0.610,-0.755
563,-0.595,-0.750
564,-0.590,-0.735
565,-0.575,-0.730
566,-0.570,-0.715
567,-0.555,-0.705
568,-0.555,-0.715
569,-0.550,-0.715
570,-0.545,-0.720
571,-0.550,-0.715
572,-0.560,-0.725
573,-0.555,-0.730
574,-0.550,-0.720
575,-0.550,-0.715
576,-0.545,-0.705
577,-0.550,-0.700
578,-0.535,-0.700
579,-0.530,-0.690
580,-0.550,-0.695
581,-0.560,-0.700
582,-0.560,-0.705
583,-0.575,-0.705
584,-0.575,-0.720
585,-0.580,-0.730
586,-0.585,-0.715
587,-0.575,-0.715
588,-0.575,-0.705
589,-0.575,-0.700
590,-0.570,-0.680
591,-0.560,-0.685
592,-0.560,-0.680
593,-0.565,-0.680
594,-0.575,-0.685
595,-0.565,-0.705
596,-0.575,-0.705
597,-0.575,-0.700
598,-0.580,-0.680
599,-0.595,-0.680
600,-0.610,-0.670
601,-0.640,-0.660
602,-0.620,-0.660
603,-0.555,-0.635
604,-0.455,-0.605
605,-0.290,-0.535
606,-0.085,-0.450
607,0.135,-0.360
608,0.400,-0.275
609,0.705,-0.185
610,1.005,-0.090
611,1.285,-0.015
612,1.525,0.065
613,1.665,0.155
614,1.735,0.265
615,1.730,0.360
616,1.650,0.430
617,1.490,0.395
618,1.210,0.210
619,0.795,-0.130
620,0.270,-0.580
621,-0.225,-1.045
622,-0.595,-1.465
623,-0.775,-1.710
624,-0.810,-1.780
625,-0.770,-1.660
626,-0.675,-1.460
627,-0.620,-1.245
628,-0.575,-1.095
629,-0.585,-1.005
630,-0.605,-0.960
631,-0.620,-0.935
632,-0.640,-0.910
633,-0.655,-0.870
634,-0.660,-0.850
635,-0.640,-0.810
636,-0.635,-0.780
637,-0.635,-0.750
638,-0.635,-0.715
639,-0.645,-0.705
640,-0.655,-0.700
641,-0.670,-0.685
642,-0.685,-0.705
643,-0.710,-0.705
644,-0.715,-0.710
645,-0.725,-0.705
646,-0.720,-0.700
647,-0.725,-0.695
648,-0.715,-0.680
649,-0.720,-0.670
650,-0.715,-0.665
651,-0.720,-0.665
652,-0.715,-0.665
653,-0.730,-0.670
654,-0.740,-0.675
655,-0.755,-0.680
656,-0.765,-0.690
657,-0.785,-0.685
658,-0.800,-0.670
659,-0.790,-0.675
660,-0.785,-0.670
661,-0.795,-0.655
662,-0.780,-0.645
663,-0.775,-0.650
664,-0.775,-0.650
665,-0.790,-0.655
666,-0.800,-0.665
667,-0.800,-0.675
668,-0.800,-0.690
669,-0.835,-0.690
670,-0.830,-0.675
671,-0.840,-0.685
672,-0.855,-0.660
673,-0.850,-0.675
674,-0.850,-0.660
675,-0.860,-0.655
676,-0.870,-0.675
677,-0.890,-0.670
678,-0.890,-0.690
679,-0.900,-0.685
680,-0.900,-0.705
681,-0.915,-0.705
682,-0.915,-0.705
683,-0.925,-0.710
684,-0.925,-0.700
685,-0.920,-0.700
686,-0.925,-0.690
687,-0.920,-0.695
688,-0.930,-0.700
689,-0.945,-0.710
690,-0.960,-0.715
691,-0.975,-0.725
692,-0.980,-0.735
693,-0.995,-0.745
694,-1.000,-0.750
695,-1.010,-0.750
696,-1.010,-0.755
697,-1.030,-0.765
698,-1.040,-0.770
699,-1.060,-0.780
700,-1.090,-0.810
701,-1.110,-0.840
702,-1.125,-0.845
703,-1.125,-0.880
704,-1.140,-0.905
705,-1.150,-0.930
706,-1.170,-0.925
707,-1.160,-0.940
708,-1.175,-0.940
709,-1.170,-0.935
710,-1.180,-0.945
711,-1.170,-0.935
712,-1.155,-0.955
713,-1.145,-0.955
714,-1.140,-0.955
715,-1.130,-0.960
716,-1.100,-0.955
717,-1.080,-0.955
718,-1.045,-0.935
719,-1.020,-0.925
720,-0.970,-0.900
721,-0.940,-0.880
722,-0.895,-0.845
723,-0.865,-0.835
724,-0.835,-0.820
725,-0.815,-0.795
726,-0.795,-0.800
727,-0.795,-0.795
728,-0.780,-0.790
729,-0.775,-0.775
730,-0.750,-0.755
731,-0.745,-0.750
732,-0.725,-0.725
733,-0.720,-0.710
734,-0.680,-0.695
735,-0.655,-0.695
736,-0.650,-0.695
737,-0.650,-0.680
738,-0.655,-0.685
739,-0.665,-0.685
740,-0.660,-0.695
741,-0.665,-0.700
742,-0.665,-0.690
743,-0.650,-0.690
744,-0.650,-0.685
745,-0.625,-0.665
746,-0.610,-0.660
747,-0.610,-0.660
748,-0.600,-0.670
749,-0.600,-0.665
750,-0.595,-0.675
751,-0.610,-0.685
752,-0.600,-0.685
753,-0.600,-0.670
754,-0.595,-0.665
755,-0.590,-0.675
756,-0.585,-0.665
757,-0.585,-0.655
758,-0.570,-0.650
759,-0.555,-0.635
760,-0.545,-0.650
761,-0.535,-0.655
762,-0.530,-0.645
763,-0.535,-0.640
764,-0.530,-0.640
765,-0.535,-0.630
766,-0.530,-0.610
767,-0.535,-0.590
768,-0.515,-0.580
769,-0.515,-0.580
770,-0.505,-0.560
771,-0.500,-0.560
772,-0.500,-0.560
773,-0.505,-0.560
774,-0.510,-0.555
775,-0.520,-0.560
776,-0.540,-0.580
777,-0.540,-0.575
778,-0.545,-0.560
779,-0.550,-0.555
780,-0.550,-0.545
781,-0.550,-0.550
782,-0.550,-0.535
783,-0.535,-0.540
784,-0.540,-0.545
785,-0.550,-0.545
786,-0.555,-0.560
787,-0.565,-0.560
788,-0.590,-0.570
789,-0.600,-0.580
790,-0.595,-0.575
791,-0.595,-0.570
792,-0.600,-0.570
793,-0.600,-0.555
794,-0.600,-0.550
795,-0.585,-0.540
796,-0.590,-0.555
797,-0.595,-0.550
798,-0.615,-0.570
799,-0.620,-0.585
800,-0.640,-0.585
801,-0.645,-0.600
802,-0.655,-0.600
803,-0.660,-0.605
804,-0.650,-0.595
805,-0.640,-0.605
806,-0.625,-0.605
807,-0.615,-0.605
808,-0.595,-0.615
809,-0.585,-0.620
810,-0.590,-0.630
811,-0.580,-0.635
812,-0.590,-0.635
813,-0.575,-0.645
814,-0.575,-0.640
815,-0.570,-0.630
816,-0.565,-0.625
817,-0.570,-0.620
818,-0.565,-0.615
819,-0.555,-0.600
820,-0.550,-0.620
821,-0.555,-0.620
822,-0.550,-0.625
823,-0.555,-0.640
824,-0.570,-0.640
825,-0.560,-0.635
826,-0.560,-0.620
827,-0.555,-0.605
828,-0.535,-0.605
829,-0.535,-0.585
830,-0.520,-0.570
831,-0.515,-0.560
832,-0.520,-0.565
833,-0.525,-0.560
834,-0.535,-0.570
835,-0.530,-0.570
836,-0.540,-0.585
837,-0.550,-0.580
838,-0.555,-0.585
839,-0.555,-0.575
840,-0.545,-0.570
841,-0.545,-0.545
842,-0.535,-0.540
843,-0.530,-0.540
844,-0.530,-0.540
845,-0.530,-0.545
846,-0.545,-0.540
847,-0.550,-0.540
848,-0.555,-0.545
849,-0.560,-0.550
850,-0.575,-0.530
851,-0.570,-0.540
852,-0.550,-0.525
853,-0.565,-0.525
854,-0.565,-0.540
855,-0.580,-0.535
856,-0.580,-0.545
857,-0.585,-0.535
858,-0.595,-0.555
859,-0.625,-0.555
860,-0.635,-0.565
861,-0.655,-0.575
862,-0.645,-0.575
863,-0.645,-0.575
864,-0.630,-0.570
865,-0.615,-0.560
866,-0.595,-0.560
867,-0.585,-0.555
868,-0.575,-0.555
869,-0.565,-0.555
870,-0.560,-0.560
871,-0.565,-0.570
872,-0.565,-0.565
873,-0.590,-0.565
874,-0.605,-0.570
875,-0.610,-0.550
876,-0.570,-0.530
877,-0.490,-0.490
878,-0.340,-0.415
879,-0.155,-0.335
880,0.050,-0.245
881,0.310,-0.150
882,0.600,-0.055
883,0.890,0.025
884,1.150,0.100
885,1.365,0.170
886,1.535,0.255
887,1.610,0.340
888,1.625,0.455
889,1.590,0.535
890,1.500,0.565
891,1.330,0.470
892,1.045,0.220
893,0.615,-0.150
894,0.100,-0.580
895,-0.345,-1.025
896,-0.635,-1.370
897,-0.770,-1.550
898,-0.765,-1.545
899,-0.705,-1.400
900,-0.620,-1.195
901,-0.565,-1.020
902,-0.535,-0.865
903,-0.530,-0.785
904,-0.555,-0.730
905,-0.580,-0.695
906,-0.615,-0.685
907,-0.625,-0.660
908,-0.645,-0.635
909,-0.660,-0.595
910,-0.665,-0.575
911,-0.670,-0.565
912,-0.675,-0.545
913,-0.680,-0.535
914,-0.680,-0.520
915,-0.695,-0.515
916,-0.700,-0.515
917,-0.705,-0.510
918,-0.735,-0.520
919,-0.760,-0.510
920,-0.765,-0.520
921,-0.785,-0.525
922,-0.805,-0.505
923,-0.815,-0.505
924,-0.820,-0.500
925,-0.805,-0.490
926,-0.800,-0.485
927,-0.800,-0.485
928,-0.800,-0.500
929,-0.800,-0.500
930,-0.805,-0.515
931,-0.810,-0.515
932,-0.810,-0.525
933,-0.815,-0.515
934,-0.805,-0.520
935,-0.785,-0.530
936,-0.790,-0.515
937,-0.780,-0.520
938,-0.765,-0.520
939,-0.770,-0.525
940,-0.760,-0.520
941,-0.745,-0.525
942,-0.760,-0.530
943,-0.760,-0.535
944,-0.775,-0.540
945,-0.770,-0.540
946,-0.775,-0.530
947,-0.780,-0.530
948,-0.780,-0.520
949,-0.770,-0.515
950,-0.765,-0.510
951,-0.755,-0.505
952,-0.775,-0.520
953,-0.785,-0.510
954,-0.795,-0.520
955,-0.800,-0.525
956,-0.815,-0.530
957,-0.835,-0.540
958,-0.835,-0.540
959,-0.850,-0.530
960,-0.855,-0.540
961,-0.860,-0.535
962,-0.870,-0.525
963,-0.865,-0.530
964,-0.880,-0.545
965,-0.895,-0.555
966,-0.905,-0.580
967,-0.920,-0.585
968,-0.955,-0.590
969,-0.960,-0.610
970,-0.980,-0.610
971,-0.990,-0.615
972,-1.000,-0.615
973,-1.000,-0.620
974,-1.010,-0.635
975,-1.020,-0.640
976,-1.030,-0.665
977,-1.035,-0.680
978,-1.065,-0.695
979,-1.085,-0.720
980,-1.115,-0.745
981,-1.130,-0.760
982,-1.135,-0.765
983,-1.145,-0.775
984,-1.145,-0.785
985,-1.140,-0.800
986,-1.120,-0.785
987,-1.105,-0.785
988,-1.100,-0.780
989,-1.090,-0.780
990,-1.065,-0.780
991,-1.065,-0.775
992,-1.050,-0.775
993,-1.000,-0.775
994,-0.970,-0.750
995,-0.940,-0.730
996,-0.905,-0.715
997,-0.880,-0.685
998,-0.835,-0.660
999,-0.770,-0.625
1000,-0.750,-0.605
1001,-0.720,-0.590
1002,-0.695,-0.585
1003,-0.685,-0.585
1004,-0.670,-0.575
1005,-0.650,-0.560
1006,-0.645,-0.545
1007,-0.615,-0.530
1008,-0.595,-0.525
1009,-0.570,-0.510
1010,-0.555,-0.500
1011,-0.540,-0.495
1012,-0.535,-0.505
1013,-0.525,-0.510
1014,-0.535,-0.505
1015,-0.540,-0.520
1016,-0.545,-0.510
1017,-0.550,-0.515
1018,-0.555,-0.505
1019,-0.550,-0.490
1020,-0.545,-0.490
1021,-0.535,-0.485
1022,-0.520,-0.470
1023,-0.535,-0.470
1024,-0.530,-0.470
1025,-0.530,-0.480
1026,-0.540,-0.490
1027,-0.545,-0.490
1028,-0.565,-0.495
1029,-0.560,-0.475
1030,-0.560,-0.480
1031,-0.560,-0.470
1032,-0.560,-0.465
1033,-0.555,-0.465
1034,-0.550,-0.455
1035,-0.565,-0.450
1036,-0.565,-0.450
1037,-0.570,-0.460
1038,-0.580,-0.465
1039,-0.585,-0.480
1040,-0.595,-0.470
1041,-0.590,-0.470
1042,-0.595,-0.455
1043,-0.585,-0.450
1044,-0.570,-0.430
1045,-0.560,-0.425
1046,-0.545,-0.420
1047,-0.565,-0.420
1048,-0.565,-0.420
1049,-0.570,-0.430
1050,-0.580,-0.440
1051,-0.580,-0.430
1052,-0.585,-0.430
1053,-0.580,-0.425
1054,-0.580,-0.420
1055,-0.570,-0.405
1056,-0.565,-0.415
1057,-0.560,-0.405
1058,-0.555,-0.410
1059,-0.555,-0.425
1060,-0.555,-0.440
1061,-0.565,-0.435
1062,-0.565,-0.440
1063,-0.575,-0.460
1064,-0.580,-0.455
1065,-0.585,-0.460
1066,-0.605,-0.460
1067,-0.605,-0.450
1068,-0.595,-0.450
1069,-0.590,-0.445
1070,-0.570,-0.445
1071,-0.555,-0.460
1072,-0.550,-0.450
1073,-0.535,-0.455
1074,-0.540,-0.465
1075,-0.545,-0.480
1076,-0.535,-0.465
1077,-0.530,-0.455
1078,-0.530,-0.445
1079,-0.520,-0.425
1080,-0.510,-0.420
1081,-0.495,-0.405
1082,-0.495,-0.400
1083,-0.480,-0.400
1084,-0.490,-0.395
1085,-0.490,-0.405
1086,-0.500,-0.405
1087,-0.505,-0.415
1088,-0.510,-0.410
1089,-0.515,-0.410
1090,-0.515,-0.400
1091,-0.520,-0.385
1092,-0.520,-0.370
1093,-0.510,-0.350
1094,-0.495,-0.340
1095,-0.495,-0.350
1096,-0.505,-0.350
1097,-0.515,-0.350
1098,-0.510,-0.360
1099,-0.515,-0.355
1100,-0.525,-0.365
1101,-0.525,-0.360
1102,-0.525,-0.350
1103,-0.525,-0.340
1104,-0.525,-0.335
1105,-0.520,-0.325
1106,-0.500,-0.310
1107,-0.505,-0.315
1108,-0.500,-0.315
1109,-0.505,-0.335
1110,-0.515,-0.340
1111,-0.525,-0.345
1112,-0.535,-0.350
1113,-0.530,-0.350
1114,-0.525,-0.355
1115,-0.525,-0.350
1116,-0.515,-0.350
1117,-0.500,-0.340
1118,-0.505,-0.330
1119,-0.505,-0.345
1120,-0.510,-0.345
1121,-0.515,-0.355
1122,-0.525,-0.370
1123,-0.540,-0.395
1124,-0.565,-0.400
1125,-0.570,-0.390
1126,-0.580,-0.395
1127,-0.585,-0.395
1128,-0.575,-0.390
1129,-0.585,-0.385
1130,-0.575,-0.380
1131,-0.575,-0.400
1132,-0.590,-0.405
1133,-0.580,-0.420
1134,-0.580,-0.430
1135,-0.580,-0.440
1136,-0.585,-0.445
1137,-0.560,-0.430
1138,-0.570,-0.425
1139,-0.555,-0.410
1140,-0.515,-0.400
1141,-0.505,-0.385
1142,-0.500,-0.395
1143,-0.490,-0.385
1144,-0.475,-0.390
1145,-0.485,-0.390
1146,-0.485,-0.400
1147,-0.490,-0.395
1148,-0.485,-0.400
1149,-0.500,-0.395
1150,-0.505,-0.380
1151,-0.515,-0.380
1152,-0.505,-0.380
1153,-0.495,-0.375
1154,-0.485,-0.365
1155,-0.490,-0.380
1156,-0.475,-0.370
1157,-0.490,-0.370
1158,-0.495,-0.375
1159,-0.500,-0.385
1160,-0.505,-0.380
1161,-0.505,-0.370
1162,-0.510,-0.365
1163,-0.495,-0.360
1164,-0.490,-0.360
1165,-0.485,-0.335
1166,-0.465,-0.340
1167,-0.465,-0.345
1168,-0.460,-0.335
1169,-0.465,-0.340
1170,-0.480,-0.365
1171,-0.495,-0.360
1172,-0.495,-0.365
1173,-0.510,-0.370
1174,-0.515,-0.365
1175,-0.510,-0.355
1176,-0.505,-0.350
1177,-0.495,-0.335
1178,-0.490,-0.340
1179,-0.485,-0.350
1180,-0.490,-0.355
1181,-0.490,-0.360
1182,-0.490,-0.365
1183,-0.505,-0.380
1184,-0.500,-0.375
1185,-0.510,-0.370
1186,-0.515,-0.365
1187,-0.505,-0.350
1188,-0.495,-0.345
1189,-0.500,-0.340
1190,-0.500,-0.340
1191,-0.520,-0.345
1192,-0.555,-0.345
1193,-0.590,-0.360
1194,-0.600,-0.370
1195,-0.550,-0.350
1196,-0.460,-0.320
1197,-0.305,-0.245
1198,-0.100,-0.145
1199,0.155,-0.030
1200,0.440,0.060
1201,0.745,0.170
1202,1.055,0.260
1203,1.330,0.345
1204,1.545,0.430
1205,1.670,0.520
1206,1.705,0.630
1207,1.690,0.725
1208,1.650,0.810
1209,1.550,0.825
1210,1.360,0.705
1211,1.055,0.430
1212,0.605,0.020
1213,0.100,-0.470
1214,-0.325,-0.945
1215,-0.605,-1.305
1216,-0.700,-1.495
1217,-0.700,-1.460
1218,-0.660,-1.305
1219,-0.600,-1.095
1220,-0.560,-0.915
1221,-0.545,-0.775
1222,-0.540,-0.665
1223,-0.555,-0.610
1224,-0.575,-0.565
1225,-0.585,-0.525
1226,-0.585,-0.490
1227,-0.595,-0.460
1228,-0.595,-0.435
1229,-0.595,-0.415
1230,-0.620,-0.405
1231,-0.630,-0.400
1232,-0.640,-0.400
1233,-0.655,-0.375
1234,-0.660,-0.365
1235,-0.680,-0.360
1236,-0.675,-0.350
1237,-0.675,-0.355
1238,-0.680,-0.335
1239,-0.675,-0.340
1240,-0.685,-0.345
1241,-0.680,-0.355
1242,-0.700,-0.365
1243,-0.715,-0.365
1244,-0.725,-0.365
1245,-0.740,-0.365
1246,-0.725,-0.370
1247,-0.740,-0.365
1248,-0.730,-0.365
1249,-0.730,-0.350
1250,-0.730,-0.345
1251,-0.735,-0.360
1252,-0.735,-0.365
1253,-0.745,-0.370
1254,-0.750,-0.380
1255,-0.770,-0.400
1256,-0.770,-0.405
1257,-0.775,-0.395
1258,-0.785,-0.410
1259,-0.815,-0.405
1260,-0.820,-0.410
1261,-0.825,-0.410
1262,-0.820,-0.405
1263,-0.820,-0.425
1264,-0.825,-0.435
1265,-0.825,-0.445
1266,-0.825,-0.450
1267,-0.835,-0.465
1268,-0.835,-0.470
1269,-0.840,-0.450
1270,-0.835,-0.465
1271,-0.840,-0.450
1272,-0.845,-0.430
1273,-0.860,-0.430
1274,-0.875,-0.415
1275,-0.860,-0.415
1276,-0.880,-0.430
1277,-0.875,-0.435
1278,-0.890,-0.440
1279,-0.915,-0.445
1280,-0.920,-0.445
1281,-0.935,-0.440
1282,-0.945,-0.435
1283,-0.955,-0.425
1284,-0.955,-0.430
1285,-0.975,-0.425
1286,-0.985,-0.435
1287,-1.005,-0.440
1288,-1.030,-0.460
1289,-1.045,-0.465
1290,-1.060,-0.500
1291,-1.075,-0.525
1292,-1.090,-0.530
1293,-1.100,-0.555
1294,-1.105,-0.555
1295,-1.125,-0.560
1296,-1.125,-0.570
1297,-1.130,-0.575
1298,-1.130,-0.585
1299,-1.135,-0.600
1300,-1.150,-0.620
1301,-1.160,-0.655
1302,-1.175,-0.660
1303,-1.175,-0.680
1304,-1.170,-0.685
1305,-1.165,-0.690
1306,-1.160,-0.680
1307,-1.125,-0.690
1308,-1.100,-0.670
1309,-1.070,-0.670
1310,-1.045,-0.655
1311,-1.015,-0.650
1312,-0.980,-0.640
1313,-0.930,-0.630
1314,-0.915,-0.630
1315,-0.895,-0.610
1316,-0.880,-0.600
1317,-0.860,-0.585
1318,-0.830,-0.560
1319,-0.800,-0.545
1320,-0.760,-0.525
1321,-0.740,-0.505
1322,-0.700,-0.485
1323,-0.675,-0.485
1324,-0.650,-0.475
1325,-0.640,-0.470
1326,-0.630,-0.470
1327,-0.625,-0.475
1328,-0.605,-0.460
1329,-0.595,-0.450
1330,-0.600,-0.435
1331,-0.565,-0.430
1332,-0.550,-0.415
1333,-0.545,-0.410
1334,-0.525,-0.400
1335,-0.525,-0.400
1336,-0.525,-0.400
1337,-0.525,-0.395
1338,-0.535,-0.385
1339,-0.550,-0.395
1340,-0.555,-0.395
1341,-0.555,-0.390
1342,-0.555,-0.400
1343,-0.555,-0.375
1344,-0.550,-0.375
1345,-0.560,-0.355
1346,-0.550,-0.345
1347,-0.550,-0.340
1348,-0.565,-0.340
1349,-0.565,-0.335
1350,-0.570,-0.330
1351,-0.575,-0.325
1352,-0.580,-0.330
1353,-0.580,-0.320
1354,-0.585,-0.305
1355,-0.575,-0.285
1356,-0.555,-0.280
1357,-0.550,-0.285
1358,-0.535,-0.265
1359,-0.545,-0.295
1360,-0.535,-0.285
1361,-0.540,-0.285
1362,-0.535,-0.290
1363,-0.540,-0.305
1364,-0.535,-0.295
1365,-0.525,-0.300
1366,-0.525,-0.295
1367,-0.520,-0.280
1368,-0.510,-0.270
1369,-0.510,-0.265
1370,-0.505,-0.265
1371,-0.500,-0.275
1372,-0.510,-0.280
1373,-0.520,-0.290
1374,-0.525,-0.305
1375,-0.545,-0.310
1376,-0.540,-0.320
1377,-0.540,-0.315
1378,-0.525,-0.310
1379,-0.505,-0.305
1380,-0.480,-0.300
1381,-0.475,-0.295
1382,-0.465,-0.290
1383,-0.450,-0.295
1384,-0.445,-0.300
1385,-0.445,-0.315
1386,-0.430,-0.310
1387,-0.435,-0.320
1388,-0.455,-0.320
1389,-0.435,-0.310
1390,-0.435,-0.315
1391,-0.430,-0.290
1392,-0.420,-0.295
1393,-0.415,-0.285
1394,-0.415,-0.285
1395,-0.410,-0.280
1396,-0.405,-0.290
1397,-0.405,-0.290
1398,-0.415,-0.290
1399,-0.420,-0.305
1400,-0.430,-0.310
1401,-0.445,-0.295
1402,-0.465,-0.300
1403,-0.485,-0.300
1404,-0.505,-0.280
1405,-0.530,-0.275
1406,-0.485,-0.240
1407,-0.375,-0.210
1408,-0.215,-0.115
1409,-0.010,-0.025
1410,0.245,0.100
1411,0.520,0.205
1412,0.820,0.285
1413,1.120,0.355
1414,1.400,0.425
1415,1.600,0.505
1416,1.730,0.600
1417,1.795,0.730
1418,1.785,0.845
1419,1.690,0.905
1420,1.535,0.855
1421,1.265,0.640
1422,0.825,0.270
1423,0.305,-0.195
1424,-0.200,-0.675
1425,-0.570,-1.070
1426,-0.755,-1.285
1427,-0.820,-1.305
1428,-0.800,-1.165
1429,-0.750,-0.975
1430,-0.690,-0.790
1431,-0.665,-0.680
1432,-0.655,-0.615
1433,-0.655,-0.580
1434,-0.665,-0.560
1435,-0.700,-0.540
1436,-0.715,-0.515
1437,-0.715,-0.480
1438,-0.715,-0.465
1439,-0.705,-0.415
1440,-0.705,-0.410
1441,-0.680,-0.395
1442,-0.670,-0.375
1443,-0.665,-0.375
1444,-0.670,-0.380
1445,-0.675,-0.370
1446,-0.670,-0.370
1447,-0.670,-0.375
1448,-0.685,-0.360
1449,-0.690,-0.355
1450,-0.680,-0.355
1451,-0.680,-0.335
1452,-0.660,-0.330
1453,-0.660,-0.315
1454,-0.645,-0.305
1455,-0.655,-0.315
1456,-0.665,-0.315
1457,-0.680,-0.320
1458,-0.690,-0.330
1459,-0.685,-0.330
1460,-0.685,-0.325
1461,-0.685,-0.320
1462,-0.690,-0.320
1463,-0.690,-0.310
1464,-0.685,-0.305
1465,-0.690,-0.300
1466,-0.695,-0.295
1467,-0.700,-0.295
1468,-0.710,-0.300
1469,-0.715,-0.305
1470,-0.720,-0.310
1471,-0.735,-0.310
1472,-0.750,-0.330
1473,-0.755,-0.320
1474,-0.765,-0.315
1475,-0.765,-0.305
1476,-0.765,-0.295
1477,-0.770,-0.305
1478,-0.770,-0.285
1479,-0.780,-0.295
1480,-0.795,-0.295
1481,-0.815,-0.290
1482,-0.830,-0.305
1483,-0.840,-0.315
1484,-0.870,-0.325
1485,-0.885,-0.320
1486,-0.905,-0.340
1487,-0.920,-0.325
1488,-0.925,-0.350
1489,-0.925,-0.335
1490,-0.940,-0.340
1491,-0.940,-0.355
1492,-0.975,-0.375
1493,-0.970,-0.380
1494,-0.980,-0.405
1495,-0.985,-0.425
1496,-0.995,-0.445
1497,-1.010,-0.440
1498,-1.020,-0.445
1499,-1.025,-0.445
1500,-1.020,-0.455
1501,-1.035,-0.455
1502,-1.030,-0.460
1503,-1.025,-0.470
1504,-1.030,-0.490
1505,-1.035,-0.500
1506,-1.035,-0.525
1507,-1.035,-0.540
1508,-1.040,-0.545
1509,-1.060,-0.550
1510,-1.055,-0.555
1511,-1.065,-0.555
1512,-1.045,-0.555
1513,-1.045,-0.550
1514,-1.025,-0.555
1515,-1.000,-0.545
1516,-0.990,-0.565
1517,-0.970,-0.555
1518,-0.955,-0.560
1519,-0.940,-0.550
1520,-0.915,-0.550
1521,-0.880,-0.540
1522,-0.845,-0.520
1523,-0.810,-0.500
1524,-0.770,-0.470
1525,-0.740,-0.460
1526,-0.730,-0.435
1527,-0.700,-0.430
1528,-0.680,-0.420
1529,-0.680,-0.415
1530,-0.670,-0.425
1531,-0.660,-0.420
1532,-0.655,-0.415
1533,-0.640,-0.400
1534,-0.625,-0.380
1535,-0.615,-0.360
1536,-0.605,-0.350
1537,-0.595,-0.350
1538,-0.595,-0.345
1539,-0.575,-0.340
1540,-0.575,-0.330
1541,-0.585,-0.335
1542,-0.580,-0.335
1543,-0.590,-0.345
1544,-0.595,-0.345
1545,-0.595,-0.330
1546,-0.610,-0.330
1547,-0.605,-0.335
1548,-0.600,-0.320
1549,-0.605,-0.320
1550,-0.585,-0.315
1551,-0.580,-0.315
1552,-0.585,-0.320
1553,-0.595,-0.320
1554,-0.595,-0.325
1555,-0.585,-0.330
1556,-0.590,-0.340
1557,-0.615,-0.330
1558,-0.610,-0.320
1559,-0.615,-0.315
1560,-0.610,-0.305
1561,-0.605,-0.305
1562,-0.595,-0.305
1563,-0.590,-0.300
1564,-0.580,-0.305
1565,-0.580,-0.315
1566,-0.565,-0.320
1567,-0.560,-0.330
1568,-0.560,-0.340
1569,-0.555,-0.325
1570,-0.535,-0.315
1571,-0.530,-0.300
1572,-0.505,-0.280
1573,-0.495,-0.270
1574,-0.505,-0.260
1575,-0.495,-0.270
1576,-0.530,-0.285
1577,-0.525,-0.290
1578,-0.540,-0.300
1579,-0.550,-0.320
1580,-0.555,-0.325
1581,-0.565,-0.325
1582,-0.575,-0.310
1583,-0.565,-0.315
1584,-0.565,-0.310
1585,-0.565,-0.300
1586,-0.555,-0.305
1587,-0.540,-0.310
1588,-0.545,-0.310
1589,-0.540,-0.315
1590,-0.550,-0.335
1591,-0.560,-0.315
1592,-0.565,-0.320
1593,-0.565,-0.315
1594,-0.565,-0.315
1595,-0.565,-0.310
1596,-0.560,-0.300
1597,-0.570,-0.300
1598,-0.565,-0.290
1599,-0.565,-0.285
1600,-0.575,-0.290
1601,-0.570,-0.305
1602,-0.580,-0.315
1603,-0.580,-0.325
1604,-0.605,-0.330
1605,-0.605,-0.335
1606,-0.600,-0.325
1607,-0.600,-0.320
1608,-0.600,-0.325
1609,-0.590,-0.315
1610,-0.585,-0.310
1611,-0.575,-0.320
1612,-0.590,-0.315
1613,-0.585,-0.335
1614,-0.610,-0.340
1615,-0.620,-0.345
1616,-0.620,-0.360
1617,-0.625,-0.355
1618,-0.630,-0.345
1619,-0.630,-0.345
1620,-0.630,-0.340
1621,-0.635,-0.330
1622,-0.645,-0.330
1623,-0.645,-0.335
1624,-0.650,-0.355
1625,-0.660,-0.375
1626,-0.670,-0.385
1627,-0.670,-0.395
1628,-0.665,-0.410
1629,-0.655,-0.390
1630,-0.640,-0.390
1631,-0.625,-0.365
1632,-0.590,-0.365
1633,-0.570,-0.355
1634,-0.560,-0.350
1635,-0.545,-0.340
1636,-0.540,-0.330
1637,-0.545,-0.330
1638,-0.535,-0.325
1639,-0.545,-0.330
1640,-0.535,-0.335
1641,-0.540,-0.330
1642,-0.545,-0.325
1643,-0.540,-0.315
1644,-0.535,-0.305
1645,-0.530,-0.305
1646,-0.520,-0.285
1647,-0.525,-0.285
1648,-0.520,-0.285
1649,-0.525,-0.290
1650,-0.540,-0.300
1651,-0.540,-0.310
1652,-0.550,-0.315
1653,-0.550,-0.310
1654,-0.565,-0.310
1655,-0.560,-0.295
1656,-0.565,-0.300
1657,-0.565,-0.290
1658,-0.580,-0.270
1659,-0.595,-0.295
1660,-0.600,-0.295
1661,-0.610,-0.310
1662,-0.625,-0.325
1663,-0.625,-0.340
1664,-0.630,-0.340
1665,-0.640,-0.330
1666,-0.635,-0.320
1667,-0.625,-0.325
1668,-0.610,-0.315
1669,-0.600,-0.320
1670,-0.595,-0.310
1671,-0.600,-0.325
1672,-0.600,-0.310
1673,-0.605,-0.330
1674,-0.615,-0.335
1675,-0.615,-0.340
1676,-0.635,-0.340
1677,-0.645,-0.355
1678,-0.640,-0.350
1679,-0.640,-0.340
1680,-0.640,-0.340
1681,-0.645,-0.335
1682,-0.635,-0.330
1683,-0.635,-0.345
1684,-0.650,-0.345
1685,-0.660,-0.355
1686,-0.655,-0.350
1687,-0.655,-0.365
1688,-0.635,-0.365
1689,-0.625,-0.360
1690,-0.605,-0.355
1691,-0.590,-0.340
1692,-0.580,-0.335
1693,-0.585,-0.310
1694,-0.580,-0.305
1695,-0.605,-0.310
1696,-0.620,-0.310
1697,-0.610,-0.300
1698,-0.555,-0.270
1699,-0.420,-0.235
1700,-0.240,-0.160
1701,-0.020,-0.045
1702,0.255,0.065
1703,0.550,0.170
1704,0.875,0.250
1705,1.190,0.335
1706,1.450,0.415
1707,1.640,0.490
1708,1.735,0.600
1709,1.760,0.700
1710,1.705,0.790
1711,1.600,0.815
1712,1.420,0.715
1713,1.100,0.465
1714,0.640,0.080
1715,0.105,-0.365
1716,-0.360,-0.810
1717,-0.660,-1.170
1718,-0.770,-1.340
1719,-0.770,-1.350
1720,-0.710,-1.190
1721,-0.660,-1.000
1722,-0.605,-0.835
1723,-0.595,-0.705
1724,-0.610,-0.625
1725,-0.645,-0.585
1726,-0.675,-0.550
1727,-0.695,-0.510
1728,-0.700,-0.475
1729,-0.715,-0.430
1730,-0.710,-0.400
1731,-0.710,-0.380
1732,-0.720,-0.350
1733,-0.740,-0.360
1734,-0.770,-0.355
1735,-0.795,-0.365
1736,-0.810,-0.370
1737,-0.820,-0.365
1738,-0.830,-0.365
1739,-0.825,-0.355
1740,-0.820,-0.345
1741,-0.815,-0.315
1742,-0.805,-0.315
1743,-0.805,-0.325
1744,-0.815,-0.310
1745,-0.795,-0.335
1746,-0.810,-0.330
1747,-0.815,-0.335
1748,-0.820,-0.340
1749,-0.825,-0.340
1750,-0.835,-0.335
1751,-0.830,-0.320
1752,-0.835,-0.315
1753,-0.835,-0.300
1754,-0.830,-0.300
1755,-0.820,-0.305
1756,-0.820,-0.305
1757,-0.820,-0.310
1758,-0.810,-0.320
1759,-0.820,-0.330
1760,-0.815,-0.325
1761,-0.840,-0.325
1762,-0.830,-0.315
1763,-0.845,-0.305
1764,-0.835,-0.305
1765,-0.835,-0.295
1766,-0.835,-0.285
1767,-0.830,-0.290
1768,-0.835,-0.295
1769,-0.845,-0.310
1770,-0.860,-0.320
1771,-0.865,-0.320
1772,-0.880,-0.330
1773,-0.885,-0.325
1774,-0.885,-0.335
1775,-0.900,-0.330
1776,-0.895,-0.325
1777,-0.905,-0.320
1778,-0.910,-0.325
1779,-0.915,-0.320
1780,-0.925,-0.335
1781,-0.950,-0.350
1782,-0.965,-0.355
1783,-0.975,-0.360
1784,-0.995,-0.385
1785,-1.000,-0.385
1786,-1.010,-0.395
1787,-1.030,-0.395
1788,-1.040,-0.400
1789,-1.055,-0.410
1790,-1.065,-0.420
1791,-1.085,-0.440
1792,-1.110,-0.465
1793,-1.130,-0.475
1794,-1.145,-0.505
1795,-1.165,-0.540
1796,-1.185,-0.565
1797,-1.210,-0.565
1798,-1.205,-0.585
1799,-1.210,-0.585
1800,-1.225,-0.595
1801,-1.225,-0.595
1802,-1.210,-0.605
1803,-1.210,-0.610
1804,-1.215,-0.615
1805,-1.215,-0.640
1806,-1.225,-0.660
1807,-1.235,-0.675
1808,-1.230,-0.685
1809,-1.240,-0.680
1810,-1.240,-0.680
1811,-1.225,-0.670
1812,-1.205,-0.660
1813,-1.195,-0.660
1814,-1.165,-0.655
1815,-1.135,-0.650
1816,-1.125,-0.640
1817,-1.095,-0.645
1818,-1.060,-0.640
1819,-1.020,-0.640
1820,-1.000,-0.625
1821,-0.975,-0.595
1822,-0.935,-0.570
1823,-0.895,-0.545
1824,-0.855,-0.515
1825,-0.825,-0.490
1826,-0.780,-0.465
1827,-0.755,-0.450
1828,-0.735,-0.425
1829,-0.720,-0.430
1830,-0.710,-0.415
1831,-0.700,-0.410
1832,-0.690,-0.400
1833,-0.675,-0.380
1834,-0.665,-0.380
1835,-0.650,-0.355
1836,-0.630,-0.340
1837,-0.620,-0.335
1838,-0.595,-0.310
1839,-0.590,-0.310
1840,-0.580,-0.310
1841,-0.590,-0.310
1842,-0.595,-0.335
1843,-0.610,-0.345
1844,-0.610,-0.345
1845,-0.615,-0.330
1846,-0.615,-0.335
1847,-0.615,-0.320
1848,-0.615,-0.320
1849,-0.620,-0.320
1850,-0.600,-0.310
1851,-0.585,-0.315
1852,-0.585,-0.320
1853,-0.580,-0.335
1854,-0.595,-0.345
1855,-0.595,-0.340
1856,-0.600,-0.345
1857,-0.610,-0.335
1858,-0.600,-0.330
1859,-0.590,-0.325
1860,-0.580,-0.305
1861,-0.575,-0.305
1862,-0.560,-0.300
1863,-0.540,-0.305
1864,-0.535,-0.295
1865,-0.535,-0.295
1866,-0.535,-0.295
1867,-0.540,-0.305
1868,-0.540,-0.300
1869,-0.550,-0.280
1870,-0.550,-0.265
1871,-0.545,-0.250
1872,-0.535,-0.240
1873,-0.540,-0.220
1874,-0.520,-0.205
1875,-0.510,-0.200
1876,-0.520,-0.195
1877,-0.520,-0.200
1878,-0.535,-0.205
1879,-0.525,-0.200
1880,-0.540,-0.200
1881,-0.530,-0.195
1882,-0.525,-0.190
1883,-0.530,-0.170
1884,-0.520,-0.160
1885,-0.525,-0.145
1886,-0.520,-0.140
1887,-0.505,-0.140
1888,-0.510,-0.130
1889,-0.520,-0.150
1890,-0.510,-0.155
1891,-0.525,-0.160
1892,-0.545,-0.170
1893,-0.555,-0.170
1894,-0.565,-0.175
1895,-0.560,-0.165
1896,-0.550,-0.155
1897,-0.545,-0.165
1898,-0.550,-0.165
1899,-0.545,-0.170
1900,-0.560,-0.185
1901,-0.570,-0.205
1902,-0.595,-0.210
1903,-0.600,-0.215
1904,-0.625,-0.235
1905,-0.630,-0.235
1906,-0.615,-0.235
1907,-0.625,-0.230
1908,-0.605,-0.235
1909,-0.605,-0.230
1910,-0.620,-0.215
1911,-0.615,-0.225
1912,-0.625,-0.240
1913,-0.600,-0.225
1914,-0.510,-0.200
1915,-0.360,-0.140
1916,-0.160,-0.040
1917,0.080,0.075
1918,0.370,0.185
1919,0.675,0.275
1920,0.995,0.355
1921,1.300,0.425
1922,1.550,0.485
1923,1.700,0.560
1924,1.745,0.655
1925,1.725,0.730
1926,1.640,0.765
1927,1.455,0.670
1928,1.130,0.410
1929,0.650,0.005
1930,0.095,-0.480
1931,-0.385,-0.930
1932,-0.685,-1.255
1933,-0.810,-1.365
1934,-0.795,-1.290
1935,-0.710,-1.100
1936,-0.635,-0.875
1937,-0.580,-0.695
1938,-0.580,-0.570
1939,-0.595,-0.510
1940,-0.635,-0.470
1941,-0.675,-0.435
1942,-0.695,-0.405
1943,-0.695,-0.365
1944,-0.680,-0.315
1945,-0.675,-0.290
1946,-0.670,-0.265
1947,-0.665,-0.255
1948,-0.675,-0.245
1949,-0.700,-0.250
1950,-0.695,-0.265
1951,-0.715,-0.255
1952,-0.730,-0.250
1953,-0.730,-0.255
1954,-0.745,-0.245
1955,-0.750,-0.245
1956,-0.745,-0.230
1957,-0.765,-0.220
1958,-0.765,-0.220
1959,-0.770,-0.225
1960,-0.775,-0.225
1961,-0.790,-0.230
1962,-0.810,-0.250
1963,-0.825,-0.235
1964,-0.845,-0.255
1965,-0.850,-0.265
1966,-0.855,-0.260
1967,-0.865,-0.265
1968,-0.865,-0.260
1969,-0.855,-0.255
1970,-0.850,-0.240
1971,-0.845,-0.260
1972,-0.850,-0.260
1973,-0.850,-0.260
1974,-0.855,-0.260
1975,-0.860,-0.265
1976,-0.860,-0.280
1977,-0.860,-0.265
1978,-0.850,-0.265
1979,-0.845,-0.260
1980,-0.840,-0.260
1981,-0.825,-0.255
1982,-0.830,-0.245
1983,-0.825,-0.240
1984,-0.830,-0.240
1985,-0.820,-0.240
1986,-0.825,-0.255
1987,-0.840,-0.250
1988,-0.845,-0.255
1989,-0.860,-0.260
1990,-0.880,-0.260
1991,-0.880,-0.250
1992,-0.870,-0.250
1993,-0.870,-0.235
1994,-0.875,-0.245
1995,-0.880,-0.245
1996,-0.880,-0.260
1997,-0.890,-0.280
1998,-0.900,-0.280
1999,-0.915,-0.300
2000,-0.935,-0.310
2001,-0.950,-0.310
2002,-0.965,-0.310
2003,-0.980,-0.315
2004,-0.985,-0.320
2005,-0.995,-0.320
2006,-1.000,-0.315
2007,-1.000,-0.330
2008,-1.015,-0.335
2009,-1.020,-0.355
2010,-1.045,-0.365
2011,-1.065,-0.375
2012,-1.090,-0.400
2013,-1.100,-0.410
2014,-1.125,-0.415
2015,-1.135,-0.415
2016,-1.150,-0.420
2017,-1.140,-0.430
2018,-1.140,-0.420
2019,-1.140,-0.440
2020,-1.135,-0.455
2021,-1.125,-0.460
2022,-1.125,-0.485
2023,-1.120,-0.490
2024,-1.105,-0.500
2025,-1.100,-0.485
2026,-1.070,-0.490
2027,-1.025,-0.465
2028,-0.975,-0.450
2029,-0.955,-0.435
2030,-0.910,-0.415
2031,-0.865,-0.405
2032,-0.840,-0.400
2033,-0.820,-0.405
2034,-0.815,-0.400
2035,-0.800,-0.395
2036,-0.785,-0.405
2037,-0.785,-0.380
2038,-0.745,-0.365
2039,-0.720,-0.360
2040,-0.700,-0.335
2041,-0.675,-0.325
2042,-0.635,-0.310
2043,-0.620,-0.300
2044,-0.615,-0.300
2045,-0.600,-0.300
2046,-0.595,-0.290
2047,-0.610,-0.300
2048,-0.605,-0.310
2049,-0.605,-0.315
2050,-0.605,-0.295
2051,-0.605,-0.300
2052,-0.605,-0.290
2053,-0.600,-0.265
2054,-0.595,-0.265
2055,-0.580,-0.265
2056,-0.585,-0.260
2057,-0.590,-0.260
2058,-0.575,-0.270
2059,-0.595,-0.275
2060,-0.610,-0.280
2061,-0.610,-0.275
2062,-0.620,-0.275
2063,-0.615,-0.270
2064,-0.605,-0.260
2065,-0.605,-0.240
2066,-0.595,-0.230
2067,-0.590,-0.235
2068,-0.585,-0.235
2069,-0.580,-0.230
2070,-0.595,-0.240
2071,-0.615,-0.250
2072,-0.620,-0.250
2073,-0.625,-0.245
2074,-0.620,-0.245
2075,-0.615,-0.235
2076,-0.620,-0.240
2077,-0.605,-0.230
2078,-0.605,-0.205
2079,-0.595,-0.225
2080,-0.605,-0.225
2081,-0.600,-0.225
2082,-0.605,-0.235
2083,-0.610,-0.250
2084,-0.610,-0.245
2085,-0.610,-0.235
2086,-0.605,-0.220
2087,-0.610,-0.230
2088,-0.600,-0.210
2089,-0.605,-0.200
2090,-0.590,-0.195
2091,-0.565,-0.190
2092,-0.570,-0.195
2093,-0.580,-0.220
2094,-0.585,-0.220
2095,-0.600,-0.225
2096,-0.600,-0.225
2097,-0.600,-0.220
2098,-0.605,-0.220
2099,-0.600,-0.215
2100,-0.585,-0.195
2101,-0.580,-0.200
2102,-0.570,-0.185
2103,-0.535,-0.190
2104,-0.535,-0.200
2105,-0.535,-0.205
2106,-0.545,-0.205
2107,-0.550,-0.205
2108,-0.565,-0.215
2109,-0.570,-0.215
2110,-0.585,-0.205
2111,-0.590,-0.200
2112,-0.575,-0.205
2113,-0.565,-0.200
2114,-0.550,-0.195
2115,-0.550,-0.220
2116,-0.555,-0.225
2117,-0.555,-0.235
2118,-0.575,-0.240
2119,-0.580,-0.240
2120,-0.585,-0.250
2121,-0.585,-0.250
2122,-0.585,-0.245
2123,-0.575,-0.230
2124,-0.575,-0.230
2125,-0.575,-0.230
2126,-0.560,-0.235
2127,-0.560,-0.225
2128,-0.570,-0.230
2129,-0.570,-0.230
2130,-0.565,-0.230
2131,-0.580,-0.230
2132,-0.585,-0.225
2133,-0.580,-0.230
2134,-0.575,-0.225
2135,-0.565,-0.225
2136,-0.560,-0.225
2137,-0.550,-0.215
2138,-0.540,-0.210
2139,-0.550,-0.215
2140,-0.545,-0.225
2141,-0.550,-0.240
2142,-0.575,-0.240
2143,-0.580,-0.245
2144,-0.590,-0.270
2145,-0.585,-0.260
2146,-0.560,-0.250
2147,-0.555,-0.250
2148,-0.550,-0.245
2149,-0.550,-0.240
2150,-0.545,-0.235
2151,-0.545,-0.235
2152,-0.550,-0.245
2153,-0.550,-0.250
2154,-0.545,-0.260
2155,-0.545,-0.260
2156,-0.555,-0.260
2157,-0.555,-0.255
2158,-0.560,-0.245
2159,-0.565,-0.240
2160,-0.560,-0.245
2161,-0.555,-0.240
2162,-0.555,-0.230
2163,-0.545,-0.235
2164,-0.540,-0.230
2165,-0.550,-0.230
2166,-0.540,-0.220
2167,-0.540,-0.230
2168,-0.545,-0.225
2169,-0.555,-0.220
2170,-0.565,-0.220
2171,-0.565,-0.225
2172,-0.545,-0.220
2173,-0.565,-0.215
2174,-0.565,-0.210
2175,-0.580,-0.215
2176,-0.565,-0.215
2177,-0.575,-0.230
2178,-0.585,-0.240
2179,-0.595,-0.255
2180,-0.600,-0.260
2181,-0.605,-0.270
2182,-0.595,-0.265
2183,-0.585,-0.250
2184,-0.575,-0.240
2185,-0.565,-0.225
2186,-0.550,-0.220
2187,-0.550,-0.215
2188,-0.550,-0.220
2189,-0.555,-0.210
2190,-0.550,-0.215
2191,-0.565,-0.210
2192,-0.585,-0.210
2193,-0.605,-0.210
2194,-0.630,-0.185
2195,-0.655,-0.185
2196,-0.645,-0.180
2197,-0.585,-0.155
2198,-0.465,-0.080
2199,-0.270,0.000
2200,-0.035,0.100
2201,0.260,0.225
2202,0.590,0.325
2203,0.935,0.415
2204,1.255,0.515
2205,1.525,0.605
2206,1.710,0.710
2207,1.775,0.845
2208,1.770,0.945
2209,1.695,1.005
2210,1.525,0.935
2211,1.200,0.665
2212,0.710,0.215
2213,0.120,-0.345
2214,-0.390,-0.895
2215,-0.710,-1.270
2216,-0.840,-1.420
2217,-0.840,-1.345
2218,-0.755,-1.130
2219,-0.665,-0.875
2220,-0.620,-0.670
2221,-0.590,-0.555
2222,-0.590,-0.475
2223,-0.605,-0.450
2224,-0.635,-0.420
2225,-0.650,-0.390
2226,-0.650,-0.375
2227,-0.670,-0.355
2228,-0.665,-0.310
2229,-0.670,-0.290
2230,-0.675,-0.280
2231,-0.685,-0.260
2232,-0.685,-0.250
2233,-0.685,-0.255
2234,-0.680,-0.230
2235,-0.685,-0.245
2236,-0.715,-0.245
2237,-0.720,-0.260
2238,-0.725,-0.265
2239,-0.735,-0.265
2240,-0.770,-0.265
2241,-0.755,-0.270
2242,-0.770,-0.245
2243,-0.770,-0.240
2244,-0.765,-0.235
2245,-0.770,-0.215
2246,-0.770,-0.215
2247,-0.785,-0.220
2248,-0.780,-0.220
2249,-0.800,-0.225
2250,-0.805,-0.240
2251,-0.815,-0.240
2252,-0.830,-0.250
2253,-0.840,-0.255
2254,-0.845,-0.255
2255,-0.840,-0.245
2256,-0.840,-0.235
2257,-0.840,-0.230
2258,-0.840,-0.235
2259,-0.835,-0.230
2260,-0.845,-0.245
2261,-0.855,-0.250
2262,-0.865,-0.255
2263,-0.875,-0.260
2264,-0.880,-0.275
2265,-0.885,-0.280
2266,-0.885,-0.280
2267,-0.890,-0.265
2268,-0.895,-0.265
2269,-0.905,-0.275
2270,-0.910,-0.265
2271,-0.915,-0.280
2272,-0.930,-0.295
2273,-0.950,-0.315
2274,-0.985,-0.330
2275,-0.995,-0.355
2276,-1.005,-0.375
2277,-1.025,-0.375
2278,-1.020,-0.370
2279,-1.015,-0.380
2280,-1.025,-0.375
2281,-1.030,-0.380
2282,-1.030,-0.380
2283,-1.035,-0.395
2284,-1.055,-0.420
2285,-1.075,-0.440
2286,-1.090,-0.460
2287,-1.110,-0.480
2288,-1.125,-0.500
2289,-1.150,-0.515
2290,-1.165,-0.525
2291,-1.185,-0.535
2292,-1.190,-0.555
2293,-1.190,-0.545
2294,-1.190,-0.540
2295,-1.190,-0.560
2296,-1.200,-0.570
2297,-1.210,-0.585
2298,-1.215,-0.600
2299,-1.215,-0.620
2300,-1.220,-0.640
2301,-1.210,-0.640
2302,-1.195,-0.625
2303,-1.175,-0.625
2304,-1.160,-0.610
2305,-1.125,-0.600
2306,-1.095,-0.590
2307,-1.065,-0.575
2308,-1.035,-0.575
2309,-0.985,-0.560
2310,-0.955,-0.555
2311,-0.930,-0.535
2312,-0.900,-0.515
2313,-0.865,-0.495
2314,-0.830,-0.465
2315,-0.810,-0.440
2316,-0.780,-0.430
2317,-0.745,-0.405
2318,-0.700,-0.375
2319,-0.685,-0.360
2320,-0.655,-0.345
2321,-0.645,-0.335
2322,-0.630,-0.340
2323,-0.630,-0.330
2324,-0.630,-0.330
2325,-0.620,-0.320
2326,-0.620,-0.300
2327,-0.615,-0.315
2328,-0.605,-0.290
2329,-0.590,-0.295
2330,-0.585,-0.290
2331,-0.580,-0.275
2332,-0.580,-0.290
2333,-0.580,-0.300
2334,-0.585,-0.310
2335,-0.585,-0.305
2336,-0.595,-0.315
2337,-0.615,-0.315
2338,-0.610,-0.320
2339,-0.610,-0.320
2340,-0.595,-0.305
2341,-0.580,-0.295
2342,-0.565,-0.285
2343,-0.545,-0.285
2344,-0.545,-0.290
2345,-0.545,-0.285
2346,-0.550,-0.280
2347,-0.555,-0.295
2348,-0.555,-0.290
2349,-0.555,-0.290
2350,-0.550,-0.280
2351,-0.550,-0.265
2352,-0.545,-0.250
2353,-0.535,-0.235
2354,-0.530,-0.235
2355,-0.515,-0.225
2356,-0.510,-0.225
2357,-0.510,-0.210
2358,-0.515,-0.215
2359,-0.520,-0.215
2360,-0.530,-0.215
2361,-0.530,-0.220
2362,-0.525,-0.190
2363,-0.525,-0.175
2364,-0.515,-0.165
2365,-0.505,-0.155
2366,-0.505,-0.145
2367,-0.490,-0.140
2368,-0.490,-0.150
2369,-0.485,-0.145
2370,-0.500,-0.155
2371,-0.510,-0.155
2372,-0.510,-0.150
2373,-0.500,-0.160
2374,-0.495,-0.155
2375,-0.495,-0.160
2376,-0.480,-0.135
2377,-0.485,-0.135
2378,-0.465,-0.130
2379,-0.465,-0.135
2380,-0.475,-0.135
2381,-0.475,-0.135
2382,-0.480,-0.155
2383,-0.495,-0.165
2384,-0.505,-0.175
2385,-0.500,-0.170
2386,-0.510,-0.160
2387,-0.490,-0.160
2388,-0.500,-0.165
2389,-0.510,-0.165
2390,-0.510,-0.170
2391,-0.510,-0.165
2392,-0.510,-0.185
2393,-0.515,-0.180
2394,-0.520,-0.200
2395,-0.535,-0.205
2396,-0.540,-0.220
2397,-0.550,-0.205
2398,-0.545,-0.195
2399,-0.555,-0.200
2400,-0.550,-0.195
2401,-0.545,-0.185
2402,-0.550,-0.180
2403,-0.545,-0.195
2404,-0.550,-0.190
2405,-0.555,-0.200
2406,-0.565,-0.210
2407,-0.580,-0.215
2408,-0.570,-0.230
2409,-0.580,-0.205
2410,-0.575,-0.210
2411,-0.565,-0.205
2412,-0.570,-0.190
2413,-0.570,-0.190
2414,-0.550,-0.185
2415,-0.545,-0.195
2416,-0.545,-0.205
2417,-0.545,-0.210
2418,-0.550,-0.215
2419,-0.565,-0.240
2420,-0.560,-0.250
2421,-0.565,-0.250
2422,-0.560,-0.255
2423,-0.565,-0.245
2424,-0.550,-0.240
2425,-0.555,-0.230
2426,-0.555,-0.225
2427,-0.560,-0.240
2428,-0.555,-0.235
2429,-0.545,-0.245
2430,-0.540,-0.260
2431,-0.550,-0.270
2432,-0.555,-0.260
2433,-0.555,-0.265
2434,-0.550,-0.260
2435,-0.545,-0.265
2436,-0.550,-0.255
2437,-0.530,-0.255
2438,-0.520,-0.250
2439,-0.505,-0.245
2440,-0.510,-0.255
2441,-0.515,-0.260
2442,-0.520,-0.270
2443,-0.515,-0.270
2444,-0.510,-0.280
2445,-0.520,-0.280
2446,-0.525,-0.280
2447,-0.525,-0.280
2448,-0.530,-0.260
2449,-0.520,-0.265
2450,-0.515,-0.265
2451,-0.505,-0.275
2452,-0.510,-0.280
2453,-0.530,-0.280
2454,-0.545,-0.280
2455,-0.550,-0.290
2456,-0.540,-0.280
2457,-0.535,-0.280
2458,-0.535,-0.260
2459,-0.535,-0.250
2460,-0.530,-0.245
2461,-0.535,-0.245
2462,-0.545,-0.250
2463,-0.545,-0.250
2464,-0.590,-0.255
2465,-0.615,-0.265
2466,-0.640,-0.270
2467,-0.635,-0.250
2468,-0.570,-0.225
2469,-0.435,-0.150
2470,-0.245,-0.060
2471,0.005,0.040
2472,0.325,0.155
2473,0.655,0.255
2474,0.985,0.340
2475,1.300,0.415
2476,1.555,0.485
2477,1.710,0.595
2478,1.775,0.700
2479,1.750,0.805
2480,1.655,0.835
2481,1.440,0.725
2482,1.100,0.450
2483,0.595,0.015
2484,0.025,-0.495
2485,-0.455,-0.980
2486,-0.745,-1.315
2487,-0.875,-1.410
2488,-0.830,-1.335
2489,-0.760,-1.120
2490,-0.680,-0.915
2491,-0.625,-0.740
2492,-0.615,-0.630
2493,-0.630,-0.570
2494,-0.645,-0.535
2495,-0.675,-0.495
2496,-0.675,-0.465
2497,-0.690,-0.440
2498,-0.675,-0.390
2499,-0.670,-0.365
2500,-0.675,-0.360
2501,-0.690,-0.340
2502,-0.705,-0.350
2503,-0.705,-0.345
2504,-0.730,-0.355
2505,-0.730,-0.355
2506,-0.720,-0.355
2507,-0.720,-0.340
2508,-0.710,-0.325
2509,-0.720,-0.320
2510,-0.725,-0.300
2511,-0.715,-0.305
2512,-0.730,-0.300
2513,-0.730,-0.305
2514,-0.740,-0.305
2515,-0.750,-0.310
2516,-0.765,-0.310
2517,-0.765,-0.305
2518,-0.755,-0.310
2519,-0.760,-0.300
2520,-0.760,-0.290
2521,-0.770,-0.290
2522,-0.770,-0.270
2523,-0.790,-0.275
2524,-0.800,-0.285
2525,-0.820,-0.295
2526,-0.830,-0.310
2527,-0.860,-0.325
2528,-0.865,-0.340
2529,-0.880,-0.335
2530,-0.895,-0.335
2531,-0.890,-0.345
2532,-0.880,-0.345
2533,-0.895,-0.330
2534,-0.885,-0.320
2535,-0.870,-0.330
2536,-0.875,-0.340
2537,-0.890,-0.335
2538,-0.895,-0.350
2539,-0.910,-0.375
2540,-0.925,-0.375
2541,-0.945,-0.380
2542,-0.950,-0.375
2543,-0.955,-0.385
2544,-0.965,-0.380
2545,-0.970,-0.370
2546,-0.960,-0.365
2547,-0.960,-0.385
2548,-0.960,-0.385
2549,-0.955,-0.405
2550,-0.985,-0.415
2551,-1.005,-0.425
2552,-1.025,-0.440
2553,-1.035,-0.445
2554,-1.055,-0.450
2555,-1.070,-0.455
2556,-1.080,-0.470
2557,-1.070,-0.470
2558,-1.080,-0.470
2559,-1.095,-0.475
2560,-1.105,-0.500
2561,-1.115,-0.520
2562,-1.125,-0.530
2563,-1.135,-0.555
2564,-1.160,-0.575
2565,-1.180,-0.580
2566,-1.195,-0.585
2567,-1.205,-0.595
2568,-1.215,-0.600
2569,-1.230,-0.615
2570,-1.245,-0.610
2571,-1.220,-0.630
2572,-1.230,-0.640
2573,-1.225,-0.645
2574,-1.220,-0.660
2575,-1.215,-0.665
2576,-1.190,-0.665
2577,-1.160,-0.670
2578,-1.135,-0.640
2579,-1.095,-0.625
2580,-1.060,-0.605
2581,-1.030,-0.585
2582,-1.000,-0.565
2583,-0.960,-0.540
2584,-0.925,-0.550
2585,-0.910,-0.530
2586,-0.870,-0.520
2587,-0.860,-0.505
2588,-0.835,-0.505
2589,-0.820,-0.490
2590,-0.790,-0.465
2591,-0.780,-0.450
2592,-0.755,-0.430
2593,-0.730,-0.415
2594,-0.710,-0.390
2595,-0.700,-0.380
2596,-0.690,-0.385
2597,-0.680,-0.375
2598,-0.670,-0.375
2599,-0.665,-0.375
2600,-0.665,-0.375
2601,-0.660,-0.375
2602,-0.650,-0.370
2603,-0.640,-0.360
2604,-0.625,-0.350
2605,-0.625,-0.340
2606,-0.610,-0.335
2607,-0.610,-0.315
2608,-0.605,-0.330
2609,-0.610,-0.335
2610,-0.615,-0.325
2611,-0.620,-0.325
2612,-0.615,-0.330
2613,-0.615,-0.330
2614,-0.610,-0.305
2615,-0.620,-0.305
2616,-0.615,-0.305
2617,-0.600,-0.295
2618,-0.585,-0.300
2619,-0.590,-0.300
2620,-0.580,-0.305
2621,-0.575,-0.305
2622,-0.590,-0.310
2623,-0.575,-0.320
2624,-0.585,-0.325
2625,-0.590,-0.320
2626,-0.585,-0.315
2627,-0.585,-0.315
2628,-0.575,-0.280
2629,-0.575,-0.260
2630,-0.565,-0.250
2631,-0.555,-0.250
2632,-0.560,-0.260
2633,-0.545,-0.250
2634,-0.555,-0.265
2635,-0.565,-0.265
2636,-0.570,-0.265
2637,-0.575,-0.260
2638,-0.590,-0.260
2639,-0.600,-0.255
2640,-0.585,-0.260
2641,-0.595,-0.255
2642,-0.590,-0.245
2643,-0.575,-0.245
2644,-0.570,-0.260
2645,-0.560,-0.260
2646,-0.575,-0.275
2647,-0.570,-0.280
2648,-0.580,-0.300
2649,-0.595,-0.300
2650,-0.585,-0.295
2651,-0.595,-0.290
2652,-0.580,-0.285
2653,-0.585,-0.270
2654,-0.580,-0.270
2655,-0.575,-0.275
2656,-0.590,-0.280
2657,-0.590,-0.290
2658,-0.600,-0.285
2659,-0.615,-0.310
2660,-0.625,-0.320
2661,-0.610,-0.325
2662,-0.630,-0.310
2663,-0.625,-0.320
2664,-0.620,-0.310
2665,-0.605,-0.300
2666,-0.605,-0.295
2667,-0.610,-0.295
2668,-0.605,-0.305
2669,-0.605,-0.315
2670,-0.625,-0.325
2671,-0.625,-0.335
2672,-0.625,-0.340
2673,-0.620,-0.345
2674,-0.610,-0.355
2675,-0.600,-0.335
2676,-0.585,-0.330
2677,-0.595,-0.320
2678,-0.570,-0.315
2679,-0.575,-0.300
2680,-0.585,-0.320
2681,-0.570,-0.320
2682,-0.580,-0.340
2683,-0.585,-0.355
2684,-0.600,-0.350
2685,-0.600,-0.360
2686,-0.600,-0.350
2687,-0.600,-0.345
2688,-0.600,-0.335
2689,-0.595,-0.335
2690,-0.590,-0.330
2691,-0.575,-0.320
2692,-0.570,-0.335
2693,-0.570,-0.330
2694,-0.560,-0.335
2695,-0.565,-0.355
2696,-0.570,-0.355
2697,-0.580,-0.365
2698,-0.585,-0.345
2699,-0.585,-0.350
2700,-0.575,-0.345
2701,-0.555,-0.335
2702,-0.565,-0.335
2703,-0.550,-0.335
2704,-0.560,-0.330
2705,-0.550,-0.340
2706,-0.560,-0.340
2707,-0.560,-0.350
2708,-0.585,-0.360
2709,-0.600,-0.360
2710,-0.630,-0.345
2711,-0.630,-0.340
2712,-0.625,-0.320
2713,-0.585,-0.290
2714,-0.485,-0.235
2715,-0.325,-0.150
2716,-0.110,-0.055
2717,0.125,0.030
2718,0.420,0.115
2719,0.730,0.200
2720,1.025,0.265
2721,1.305,0.340
2722,1.520,0.420
2723,1.670,0.530
2724,1.710,0.640
2725,1.705,0.745
2726,1.640,0.795
2727,1.480,0.710
2728,1.205,0.470
2729,0.785,0.110
2730,0.265,-0.325
2731,-0.285,-0.790
2732,-0.675,-1.180
2733,-0.875,-1.400
2734,-0.900,-1.425
2735,-0.870,-1.300
2736,-0.775,-1.105
2737,-0.720,-0.895
2738,-0.690,-0.750
2739,-0.675,-0.655
2740,-0.700,-0.620
2741,-0.730,-0.580
2742,-0.760,-0.555
2743,-0.780,-0.535
2744,-0.785,-0.520
2745,-0.790,-0.480
2746,-0.780,-0.455
2747,-0.775,-0.425
2748,-0.770,-0.400
2749,-0.760,-0.390
2750,-0.755,-0.380
2751,-0.760,-0.375
2752,-0.760,-0.375
2753,-0.755,-0.385
2754,-0.760,-0.385
2755,-0.770,-0.385
2756,-0.770,-0.400
2757,-0.790,-0.395
2758,-0.775,-0.385
2759,-0.790,-0.380
2760,-0.775,-0.365
2761,-0.785,-0.365
2762,-0.780,-0.345
2763,-0.775,-0.350
2764,-0.780,-0.355
2765,-0.795,-0.350
2766,-0.795,-0.360
2767,-0.815,-0.365
2768,-0.820,-0.375
2769,-0.830,-0.385
2770,-0.825,-0.375
2771,-0.840,-0.375
2772,-0.825,-0.365
2773,-0.835,-0.355
2774,-0.845,-0.355
2775,-0.845,-0.345
2776,-0.855,-0.355
2777,-0.860,-0.355
2778,-0.870,-0.370
2779,-0.875,-0.375
2780,-0.890,-0.380
2781,-0.890,-0.395
2782,-0.895,-0.380
2783,-0.910,-0.375
2784,-0.900,-0.360
2785,-0.910,-0.350
2786,-0.900,-0.330
2787,-0.905,-0.345
2788,-0.910,-0.350
2789,-0.920,-0.350
2790,-0.940,-0.365
2791,-0.965,-0.375
2792,-0.975,-0.380
2793,-0.990,-0.385
2794,-0.995,-0.390
2795,-1.010,-0.380
2796,-1.005,-0.380
2797,-1.005,-0.380
2798,-1.005,-0.370
2799,-1.010,-0.375
2800,-1.010,-0.385
2801,-1.035,-0.395
2802,-1.055,-0.410
2803,-1.070,-0.420
2804,-1.100,-0.445
2805,-1.110,-0.455
2806,-1.120,-0.465
2807,-1.125,-0.480
2808,-1.140,-0.485
2809,-1.150,-0.490
2810,-1.150,-0.495
2811,-1.155,-0.505
2812,-1.150,-0.535
2813,-1.155,-0.560
2814,-1.180,-0.565
2815,-1.205,-0.605
2816,-1.215,-0.610
2817,-1.235,-0.630
2818,-1.245,-0.635
2819,-1.235,-0.635
2820,-1.225,-0.635
2821,-1.205,-0.650
2822,-1.190,-0.645
2823,-1.165,-0.635
2824,-1.145,-0.650
2825,-1.135,-0.640
2826,-1.115,-0.645
2827,-1.100,-0.640
2828,-1.070,-0.635
2829,-1.055,-0.630
2830,-1.020,-0.610
2831,-1.015,-0.595
2832,-0.970,-0.565
2833,-0.925,-0.555
2834,-0.905,-0.530
2835,-0.875,-0.505
2836,-0.865,-0.500
2837,-0.855,-0.485
2838,-0.840,-0.485
2839,-0.840,-0.480
2840,-0.835,-0.480
2841,-0.840,-0.470
2842,-0.810,-0.465
2843,-0.800,-0.450
2844,-0.765,-0.415
2845,-0.765,-0.415
2846,-0.745,-0.400
2847,-0.740,-0.395
2848,-0.740,-0.390
2849,-0.725,-0.405
2850,-0.725,-0.395
2851,-0.735,-0.405
2852,-0.735,-0.390
2853,-0.725,-0.405
2854,-0.720,-0.390
2855,-0.700,-0.375
2856,-0.685,-0.360
2857,-0.680,-0.345
2858,-0.660,-0.340
2859,-0.650,-0.330
2860,-0.650,-0.335
2861,-0.635,-0.325
2862,-0.630,-0.325
2863,-0.630,-0.335
2864,-0.635,-0.335
2865,-0.630,-0.340
2866,-0.620,-0.335
2867,-0.635,-0.330
2868,-0.635,-0.330
2869,-0.610,-0.320
2870,-0.590,-0.315
2871,-0.575,-0.310
2872,-0.560,-0.315
2873,-0.555,-0.310
2874,-0.550,-0.320
2875,-0.555,-0.335
2876,-0.550,-0.335
2877,-0.550,-0.330
2878,-0.560,-0.325
2879,-0.545,-0.310
2880,-0.545,-0.295
2881,-0.535,-0.295
2882,-0.525,-0.275
2883,-0.525,-0.275
2884,-0.510,-0.290
2885,-0.525,-0.285
2886,-0.540,-0.300
2887,-0.550,-0.300
2888,-0.570,-0.310
2889,-0.575,-0.300
2890,-0.570,-0.300
2891,-0.575,-0.300
2892,-0.580,-0.290
2893,-0.595,-0.285
2894,-0.590,-0.280
2895,-0.595,-0.285
2896,-0.595,-0.290
2897,-0.610,-0.275
2898,-0.615,-0.295
2899,-0.635,-0.305
2900,-0.645,-0.320
2901,-0.665,-0.325
2902,-0.680,-0.315
2903,-0.665,-0.315
2904,-0.680,-0.310
2905,-0.670,-0.305
2906,-0.685,-0.305
2907,-0.665,-0.300
2908,-0.675,-0.315
2909,-0.685,-0.310
2910,-0.685,-0.335
2911,-0.710,-0.340
2912,-0.705,-0.345
2913,-0.720,-0.355
2914,-0.720,-0.340
2915,-0.705,-0.335
2916,-0.695,-0.335
2917,-0.675,-0.330
2918,-0.660,-0.320
2919,-0.660,-0.320
2920,-0.665,-0.320
2921,-0.665,-0.325
2922,-0.675,-0.335
2923,-0.675,-0.335
2924,-0.680,-0.345
2925,-0.685,-0.335
2926,-0.670,-0.320
2927,-0.650,-0.330
2928,-0.640,-0.325
2929,-0.620,-0.310
2930,-0.610,-0.315
2931,-0.590,-0.305
2932,-0.590,-0.305
2933,-0.585,-0.320
2934,-0.585,-0.340
2935,-0.590,-0.345
2936,-0.585,-0.355
2937,-0.595,-0.355
2938,-0.585,-0.340
2939,-0.580,-0.335
2940,-0.575,-0.335
2941,-0.565,-0.325
2942,-0.545,-0.320
2943,-0.545,-0.315
2944,-0.545,-0.330
2945,-0.555,-0.315
2946,-0.555,-0.335
2947,-0.575,-0.335
2948,-0.585,-0.350
2949,-0.590,-0.355
2950,-0.600,-0.345
2951,-0.600,-0.355
2952,-0.605,-0.340
2953,-0.600,-0.340
2954,-0.605,-0.335
2955,-0.625,-0.340
2956,-0.635,-0.350
2957,-0.655,-0.350
2958,-0.665,-0.370
2959,-0.685,-0.375
2960,-0.700,-0.385
2961,-0.705,-0.390
2962,-0.715,-0.395
2963,-0.725,-0.390
2964,-0.720,-0.395
2965,-0.735,-0.400
2966,-0.735,-0.400
2967,-0.720,-0.380
2968,-0.715,-0.400
2969,-0.705,-0.385
2970,-0.705,-0.380
2971,-0.715,-0.380
2972,-0.710,-0.390
2973,-0.710,-0.400
2974,-0.720,-0.385
2975,-0.715,-0.380
2976,-0.710,-0.365
2977,-0.685,-0.350
2978,-0.670,-0.350
2979,-0.635,-0.340
2980,-0.635,-0.340
2981,-0.630,-0.350
2982,-0.645,-0.340
2983,-0.640,-0.355
2984,-0.640,-0.355
2985,-0.645,-0.375
2986,-0.630,-0.350
2987,-0.635,-0.350
2988,-0.610,-0.335
2989,-0.595,-0.325
2990,-0.580,-0.315
2991,-0.570,-0.305
2992,-0.565,-0.315
2993,-0.565,-0.315
2994,-0.570,-0.325
2995,-0.580,-0.335
2996,-0.615,-0.330
2997,-0.645,-0.320
2998,-0.660,-0.320
2999,-0.625,-0.295
3000,-0.520,-0.245
3001,-0.370,-0.170
3002,-0.165,-0.075
3003,0.085,0.015
3004,0.350,0.090
3005,0.650,0.195
3006,0.955,0.255
3007,1.235,0.325
3008,1.470,0.390
3009,1.635,0.465
3010,1.730,0.565
3011,1.750,0.670
3012,1.705,0.780
3013,1.620,0.800
3014,1.505,0.715
3015,1.270,0.495
3016,0.885,0.130
3017,0.360,-0.295
3018,-0.175,-0.740
3019,-0.605,-1.140
3020,-0.850,-1.400
3021,-0.925,-1.485
3022,-0.895,-1.390
3023,-0.840,-1.215
3024,-0.775,-1.010
3025,-0.730,-0.850
3026,-0.715,-0.725
3027,-0.735,-0.665
3028,-0.765,-0.610
3029,-0.790,-0.580
3030,-0.820,-0.555
3031,-0.830,-0.525
3032,-0.850,-0.505
3033,-0.850,-0.480
3034,-0.840,-0.460
3035,-0.835,-0.430
3036,-0.830,-0.405
3037,-0.825,-0.375
3038,-0.815,-0.360
3039,-0.810,-0.355
3040,-0.820,-0.360
3041,-0.835,-0.350
3042,-0.835,-0.355
3043,-0.855,-0.360
3044,-0.860,-0.370
3045,-0.870,-0.370
3046,-0.885,-0.365
3047,-0.870,-0.365
3048,-0.875,-0.365
3049,-0.860,-0.350
3050,-0.850,-0.345
3051,-0.855,-0.345
3052,-0.840,-0.345
3053,-0.850,-0.345
3054,-0.860,-0.365
3055,-0.870,-0.365
3056,-0.875,-0.370
3057,-0.870,-0.380
3058,-0.880,-0.385
3059,-0.875,-0.370
3060,-0.885,-0.350
3061,-0.880,-0.350
3062,-0.875,-0.355
3063,-0.880,-0.365
3064,-0.890,-0.370
3065,-0.900,-0.375
3066,-0.905,-0.385
3067,-0.905,-0.395
3068,-0.910,-0.390
3069,-0.910,-0.400
3070,-0.930,-0.390
3071,-0.935,-0.380
3072,-0.935,-0.370
3073,-0.940,-0.375
3074,-0.945,-0.385
3075,-0.945,-0.380
3076,-0.955,-0.395
3077,-0.965,-0.405
3078,-0.980,-0.415
3079,-0.985,-0.430
3080,-1.000,-0.420
3081,-1.005,-0.435
3082,-1.020,-0.430
3083,-1.025,-0.420
3084,-1.035,-0.425
3085,-1.040,-0.415
3086,-1.025,-0.420
3087,-1.050,-0.415
3088,-1.060,-0.430
3089,-1.080,-0.435
3090,-1.110,-0.460
3091,-1.125,-0.470
3092,-1.165,-0.480
3093,-1.175,-0.495
3094,-1.175,-0.505
3095,-1.190,-0.505
3096,-1.195,-0.510
3097,-1.205,-0.530
3098,-1.215,-0.535
3099,-1.215,-0.540
3100,-1.225,-0.570
3101,-1.245,-0.585
3102,-1.265,-0.600
3103,-1.285,-0.630
3104,-1.315,-0.640
3105,-1.325,-0.665
3106,-1.340,-0.670
3107,-1.340,-0.675
3108,-1.330,-0.680
3109,-1.325,-0.685
3110,-1.320,-0.695
3111,-1.300,-0.690
3112,-1.285,-0.715
3113,-1.275,-0.720
3114,-1.250,-0.715
3115,-1.215,-0.730
3116,-1.205,-0.725
3117,-1.175,-0.715
3118,-1.155,-0.695
3119,-1.130,-0.670
3120,-1.085,-0.660
3121,-1.040,-0.625
3122,-1.000,-0.620
3123,-0.955,-0.585
3124,-0.905,-0.585
3125,-0.885,-0.550
3126,-0.875,-0.555
3127,-0.850,-0.540
3128,-0.840,-0.545
3129,-0.825,-0.525
3130,-0.810,-0.515
3131,-0.790,-0.495
3132,-0.770,-0.475
3133,-0.755,-0.465
3134,-0.735,-0.445
3135,-0.735,-0.425
3136,-0.720,-0.430
3137,-0.715,-0.430
3138,-0.715,-0.430
3139,-0.710,-0.425
3140,-0.705,-0.415
3141,-0.705,-0.415
3142,-0.700,-0.415
3143,-0.695,-0.405
3144,-0.690,-0.400
3145,-0.680,-0.385
3146,-0.675,-0.370
3147,-0.660,-0.370
3148,-0.655,-0.380
3149,-0.655,-0.380
3150,-0.675,-0.390
3151,-0.665,-0.405
3152,-0.665,-0.400
3153,-0.665,-0.405
3154,-0.670,-0.395
3155,-0.665,-0.395
3156,-0.655,-0.375
3157,-0.640,-0.370
3158,-0.625,-0.350
3159,-0.625,-0.340
3160,-0.620,-0.350
3161,-0.610,-0.345
3162,-0.610,-0.335
3163,-0.600,-0.345
3164,-0.610,-0.340
3165,-0.605,-0.340
3166,-0.615,-0.325
3167,-0.600,-0.315
3168,-0.605,-0.305
3169,-0.600,-0.290
3170,-0.600,-0.290
3171,-0.595,-0.285
3172,-0.600,-0.290
3173,-0.595,-0.275
3174,-0.590,-0.285
3175,-0.595,-0.285
3176,-0.600,-0.275
3177,-0.600,-0.285
3178,-0.605,-0.280
3179,-0.600,-0.265
3180,-0.600,-0.260
3181,-0.600,-0.250
3182,-0.595,-0.245
3183,-0.590,-0.240
3184,-0.600,-0.250
3185,-0.600,-0.255
3186,-0.605,-0.260
3187,-0.615,-0.270
3188,-0.615,-0.270
3189,-0.625,-0.265
3190,-0.625,-0.285
3191,-0.615,-0.270
3192,-0.615,-0.265
3193,-0.610,-0.265
3194,-0.595,-0.265
3195,-0.600,-0.270
3196,-0.590,-0.285
3197,-0.605,-0.285
3198,-0.605,-0.285
3199,-0.600,-0.285
3200,-0.620,-0.295
3201,-0.610,-0.295
3202,-0.610,-0.280
3203,-0.605,-0.280
3204,-0.595,-0.285
3205,-0.590,-0.275
3206,-0.560,-0.275
3207,-0.550,-0.265
3208,-0.550,-0.270
3209,-0.545,-0.280
3210,-0.555,-0.285
3211,-0.555,-0.285
3212,-0.570,-0.290
3213,-0.565,-0.300
3214,-0.580,-0.295
3215,-0.595,-0.285
3216,-0.625,-0.275
3217,-0.650,-0.270
3218,-0.670,-0.260
3219,-0.640,-0.240
3220,-0.570,-0.220
3221,-0.430,-0.155
3222,-0.255,-0.080
3223,-0.020,0.020
3224,0.270,0.120
3225,0.595,0.210
3226,0.955,0.310
3227,1.275,0.410
3228,1.520,0.515
3229,1.680,0.615
3230,1.735,0.725
3231,1.715,0.830
3232,1.605,0.830
3233,1.395,0.705
3234,1.030,0.400
3235,0.505,-0.060
3236,-0.065,-0.595
3237,-0.545,-1.065
3238,-0.810,-1.375
3239,-0.900,-1.480
3240,-0.860,-1.375
3241,-0.745,-1.155
3242,-0.655,-0.915
3243,-0.600,-0.725
3244,-0.600,-0.605
3245,-0.625,-0.535
3246,-0.660,-0.505
3247,-0.715,-0.505
3248,-0.735,-0.475
3249,-0.750,-0.460
3250,-0.755,-0.430
3251,-0.735,-0.405
3252,-0.725,-0.365
3253,-0.720,-0.350
3254,-0.725,-0.340
3255,-0.720,-0.330
3256,-0.730,-0.330
3257,-0.725,-0.330
3258,-0.740,-0.335
3259,-0.730,-0.340
3260,-0.750,-0.325
3261,-0.755,-0.325
3262,-0.765,-0.315
3263,-0.775,-0.305
3264,-0.760,-0.290
3265,-0.760,-0.285
3266,-0.765,-0.270
3267,-0.760,-0.280
3268,-0.795,-0.285
3269,-0.795,-0.290
3270,-0.810,-0.300
3271,-0.820,-0.300
3272,-0.830,-0.315
3273,-0.840,-0.315
3274,-0.840,-0.305
3275,-0.855,-0.295
3276,-0.850,-0.300
3277,-0.840,-0.300
3278,-0.845,-0.300
3279,-0.835,-0.295
3280,-0.840,-0.320
3281,-0.850,-0.320
3282,-0.865,-0.335
3283,-0.870,-0.345
3284,-0.875,-0.360
3285,-0.885,-0.365
3286,-0.905,-0.365
3287,-0.915,-0.360
3288,-0.920,-0.365
3289,-0.925,-0.340
3290,-0.930,-0.345
3291,-0.925,-0.340
3292,-0.930,-0.360
3293,-0.935,-0.360
3294,-0.925,-0.370
3295,-0.950,-0.380
3296,-0.960,-0.385
3297,-0.970,-0.395
3298,-0.990,-0.385
3299,-0.985,-0.380
3300,-0.990,-0.380
3301,-0.990,-0.380
3302,-0.995,-0.365
3303,-0.995,-0.365
3304,-0.995,-0.380
3305,-1.010,-0.395
3306,-1.020,-0.405
3307,-1.040,-0.420
3308,-1.055,-0.435
3309,-1.065,-0.435
3310,-1.070,-0.455
3311,-1.075,-0.470
3312,-1.075,-0.460
3313,-1.070,-0.465
3314,-1.075,-0.460
3315,-1.070,-0.475
3316,-1.080,-0.485
3317,-1.080,-0.490
3318,-1.090,-0.505
3319,-1.100,-0.535
3320,-1.105,-0.545
3321,-1.110,-0.555
3322,-1.115,-0.550
3323,-1.110,-0.560
3324,-1.095,-0.570
3325,-1.080,-0.555
3326,-1.050,-0.560
3327,-1.035,-0.550
3328,-1.015,-0.555
3329,-0.985,-0.550
3330,-0.960,-0.560
3331,-0.935,-0.545
3332,-0.915,-0.545
3333,-0.885,-0.530
3334,-0.855,-0.515
3335,-0.840,-0.495
3336,-0.815,-0.480
3337,-0.790,-0.450
3338,-0.765,-0.445
3339,-0.735,-0.415
3340,-0.700,-0.420
3341,-0.710,-0.410
3342,-0.715,-0.430
3343,-0.705,-0.425
3344,-0.710,-0.430
3345,-0.725,-0.440
3346,-0.725,-0.440
3347,-0.725,-0.435
3348,-0.705,-0.435
3349,-0.680,-0.425
3350,-0.680,-0.425
3351,-0.670,-0.420
3352,-0.675,-0.415
3353,-0.670,-0.425
3354,-0.675,-0.435
3355,-0.675,-0.430
3356,-0.680,-0.440
3357,-0.685,-0.455
3358,-0.695,-0.440
3359,-0.685,-0.435
3360,-0.690,-0.425
3361,-0.685,-0.425
3362,-0.690,-0.420
3363,-0.675,-0.410
3364,-0.670,-0.425
3365,-0.660,-0.425
3366,-0.680,-0.425
3367,-0.680,-0.420
3368,-0.670,-0.415
3369,-0.665,-0.415
3370,-0.660,-0.410
3371,-0.650,-0.400
3372,-0.645,-0.380
3373,-0.625,-0.370
3374,-0.615,-0.365
3375,-0.605,-0.360
3376,-0.615,-0.360
3377,-0.610,-0.360
3378,-0.610,-0.360
3379,-0.620,-0.370
3380,-0.605,-0.365
3381,-0.615,-0.375
3382,-0.615,-0.365
3383,-0.605,-0.370
3384,-0.600,-0.355
3385,-0.595,-0.345
3386,-0.585,-0.335
3387,-0.580,-0.340
3388,-0.565,-0.325
3389,-0.570,-0.335
3390,-0.575,-0.340
3391,-0.580,-0.350
3392,-0.585,-0.355
3393,-0.585,-0.355
3394,-0.585,-0.355
3395,-0.565,-0.365
3396,-0.550,-0.345
3397,-0.550,-0.335
3398,-0.550,-0.330
3399,-0.525,-0.315
3400,-0.535,-0.335
3401,-0.540,-0.330
3402,-0.545,-0.355
3403,-0.560,-0.365
3404,-0.560,-0.360
3405,-0.585,-0.365
3406,-0.590,-0.365
3407,-0.600,-0.350
3408,-0.595,-0.365
3409,-0.590,-0.350
3410,-0.595,-0.345
3411,-0.595,-0.345
3412,-0.595,-0.360
3413,-0.595,-0.360
3414,-0.605,-0.385
3415,-0.605,-0.395
3416,-0.620,-0.395
3417,-0.640,-0.415
3418,-0.645,-0.405
3419,-0.645,-0.410
3420,-0.635,-0.400
3421,-0.635,-0.400
3422,-0.630,-0.395
3423,-0.625,-0.385
3424,-0.625,-0.385
3425,-0.630,-0.390
3426,-0.620,-0.395
3427,-0.635,-0.420
3428,-0.630,-0.420
3429,-0.635,-0.425
3430,-0.635,-0.415
3431,-0.630,-0.425
3432,-0.620,-0.410
3433,-0.615,-0.400
3434,-0.620,-0.390
3435,-0.620,-0.365
3436,-0.595,-0.365
3437,-0.585,-0.355
3438,-0.590,-0.360
3439,-0.605,-0.355
3440,-0.595,-0.360
3441,-0.600,-0.360
3442,-0.625,-0.345
3443,-0.660,-0.335
3444,-0.680,-0.335
3445,-0.675,-0.325
3446,-0.660,-0.305
3447,-0.580,-0.250
3448,-0.445,-0.200
3449,-0.245,-0.115
3450,-0.005,-0.020
3451,0.270,0.075
3452,0.590,0.150
3453,0.900,0.225
3454,1.210,0.320
3455,1.460,0.410
3456,1.625,0.510
3457,1.695,0.620
3458,1.685,0.735
3459,1.630,0.780
3460,1.500,0.710
3461,1.235,0.485
3462,0.815,0.105
3463,0.270,-0.365
3464,-0.240,-0.840
3465,-0.600,-1.210
3466,-0.780,-1.395
3467,-0.820,-1.375
3468,-0.760,-1.230
3469,-0.685,-1.035
3470,-0.640,-0.855
3471,-0.600,-0.730
3472,-0.595,-0.660
3473,-0.615,-0.620
3474,-0.660,-0.585
3475,-0.690,-0.575
3476,-0.715,-0.560
3477,-0.710,-0.540
3478,-0.710,-0.495
3479,-0.715,-0.475
3480,-0.725,-0.450
3481,-0.745,-0.435
3482,-0.755,-0.430
3483,-0.770,-0.425
3484,-0.775,-0.430
3485,-0.790,-0.445
3486,-0.800,-0.440
3487,-0.810,-0.450
3488,-0.820,-0.465
3489,-0.840,-0.460
3490,-0.845,-0.450
3491,-0.840,-0.445
3492,-0.850,-0.425
3493,-0.845,-0.425
3494,-0.835,-0.420
3495,-0.835,-0.405
3496,-0.855,-0.430
3497,-0.870,-0.430
3498,-0.885,-0.430
3499,-0.895,-0.445
3500,-0.910,-0.460
3501,-0.920,-0.470
3502,-0.935,-0.465
3503,-0.935,-0.455
3504,-0.935,-0.455
3505,-0.955,-0.450
3506,-0.940,-0.435
3507,-0.940,-0.425
3508,-0.945,-0.440
3509,-0.955,-0.435
3510,-0.965,-0.440
3511,-0.965,-0.450
3512,-0.945,-0.440
3513,-0.950,-0.440
3514,-0.950,-0.425
3515,-0.950,-0.410
3516,-0.945,-0.410
3517,-0.930,-0.390
3518,-0.925,-0.395
3519,-0.925,-0.390
3520,-0.920,-0.405
3521,-0.915,-0.405
3522,-0.930,-0.415
3523,-0.930,-0.430
3524,-0.955,-0.440
3525,-0.960,-0.450
3526,-0.975,-0.450
3527,-0.975,-0.465
3528,-0.970,-0.470
3529,-0.980,-0.480
3530,-0.995,-0.480
3531,-0.995,-0.490
3532,-1.015,-0.520
3533,-1.035,-0.525
3534,-1.060,-0.550
3535,-1.095,-0.575
3536,-1.115,-0.600
3537,-1.130,-0.620
3538,-1.160,-0.635
3539,-1.170,-0.645
3540,-1.185,-0.655
3541,-1.200,-0.675
3542,-1.190,-0.680
3543,-1.210,-0.685
3544,-1.230,-0.715
3545,-1.250,-0.735
3546,-1.265,-0.755
3547,-1.290,-0.775
3548,-1.310,-0.785
3549,-1.310,-0.795
3550,-1.310,-0.790
3551,-1.290,-0.800
3552,-1.270,-0.785
3553,-1.225,-0.775
3554,-1.200,-0.775
3555,-1.165,-0.750
3556,-1.140,-0.750
3557,-1.105,-0.735
3558,-1.075,-0.735
3559,-1.050,-0.720
3560,-1.025,-0.710
3561,-0.990,-0.695
3562,-0.970,-0.670
3563,-0.935,-0.640
3564,-0.910,-0.615
3565,-0.855,-0.585
3566,-0.830,-0.560
3567,-0.805,-0.550
3568,-0.785,-0.540
3569,-0.770,-0.530
3570,-0.775,-0.525
3571,-0.765,-0.520
3572,-0.760,-0.520
3573,-0.750,-0.510
3574,-0.740,-0.495
3575,-0.720,-0.505
3576,-0.705,-0.485
3577,-0.680,-0.485
3578,-0.675,-0.470
3579,-0.665,-0.460
3580,-0.660,-0.455
3581,-0.650,-0.450
3582,-0.645,-0.460
3583,-0.630,-0.460
3584,-0.635,-0.455
3585,-0.635,-0.470
3586,-0.645,-0.455
3587,-0.620,-0.465
3588,-0.620,-0.450
3589,-0.610,-0.445
3590,-0.605,-0.440
3591,-0.595,-0.435
3592,-0.595,-0.440
3593,-0.600,-0.445
3594,-0.615,-0.440
3595,-0.635,-0.460
3596,-0.625,-0.470
3597,-0.635,-0.460
3598,-0.645,-0.465
3599,-0.635,-0.455
3600,-0.635,-0.455
3601,-0.625,-0.445
3602,-0.620,-0.435
3603,-0.600,-0.430
3604,-0.595,-0.435
3605,-0.595,-0.435
3606,-0.605,-0.455
3607,-0.620,-0.455
3608,-0.625,-0.465
3609,-0.645,-0.470
3610,-0.655,-0.465
3611,-0.655,-0.465
3612,-0.645,-0.445
3613,-0.640,-0.440
3614,-0.630,-0.445
3615,-0.615,-0.430
3616,-0.620,-0.435
3617,-0.610,-0.440
3618,-0.625,-0.440
3619,-0.630,-0.445
3620,-0.630,-0.450
3621,-0.625,-0.440
3622,-0.630,-0.435
3623,-0.625,-0.435
3624,-0.620,-0.420
3625,-0.615,-0.400
3626,-0.605,-0.395
3627,-0.600,-0.395
3628,-0.595,-0.405
3629,-0.590,-0.410
3630,-0.600,-0.400
3631,-0.605,-0.425
3632,-0.615,-0.445
3633,-0.610,-0.435
3634,-0.610,-0.435
3635,-0.615,-0.440
3636,-0.625,-0.425
3637,-0.600,-0.420
3638,-0.595,-0.410
3639,-0.615,-0.390
3640,-0.615,-0.415
3641,-0.610,-0.415
3642,-0.605,-0.435
3643,-0.610,-0.435
3644,-0.615,-0.440
3645,-0.625,-0.465
3646,-0.620,-0.450
3647,-0.635,-0.445
3648,-0.635,-0.440
3649,-0.620,-0.435
3650,-0.625,-0.435
3651,-0.605,-0.435
3652,-0.610,-0.450
3653,-0.640,-0.440
3654,-0.630,-0.455
3655,-0.645,-0.465
3656,-0.650,-0.470
3657,-0.665,-0.490
3658,-0.660,-0.480
3659,-0.665,-0.475
3660,-0.670,-0.470
3661,-0.660,-0.460
3662,-0.655,-0.465
3663,-0.640,-0.460
3664,-0.635,-0.470
3665,-0.640,-0.470
3666,-0.645,-0.485
3667,-0.655,-0.500
3668,-0.655,-0.500
3669,-0.660,-0.510
3670,-0.670,-0.505
3671,-0.660,-0.495
3672,-0.670,-0.490
3673,-0.670,-0.495
3674,-0.660,-0.485
3675,-0.655,-0.490
3676,-0.655,-0.485
3677,-0.655,-0.495
3678,-0.640,-0.510
3679,-0.665,-0.515
3680,-0.665,-0.510
3681,-0.660,-0.515
3682,-0.660,-0.515
3683,-0.655,-0.505
3684,-0.645,-0.505
3685,-0.650,-0.495
3686,-0.640,-0.475
3687,-0.630,-0.470
3688,-0.610,-0.470
3689,-0.615,-0.475
3690,-0.615,-0.470
3691,-0.645,-0.465
3692,-0.645,-0.480
3693,-0.635,-0.480
3694,-0.650,-0.480
3695,-0.645,-0.470
3696,-0.630,-0.455
3697,-0.635,-0.450
3698,-0.630,-0.450
3699,-0.615,-0.440
3700,-0.625,-0.455
3701,-0.630,-0.460
3702,-0.640,-0.470
3703,-0.645,-0.480
3704,-0.645,-0.485
3705,-0.655,-0.495
3706,-0.650,-0.485
3707,-0.650,-0.480
3708,-0.650,-0.480
3709,-0.645,-0.475
3710,-0.640,-0.475
3711,-0.635,-0.475
3712,-0.630,-0.480
3713,-0.640,-0.490
3714,-0.640,-0.495
3715,-0.655,-0.500
3716,-0.655,-0.500
3717,-0.655,-0.510
3718,-0.670,-0.510
3719,-0.670,-0.495
3720,-0.660,-0.495
3721,-0.645,-0.480
3722,-0.645,-0.475
3723,-0.640,-0.475
3724,-0.635,-0.480
3725,-0.645,-0.485
3726,-0.655,-0.515
3727,-0.655,-0.510
3728,-0.675,-0.515
3729,-0.675,-0.520
3730,-0.685,-0.525
3731,-0.695,-0.520
3732,-0.695,-0.510
3733,-0.685,-0.505
3734,-0.685,-0.485
3735,-0.675,-0.485
3736,-0.670,-0.485
3737,-0.685,-0.495
3738,-0.680,-0.505
3739,-0.685,-0.510
3740,-0.720,-0.510
3741,-0.720,-0.525
3742,-0.710,-0.525
3743,-0.705,-0.515
3744,-0.715,-0.510
3745,-0.705,-0.510
3746,-0.700,-0.500
3747,-0.690,-0.490
3748,-0.675,-0.495
3749,-0.680,-0.500
3750,-0.680,-0.500
3751,-0.680,-0.500
3752,-0.690,-0.515
3753,-0.685,-0.525
3754,-0.680,-0.510
3755,-0.670,-0.520
3756,-0.670,-0.510
3757,-0.660,-0.505
3758,-0.665,-0.500
3759,-0.655,-0.495
3760,-0.680,-0.500
3761,-0.665,-0.510
3762,-0.675,-0.520
3763,-0.685,-0.525
3764,-0.675,-0.535
3765,-0.680,-0.540
3766,-0.670,-0.540
3767,-0.660,-0.535
3768,-0.650,-0.520
3769,-0.635,-0.525
3770,-0.630,-0.525
3771,-0.640,-0.515
3772,-0.630,-0.525
3773,-0.645,-0.530
3774,-0.665,-0.535
3775,-0.675,-0.545
3776,-0.680,-0.555
3777,-0.680,-0.565
3778,-0.665,-0.545
3779,-0.655,-0.535
3780,-0.650,-0.530
3781,-0.650,-0.525
3782,-0.640,-0.500
3783,-0.635,-0.490
3784,-0.630,-0.510
3785,-0.635,-0.515
3786,-0.640,-0.515
3787,-0.660,-0.525
3788,-0.660,-0.535
3789,-0.690,-0.540
3790,-0.680,-0.550
3791,-0.685,-0.545
3792,-0.685,-0.535
3793,-0.680,-0.525
3794,-0.670,-0.525
3795,-0.655,-0.510
3796,-0.650,-0.520
3797,-0.655,-0.525
3798,-0.665,-0.540
3799,-0.675,-0.540
3800,-0.690,-0.550
3801,-0.705,-0.550
3802,-0.720,-0.550
3803,-0.710,-0.555
3804,-0.710,-0.555
3805,-0.715,-0.545
3806,-0.710,-0.555
3807,-0.715,-0.540
3808,-0.705,-0.560
3809,-0.705,-0.550
3810,-0.700,-0.545
3811,-0.700,-0.555
3812,-0.705,-0.560
3813,-0.715,-0.570
3814,-0.705,-0.575
3815,-0.695,-0.560
3816,-0.700,-0.560
3817,-0.685,-0.550
3818,-0.675,-0.550
3819,-0.665,-0.535
3820,-0.660,-0.550
3821,-0.665,-0.540
3822,-0.665,-0.560
3823,-0.665,-0.560
3824,-0.665,-0.560
3825,-0.650,-0.570
3826,-0.645,-0.560
3827,-0.630,-0.555
3828,-0.625,-0.545
3829,-0.620,-0.545
3830,-0.620,-0.530
3831,-0.620,-0.525
3832,-0.615,-0.535
3833,-0.615,-0.535
3834,-0.625,-0.545
3835,-0.625,-0.555
3836,-0.640,-0.560
3837,-0.645,-0.560
3838,-0.630,-0.550
3839,-0.625,-0.550
3840,-0.620,-0.525
3841,-0.620,-0.530
3842,-0.620,-0.510
3843,-0.610,-0.495
3844,-0.620,-0.505
3845,-0.620,-0.520
3846,-0.605,-0.515
3847,-0.620,-0.540
3848,-0.655,-0.540
3849,-0.675,-0.540
3850,-0.700,-0.550
3851,-0.725,-0.535
3852,-0.720,-0.515
3853,-0.650,-0.480
3854,-0.525,-0.410
3855,-0.350,-0.330
3856,-0.135,-0.240
3857,0.115,-0.150
3858,0.380,-0.060
3859,0.695,0.015
3860,0.985,0.070
3861,1.250,0.140
3862,1.465,0.230
3863,1.615,0.320
3864,1.675,0.425
3865,1.670,0.530
3866,1.620,0.580
3867,1.520,0.555
3868,1.320,0.380
3869,0.955,0.075
3870,0.480,-0.335
3871,-0.075,-0.790
3872,-0.540,-1.195
3873,-0.835,-1.470
3874,-0.945,-1.570
3875,-0.935,-1.510
3876,-0.865,-1.330
3877,-0.800,-1.150
3878,-0.740,-0.995
3879,-0.735,-0.890
3880,-0.730,-0.830
3881,-0.745,-0.785
3882,-0.755,-0.760
3883,-0.790,-0.725
3884,-0.795,-0.710
3885,-0.790,-0.690
3886,-0.780,-0.650
3887,-0.770,-0.605
3888,-0.760,-0.580
3889,-0.750,-0.565
3890,-0.750,-0.540
3891,-0.770,-0.535
3892,-0.780,-0.530
3893,-0.800,-0.540
3894,-0.805,-0.540
3895,-0.825,-0.545
3896,-0.840,-0.560
3897,-0.860,-0.565
3898,-0.870,-0.565
3899,-0.870,-0.565
3900,-0.870,-0.555
3901,-0.860,-0.535
3902,-0.870,-0.535
3903,-0.865,-0.535
3904,-0.875,-0.530
3905,-0.875,-0.530
3906,-0.885,-0.535
3907,-0.900,-0.540
3908,-0.915,-0.560
3909,-0.925,-0.575
3910,-0.940,-0.570
3911,-0.940,-0.575
3912,-0.940,-0.575
3913,-0.935,-0.565
3914,-0.930,-0.575
3915,-0.935,-0.570
3916,-0.945,-0.585
3917,-0.950,-0.600
3918,-0.955,-0.605
3919,-0.980,-0.630
3920,-1.000,-0.630
3921,-1.015,-0.640
3922,-1.025,-0.630
3923,-1.020,-0.635
3924,-1.020,-0.635
3925,-1.015,-0.615
3926,-1.020,-0.615
3927,-1.010,-0.610
3928,-1.015,-0.625
3929,-1.010,-0.630
3930,-1.005,-0.640
3931,-1.020,-0.655
3932,-1.030,-0.665
3933,-1.035,-0.670
3934,-1.040,-0.675
3935,-1.050,-0.675
3936,-1.055,-0.675
3937,-1.050,-0.665
3938,-1.065,-0.650
3939,-1.050,-0.650
3940,-1.065,-0.660
3941,-1.075,-0.665
3942,-1.085,-0.680
3943,-1.095,-0.685
3944,-1.120,-0.705
3945,-1.135,-0.715
3946,-1.150,-0.725
3947,-1.155,-0.735
3948,-1.155,-0.740
3949,-1.170,-0.750
3950,-1.180,-0.750
3951,-1.185,-0.770
3952,-1.210,-0.775
3953,-1.225,-0.800
3954,-1.235,-0.820
3955,-1.265,-0.845
3956,-1.270,-0.870
3957,-1.305,-0.880
3958,-1.325,-0.900
3959,-1.345,-0.915
3960,-1.340,-0.930
3961,-1.345,-0.935
3962,-1.340,-0.935
3963,-1.355,-0.945
3964,-1.345,-0.975
3965,-1.355,-0.985
3966,-1.355,-0.995
3967,-1.355,-1.000
3968,-1.345,-1.010
3969,-1.335,-1.035
3970,-1.330,-1.030
3971,-1.305,-1.020
3972,-1.285,-1.000
3973,-1.245,-1.000
3974,-1.215,-0.970
3975,-1.165,-0.945
3976,-1.130,-0.930
3977,-1.105,-0.920
3978,-1.060,-0.895
3979,-1.035,-0.890
3980,-1.015,-0.870
3981,-0.995,-0.835
3982,-0.965,-0.820
3983,-0.940,-0.795
3984,-0.905,-0.765
3985,-0.870,-0.740
3986,-0.835,-0.715
3987,-0.825,-0.690
3988,-0.790,-0.680
3989,-0.765,-0.665
3990,-0.750,-0.655
3991,-0.735,-0.635
3992,-0.710,-0.630
3993,-0.715,-0.620
3994,-0.675,-0.615
3995,-0.660,-0.585
3996,-0.645,-0.575
3997,-0.625,-0.565
3998,-0.615,-0.555
3999,-0.610,-0.540
4000,-0.600,-0.530
4001,-0.615,-0.535
4002,-0.620,-0.530
4003,-0.615,-0.535
4004,-0.620,-0.555
4005,-0.625,-0.550
4006,-0.640,-0.550
4007,-0.640,-0.545
4008,-0.655,-0.535
4009,-0.645,-0.530
4010,-0.645,-0.520
4011,-0.655,-0.505
4012,-0.655,-0.515
4013,-0.660,-0.505
4014,-0.665,-0.520
4015,-0.650,-0.530
4016,-0.655,-0.535
4017,-0.670,-0.535
4018,-0.660,-0.525
4019,-0.665,-0.510
4020,-0.655,-0.525
4021,-0.655,-0.515
4022,-0.660,-0.505
4023,-0.640,-0.490
4024,-0.645,-0.505
4025,-0.645,-0.485
4026,-0.635,-0.500
4027,-0.645,-0.500
4028,-0.650,-0.505
4029,-0.655,-0.515
4030,-0.660,-0.520
4031,-0.660,-0.515
4032,-0.660,-0.505
4033,-0.650,-0.500
4034,-0.640,-0.490
4035,-0.630,-0.475
4036,-0.630,-0.480
4037,-0.620,-0.465
4038,-0.635,-0.485
4039,-0.625,-0.495
4040,-0.635,-0.495
4041,-0.645,-0.505
4042,-0.650,-0.500
4043,-0.650,-0.505
4044,-0.650,-0.495
4045,-0.635,-0.505
4046,-0.630,-0.490
4047,-0.625,-0.480
4048,-0.605,-0.490
4049,-0.615,-0.490
4050,-0.640,-0.495
4051,-0.635,-0.505
4052,-0.645,-0.510
4053,-0.650,-0.520
4054,-0.645,-0.510
4055,-0.640,-0.510
4056,-0.640,-0.495
4057,-0.635,-0.480
4058,-0.625,-0.465
4059,-0.610,-0.455
4060,-0.600,-0.465
4061,-0.605,-0.460
4062,-0.615,-0.465
4063,-0.610,-0.465
4064,-0.615,-0.480
4065,-0.635,-0.475
4066,-0.655,-0.480
4067,-0.660,-0.465
4068,-0.670,-0.470
4069,-0.670,-0.465
4070,-0.660,-0.480
4071,-0.655,-0.470
4072,-0.655,-0.490
4073,-0.655,-0.505
4074,-0.650,-0.510
4075,-0.670,-0.530
4076,-0.680,-0.535
4077,-0.665,-0.540
4078,-0.675,-0.535
4079,-0.690,-0.520
4080,-0.675,-0.515
4081,-0.670,-0.510
4082,-0.665,-0.515
4083,-0.660,-0.510
4084,-0.660,-0.515
4085,-0.660,-0.525
4086,-0.660,-0.525
4087,-0.665,-0.540
4088,-0.685,-0.550
4089,-0.685,-0.555
4090,-0.670,-0.545
4091,-0.670,-0.540
4092,-0.680,-0.535
4093,-0.680,-0.515
4094,-0.680,-0.505
4095,-0.680,-0.500
4096,-0.680,-0.500
4097,-0.685,-0.520
4098,-0.690,-0.515
4099,-0.685,-0.540
4100,-0.695,-0.545
4101,-0.700,-0.545
4102,-0.695,-0.550
4103,-0.680,-0.540
4104,-0.670,-0.550
4105,-0.670,-0.545
4106,-0.640,-0.540
4107,-0.640,-0.530
4108,-0.625,-0.535
4109,-0.620,-0.540
4110,-0.615,-0.545
4111,-0.625,-0.550
4112,-0.640,-0.560
4113,-0.635,-0.565
4114,-0.650,-0.565
4115,-0.645,-0.560
4116,-0.645,-0.545
4117,-0.635,-0.555
4118,-0.640,-0.555
4119,-0.645,-0.555
4120,-0.640,-0.560
4121,-0.645,-0.560
4122,-0.655,-0.570
4123,-0.665,-0.580
4124,-0.680,-0.575
4125,-0.700,-0.595
4126,-0.680,-0.585
4127,-0.690,-0.575
4128,-0.700,-0.570
4129,-0.685,-0.565
4130,-0.680,-0.555
4131,-0.675,-0.550
4132,-0.645,-0.550
4133,-0.640,-0.545
4134,-0.645,-0.545
4135,-0.650,-0.550
4136,-0.650,-0.565
4137,-0.660,-0.565
4138,-0.665,-0.550
4139,-0.665,-0.540
4140,-0.670,-0.540
4141,-0.660,-0.525
4142,-0.660,-0.515
4143,-0.650,-0.510
4144,-0.645,-0.505
4145,-0.660,-0.490
4146,-0.665,-0.500
4147,-0.665,-0.495
4148,-0.665,-0.490
4149,-0.660,-0.505
4150,-0.655,-0.495
4151,-0.660,-0.495
4152,-0.680,-0.495
4153,-0.675,-0.485
4154,-0.675,-0.485
4155,-0.675,-0.475
4156,-0.675,-0.500
4157,-0.670,-0.495
4158,-0.660,-0.510
4159,-0.675,-0.515
4160,-0.660,-0.520
4161,-0.665,-0.525
4162,-0.665,-0.505
4163,-0.650,-0.500
4164,-0.635,-0.500
4165,-0.635,-0.500
4166,-0.645,-0.490
4167,-0.630,-0.495
4168,-0.625,-0.510
4169,-0.630,-0.515
4170,-0.625,-0.515
4171,-0.625,-0.525
4172,-0.635,-0.540
4173,-0.645,-0.540
4174,-0.650,-0.525
4175,-0.645,-0.530
4176,-0.630,-0.525
4177,-0.625,-0.525
4178,-0.605,-0.520
4179,-0.605,-0.515
4180,-0.600,-0.535
4181,-0.605,-0.550
4182,-0.620,-0.540
4183,-0.645,-0.550
4184,-0.650,-0.560
4185,-0.655,-0.555
4186,-0.670,-0.575
4187,-0.675,-0.570
4188,-0.670,-0.570
4189,-0.670,-0.560
4190,-0.665,-0.565
4191,-0.665,-0.570
4192,-0.675,-0.580
4193,-0.670,-0.585
4194,-0.675,-0.595
4195,-0.685,-0.610
4196,-0.680,-0.605
4197,-0.690,-0.605
4198,-0.680,-0.595
4199,-0.670,-0.585
4200,-0.665,-0.565
4201,-0.655,-0.570
4202,-0.640,-0.565
4203,-0.625,-0.555
4204,-0.620,-0.565
4205,-0.625,-0.565
4206,-0.610,-0.560
4207,-0.620,-0.575
4208,-0.615,-0.570
4209,-0.625,-0.575
4210,-0.640,-0.565
4211,-0.640,-0.555
4212,-0.635,-0.550
4213,-0.635,-0.550
4214,-0.635,-0.535
4215,-0.635,-0.530
4216,-0.625,-0.525
4217,-0.635,-0.535
4218,-0.635,-0.550
4219,-0.620,-0.545
4220,-0.625,-0.550
4221,-0.615,-0.530
4222,-0.620,-0.525
4223,-0.620,-0.535
4224,-0.620,-0.505
4225,-0.610,-0.500
4226,-0.605,-0.505
4227,-0.585,-0.505
4228,-0.585,-0.505
4229,-0.590,-0.515
4230,-0.595,-0.515
4231,-0.615,-0.520
4232,-0.605,-0.525
4233,-0.615,-0.530
4234,-0.610,-0.525
4235,-0.605,-0.535
4236,-0.605,-0.525
4237,-0.595,-0.525
4238,-0.580,-0.510
4239,-0.590,-0.510
4240,-0.570,-0.510
4241,-0.575,-0.520
4242,-0.575,-0.520
4243,-0.580,-0.530
4244,-0.595,-0.545
4245,-0.610,-0.545
4246,-0.615,-0.535
4247,-0.630,-0.540
4248,-0.620,-0.535
4249,-0.630,-0.535
4250,-0.620,-0.525
4251,-0.620,-0.525
4252,-0.610,-0.530
4253,-0.625,-0.540
4254,-0.630,-0.540
4255,-0.640,-0.535
4256,-0.645,-0.550
4257,-0.650,-0.555
4258,-0.655,-0.540
4259,-0.660,-0.540
4260,-0.650,-0.535
4261,-0.635,-0.515
4262,-0.635,-0.515
4263,-0.640,-0.520
4264,-0.655,-0.525
4265,-0.685,-0.530
4266,-0.705,-0.530
4267,-0.685,-0.530
4268,-0.590,-0.485
4269,-0.450,-0.430
4270,-0.240,-0.330
4271,0.030,-0.210
4272,0.370,-0.085
4273,0.740,0.020
4274,1.095,0.140
4275,1.390,0.235
4276,1.615,0.320
4277,1.725,0.420
4278,1.740,0.515
4279,1.665,0.585
4280,1.550,0.570
4281,1.280,0.370
4282,0.870,-0.005
4283,0.325,-0.500
4284,-0.210,-1.035
4285,-0.595,-1.480
4286,-0.790,-1.725
4287,-0.825,-1.710
4288,-0.785,-1.545
4289,-0.700,-1.325
4290,-0.615,-1.115
4291,-0.590,-0.960
4292,-0.600,-0.875
4293,-0.630,-0.830
4294,-0.665,-0.790
4295,-0.715,-0.745
4296,-0.720,-0.715
4297,-0.730,-0.665
4298,-0.740,-0.630
4299,-0.730,-0.600
4300,-0.715,-0.575
4301,-0.740,-0.570
4302,-0.735,-0.570
4303,-0.775,-0.565
4304,-0.795,-0.575
4305,-0.810,-0.575
4306,-0.835,-0.575
4307,-0.845,-0.570
4308,-0.835,-0.565
4309,-0.835,-0.540
4310,-0.835,-0.530
4311,-0.835,-0.535
4312,-0.820,-0.535
4313,-0.830,-0.530
4314,-0.840,-0.545
4315,-0.840,-0.540
4316,-0.845,-0.555
4317,-0.865,-0.560
4318,-0.875,-0.555
4319,-0.880,-0.545
4320,-0.880,-0.545
4321,-0.875,-0.540
4322,-0.885,-0.535
4323,-0.895,-0.530
4324,-0.890,-0.535
4325,-0.900,-0.535
4326,-0.900,-0.545
4327,-0.895,-0.555
4328,-0.910,-0.565
4329,-0.910,-0.565
4330,-0.905,-0.565
4331,-0.905,-0.570
4332,-0.910,-0.565
4333,-0.895,-0.555
4334,-0.900,-0.555
4335,-0.910,-0.570
4336,-0.910,-0.570
4337,-0.930,-0.580
4338,-0.935,-0.590
4339,-0.950,-0.600
4340,-0.960,-0.615
4341,-0.965,-0.620
4342,-0.975,-0.630
4343,-0.980,-0.625
4344,-0.975,-0.635
4345,-0.960,-0.625
4346,-0.955,-0.620
4347,-0.945,-0.625
4348,-0.950,-0.625
4349,-0.950,-0.630
4350,-0.965,-0.640
4351,-0.985,-0.650
4352,-1.000,-0.675
4353,-1.020,-0.680
4354,-1.055,-0.690
4355,-1.060,-0.695
4356,-1.080,-0.700
4357,-1.080,-0.695
4358,-1.095,-0.705
4359,-1.100,-0.710
4360,-1.095,-0.720
4361,-1.130,-0.745
4362,-1.135,-0.765
4363,-1.170,-0.775
4364,-1.185,-0.800
4365,-1.225,-0.825
4366,-1.245,-0.835
4367,-1.270,-0.840
4368,-1.295,-0.845
4369,-1.295,-0.850
4370,-1.310,-0.845
4371,-1.305,-0.850
4372,-1.330,-0.890
4373,-1.350,-0.895
4374,-1.360,-0.915
4375,-1.370,-0.950
4376,-1.385,-0.960
4377,-1.390,-0.980
4378,-1.395,-0.990
4379,-1.385,-1.000
4380,-1.380,-0.985
4381,-1.355,-0.985
4382,-1.335,-0.980
4383,-1.285,-0.960
4384,-1.255,-0.965
4385,-1.210,-0.940
4386,-1.180,-0.940
4387,-1.145,-0.930
4388,-1.115,-0.915
4389,-1.065,-0.895
4390,-1.020,-0.870
4391,-0.990,-0.855
4392,-0.950,-0.820
4393,-0.915,-0.800
4394,-0.900,-0.775
4395,-0.865,-0.750
4396,-0.845,-0.735
4397,-0.825,-0.730
4398,-0.810,-0.720
4399,-0.795,-0.705
4400,-0.775,-0.705
4401,-0.760,-0.700
4402,-0.725,-0.680
4403,-0.710,-0.665
4404,-0.685,-0.645
4405,-0.685,-0.625
4406,-0.665,-0.620
4407,-0.655,-0.605
4408,-0.655,-0.600
4409,-0.665,-0.605
4410,-0.665,-0.620
4411,-0.665,-0.615
4412,-0.645,-0.620
4413,-0.655,-0.615
4414,-0.665,-0.605
4415,-0.670,-0.605
4416,-0.655,-0.605
4417,-0.660,-0.600
4418,-0.640,-0.590
4419,-0.640,-0.590
4420,-0.635,-0.595
4421,-0.635,-0.595
4422,-0.635,-0.605
4423,-0.655,-0.610
4424,-0.655,-0.605
4425,-0.660,-0.610
4426,-0.660,-0.615
4427,-0.665,-0.610
4428,-0.665,-0.595
4429,-0.665,-0.580
4430,-0.650,-0.570
4431,-0.635,-0.570
4432,-0.630,-0.570
4433,-0.640,-0.570
4434,-0.645,-0.565
4435,-0.650,-0.570
4436,-0.655,-0.565
4437,-0.655,-0.565
4438,-0.660,-0.565
4439,-0.675,-0.560
4440,-0.660,-0.550
4441,-0.650,-0.530
4442,-0.645,-0.525
4443,-0.640,-0.520
4444,-0.645,-0.520
4445,-0.640,-0.515
4446,-0.640,-0.520
4447,-0.650,-0.525
4448,-0.640,-0.535
4449,-0.650,-0.525
4450,-0.650,-0.525
4451,-0.640,-0.525
4452,-0.635,-0.515
4453,-0.620,-0.510
4454,-0.605,-0.505
4455,-0.590,-0.500
4456,-0.570,-0.495
4457,-0.590,-0.510
4458,-0.580,-0.520
4459,-0.595,-0.520
4460,-0.595,-0.525
4461,-0.605,-0.520
4462,-0.600,-0.530
4463,-0.595,-0.525
4464,-0.605,-0.520
4465,-0.605,-0.515
4466,-0.595,-0.515
4467,-0.580,-0.505
4468,-0.580,-0.510
4469,-0.590,-0.510
4470,-0.585,-0.530
4471,-0.590,-0.525
4472,-0.595,-0.530
4473,-0.600,-0.535
4474,-0.615,-0.540
4475,-0.620,-0.540
4476,-0.620,-0.530
4477,-0.615,-0.540
4478,-0.615,-0.530
4479,-0.615,-0.530
4480,-0.605,-0.530
4481,-0.595,-0.530
4482,-0.600,-0.545
4483,-0.605,-0.545
4484,-0.615,-0.560
4485,-0.605,-0.565
4486,-0.620,-0.570
4487,-0.620,-0.570
4488,-0.610,-0.560
4489,-0.605,-0.550
4490,-0.605,-0.555
4491,-0.585,-0.555
4492,-0.585,-0.545
4493,-0.580,-0.550
4494,-0.590,-0.560
4495,-0.600,-0.565
4496,-0.605,-0.580
4497,-0.610,-0.580
4498,-0.610,-0.585
4499,-0.615,-0.585
4500,-0.615,-0.590
4501,-0.610,-0.585
4502,-0.620,-0.585
4503,-0.625,-0.595
4504,-0.630,-0.600
4505,-0.635,-0.610
4506,-0.640,-0.625
4507,-0.655,-0.630
4508,-0.655,-0.640
4509,-0.660,-0.650
4510,-0.660,-0.645
4511,-0.655,-0.640
4512,-0.650,-0.640
4513,-0.635,-0.625
4514,-0.630,-0.620
4515,-0.625,-0.610
4516,-0.615,-0.615
4517,-0.625,-0.615
4518,-0.620,-0.630
4519,-0.625,-0.625
4520,-0.630,-0.640
4521,-0.635,-0.640
4522,-0.640,-0.630
4523,-0.630,-0.605
4524,-0.640,-0.615
4525,-0.635,-0.595
4526,-0.635,-0.585
4527,-0.625,-0.585
4528,-0.625,-0.585
4529,-0.625,-0.585
4530,-0.625,-0.595
4531,-0.640,-0.600
4532,-0.640,-0.600
4533,-0.645,-0.620
4534,-0.650,-0.610
4535,-0.640,-0.610
4536,-0.630,-0.600
4537,-0.630,-0.585
4538,-0.625,-0.590
4539,-0.620,-0.580
4540,-0.620,-0.580
4541,-0.635,-0.595
4542,-0.630,-0.585
4543,-0.620,-0.610
4544,-0.630,-0.605
4545,-0.630,-0.610
4546,-0.640,-0.620
4547,-0.625,-0.595
4548,-0.620,-0.595
4549,-0.610,-0.580
4550,-0.610,-0.585
4551,-0.605,-0.570
4552,-0.595,-0.575
4553,-0.600,-0.585
4554,-0.605,-0.580
4555,-0.605,-0.590
4556,-0.630,-0.590
4557,-0.630,-0.595
4558,-0.610,-0.590
4559,-0.620,-0.580
4560,-0.610,-0.560
4561,-0.605,-0.540
4562,-0.605,-0.540
4563,-0.595,-0.530
4564,-0.625,-0.535
4565,-0.635,-0.550
4566,-0.665,-0.555
4567,-0.695,-0.565
4568,-0.690,-0.560
4569,-0.630,-0.540
4570,-0.520,-0.495
4571,-0.355,-0.425
4572,-0.145,-0.320
4573,0.115,-0.215
4574,0.400,-0.125
4575,0.710,-0.040
4576,1.020,0.035
4577,1.310,0.115
4578,1.545,0.180
4579,1.705,0.270
4580,1.765,0.375
4581,1.750,0.465
4582,1.665,0.520
4583,1.495,0.450
4584,1.220,0.245
4585,0.775,-0.120
4586,0.245,-0.580
4587,-0.270,-1.050
4588,-0.645,-1.455
4589,-0.825,-1.675
4590,-0.855,-1.715
4591,-0.815,-1.575
4592,-0.740,-1.375
4593,-0.680,-1.175
4594,-0.640,-1.025
4595,-0.640,-0.920
4596,-0.665,-0.875
4597,-0.685,-0.815
4598,-0.710,-0.775
4599,-0.725,-0.755
4600,-0.715,-0.725
4601,-0.715,-0.700
4602,-0.720,-0.680
4603,-0.720,-0.665
4604,-0.740,-0.650
4605,-0.750,-0.650
4606,-0.760,-0.640
4607,-0.770,-0.640
4608,-0.785,-0.630
4609,-0.785,-0.625
4610,-0.785,-0.625
4611,-0.790,-0.610
4612,-0.790,-0.605
4613,-0.805,-0.605
4614,-0.805,-0.625
4615,-0.825,-0.625
4616,-0.815,-0.630
4617,-0.835,-0.640
4618,-0.840,-0.640
4619,-0.835,-0.620
4620,-0.835,-0.610
4621,-0.820,-0.600
4622,-0.820,-0.605
4623,-0.815,-0.595
4624,-0.805,-0.580
4625,-0.810,-0.595
4626,-0.820,-0.595
4627,-0.830,-0.600
4628,-0.835,-0.615
4629,-0.850,-0.610
4630,-0.850,-0.610
4631,-0.865,-0.605
4632,-0.865,-0.605
4633,-0.860,-0.605
4634,-0.850,-0.600
4635,-0.845,-0.600
4636,-0.850,-0.590
4637,-0.845,-0.605
4638,-0.835,-0.600
4639,-0.850,-0.605
4640,-0.855,-0.610
4641,-0.860,-0.615
4642,-0.880,-0.615
4643,-0.880,-0.610
4644,-0.875,-0.590
4645,-0.885,-0.580
4646,-0.885,-0.565
4647,-0.895,-0.570
4648,-0.905,-0.580
4649,-0.915,-0.595
4650,-0.915,-0.595
4651,-0.920,-0.605
4652,-0.925,-0.610
4653,-0.930,-0.615
4654,-0.940,-0.635
4655,-0.950,-0.620
4656,-0.945,-0.625
4657,-0.955,-0.640
4658,-0.975,-0.630
4659,-0.985,-0.630
4660,-1.005,-0.640
4661,-1.025,-0.655
4662,-1.040,-0.670
4663,-1.065,-0.700
4664,-1.085,-0.720
4665,-1.105,-0.740
4666,-1.125,-0.745
4667,-1.135,-0.755
4668,-1.155,-0.770
4669,-1.160,-0.780
4670,-1.165,-0.790
4671,-1.185,-0.810
4672,-1.195,-0.830
4673,-1.210,-0.835
4674,-1.235,-0.860
4675,-1.250,-0.890
4676,-1.270,-0.915
4677,-1.280,-0.935
4678,-1.275,-0.940
4679,-1.270,-0.945
4680,-1.265,-0.955
4681,-1.255,-0.945
4682,-1.230,-0.955
4683,-1.195,-0.945
4684,-1.175,-0.950
4685,-1.145,-0.945
4686,-1.120,-0.940
4687,-1.090,-0.940
4688,-1.075,-0.935
4689,-1.040,-0.920
4690,-1.025,-0.895
4691,-0.980,-0.880
4692,-0.950,-0.860
4693,-0.905,-0.825
4694,-0.865,-0.800
4695,-0.840,-0.780
4696,-0.815,-0.750
4697,-0.790,-0.755
4698,-0.785,-0.750
4699,-0.770,-0.730
4700,-0.770,-0.730
4701,-0.770,-0.720
4702,-0.760,-0.710
4703,-0.745,-0.695
4704,-0.740,-0.690
4705,-0.720,-0.665
4706,-0.700,-0.640
4707,-0.685,-0.635
4708,-0.670,-0.630
4709,-0.675,-0.635
4710,-0.650,-0.625
4711,-0.645,-0.630
4712,-0.645,-0.625
4713,-0.655,-0.630
4714,-0.650,-0.635
4715,-0.660,-0.620
4716,-0.655,-0.615
4717,-0.660,-0.610
4718,-0.640,-0.610
4719,-0.635,-0.605
4720,-0.630,-0.595
4721,-0.635,-0.605
4722,-0.635,-0.610
4723,-0.640,-0.610
4724,-0.655,-0.615
4725,-0.660,-0.605
4726,-0.670,-0.605
4727,-0.665,-0.600
4728,-0.665,-0.590
4729,-0.645,-0.595
4730,-0.640,-0.570
4731,-0.630,-0.575
4732,-0.620,-0.575
4733,-0.615,-0.570
4734,-0.625,-0.580
4735,-0.625,-0.590
4736,-0.630,-0.575
4737,-0.630,-0.590
4738,-0.630,-0.585
4739,-0.640,-0.580
4740,-0.635,-0.580
4741,-0.615,-0.570
4742,-0.605,-0.560
4743,-0.605,-0.550
4744,-0.590,-0.550
4745,-0.590,-0.555
4746,-0.590,-0.555
4747,-0.580,-0.555
4748,-0.585,-0.565
4749,-0.590,-0.555
4750,-0.585,-0.560
4751,-0.595,-0.560
4752,-0.610,-0.565
4753,-0.620,-0.545
4754,-0.615,-0.555
4755,-0.620,-0.560
4756,-0.620,-0.560
4757,-0.625,-0.575
4758,-0.630,-0.580
4759,-0.645,-0.595
4760,-0.635,-0.605
4761,-0.635,-0.615
4762,-0.640,-0.615
4763,-0.635,-0.615
4764,-0.625,-0.615
4765,-0.630,-0.605
4766,-0.615,-0.595
4767,-0.605,-0.585
4768,-0.605,-0.595
4769,-0.600,-0.590
4770,-0.610,-0.595
4771,-0.610,-0.605
4772,-0.610,-0.600
4773,-0.625,-0.605
4774,-0.630,-0.600
4775,-0.630,-0.580
4776,-0.620,-0.580
4777,-0.615,-0.565
4778,-0.610,-0.560
4779,-0.610,-0.550
4780,-0.615,-0.545
4781,-0.605,-0.555
4782,-0.620,-0.555
4783,-0.620,-0.550
4784,-0.620,-0.565
4785,-0.630,-0.570
4786,-0.630,-0.560
4787,-0.630,-0.545
4788,-0.635,-0.540
4789,-0.625,-0.535
4790,-0.620,-0.530
4791,-0.610,-0.525
4792,-0.615,-0.530
4793,-0.620,-0.545
4794,-0.615,-0.540
4795,-0.625,-0.555
4796,-0.620,-0.555
4797,-0.635,-0.560
4798,-0.640,-0.560
4799,-0.640,-0.570
4800,-0.640,-0.560
4801,-0.635,-0.555
4802,-0.640,-0.550
4803,-0.615,-0.540
4804,-0.610,-0.545
4805,-0.605,-0.545
4806,-0.615,-0.545
4807,-0.630,-0.565
4808,-0.635,-0.570
4809,-0.630,-0.580
4810,-0.635,-0.575
4811,-0.630,-0.575
4812,-0.640,-0.570
4813,-0.630,-0.575
4814,-0.615,-0.565
4815,-0.615,-0.555
4816,-0.620,-0.560
4817,-0.630,-0.575
4818,-0.655,-0.590
4819,-0.655,-0.590
4820,-0.655,-0.605
4821,-0.650,-0.605
4822,-0.660,-0.600
4823,-0.630,-0.605
4824,-0.615,-0.610
4825,-0.615,-0.600
4826,-0.610,-0.590
4827,-0.605,-0.580
4828,-0.605,-0.585
4829,-0.610,-0.590
4830,-0.605,-0.585
4831,-0.600,-0.590
4832,-0.605,-0.590
4833,-0.590,-0.580
4834,-0.605,-0.585
4835,-0.605,-0.580
4836,-0.605,-0.585
4837,-0.615,-0.570
4838,-0.620,-0.565
4839,-0.605,-0.570
4840,-0.615,-0.565
4841,-0.620,-0.580
4842,-0.610,-0.595
4843,-0.615,-0.600
4844,-0.620,-0.610
4845,-0.630,-0.605
4846,-0.640,-0.615
4847,-0.635,-0.605
4848,-0.635,-0.595
4849,-0.640,-0.590
4850,-0.630,-0.585
4851,-0.615,-0.570
4852,-0.605,-0.580
4853,-0.615,-0.575
4854,-0.615,-0.585
4855,-0.620,-0.590
4856,-0.635,-0.590
4857,-0.640,-0.605
4858,-0.635,-0.600
4859,-0.650,-0.610
4860,-0.635,-0.590
4861,-0.625,-0.590
4862,-0.615,-0.585
4863,-0.605,-0.580
4864,-0.595,-0.590
4865,-0.595,-0.595
4866,-0.600,-0.595
4867,-0.610,-0.600
4868,-0.610,-0.615
4869,-0.625,-0.605
4870,-0.640,-0.600
4871,-0.635,-0.600
4872,-0.635,-0.595
4873,-0.630,-0.600
4874,-0.635,-0.600
4875,-0.635,-0.590
4876,-0.640,-0.600
4877,-0.650,-0.600
4878,-0.635,-0.620
4879,-0.640,-0.615
4880,-0.640,-0.630
4881,-0.640,-0.645
4882,-0.625,-0.650
4883,-0.625,-0.645
4884,-0.610,-0.640
4885,-0.595,-0.630
4886,-0.585,-0.610
4887,-0.580,-0.610
4888,-0.585,-0.600
4889,-0.590,-0.605
4890,-0.615,-0.605
4891,-0.635,-0.605
4892,-0.610,-0.600
4893,-0.520,-0.550
4894,-0.365,-0.480
4895,-0.160,-0.375
4896,0.110,-0.270
4897,0.400,-0.175
4898,0.710,-0.070
4899,1.030,0.015
4900,1.330,0.095
4901,1.560,0.175
4902,1.700,0.275
4903,1.760,0.370
4904,1.735,0.475
4905,1.640,0.525
4906,1.455,0.460
4907,1.150,0.230
4908,0.710,-0.115
4909,0.200,-0.585
4910,-0.285,-1.040
4911,-0.625,-1.420
4912,-0.795,-1.620
4913,-0.835,-1.625
4914,-0.785,-1.490
4915,-0.705,-1.285
4916,-0.660,-1.095
4917,-0.630,-0.950
4918,-0.630,-0.865
4919,-0.655,-0.805
4920,-0.685,-0.775
4921,-0.705,-0.735
4922,-0.700,-0.725
4923,-0.710,-0.695
4924,-0.700,-0.675
4925,-0.700,-0.630
4926,-0.705,-0.635
4927,-0.720,-0.625
4928,-0.730,-0.635
4929,-0.760,-0.625
4930,-0.765,-0.625
4931,-0.770,-0.620
4932,-0.785,-0.620
4933,-0.780,-0.600
4934,-0.780,-0.590
4935,-0.800,-0.590
4936,-0.800,-0.595
4937,-0.815,-0.600
4938,-0.820,-0.610
4939,-0.840,-0.615
4940,-0.840,-0.625
4941,-0.855,-0.640
4942,-0.860,-0.630
4943,-0.845,-0.640
4944,-0.845,-0.635
4945,-0.845,-0.625
4946,-0.835,-0.625
4947,-0.820,-0.610
4948,-0.825,-0.610
4949,-0.830,-0.610
4950,-0.820,-0.630
4951,-0.835,-0.625
4952,-0.855,-0.630
4953,-0.865,-0.635
4954,-0.875,-0.625
4955,-0.890,-0.625
4956,-0.890,-0.635
4957,-0.880,-0.615
4958,-0.870,-0.615
4959,-0.860,-0.605
4960,-0.865,-0.620
4961,-0.870,-0.625
4962,-0.875,-0.625
4963,-0.885,-0.635
4964,-0.895,-0.640
4965,-0.905,-0.655
4966,-0.920,-0.650
4967,-0.920,-0.650
4968,-0.925,-0.660
4969,-0.915,-0.635
4970,-0.920,-0.635
4971,-0.915,-0.610
4972,-0.925,-0.610
4973,-0.940,-0.620
4974,-0.955,-0.640
4975,-0.985,-0.635
4976,-0.990,-0.645
4977,-1.015,-0.655
4978,-1.035,-0.665
4979,-1.030,-0.660
4980,-1.040,-0.665
4981,-1.050,-0.660
4982,-1.060,-0.685
4983,-1.070,-0.680
4984,-1.070,-0.695
4985,-1.095,-0.715
4986,-1.105,-0.735
4987,-1.115,-0.745
4988,-1.150,-0.760
4989,-1.160,-0.790
4990,-1.180,-0.790
4991,-1.190,-0.800
4992,-1.210,-0.825
4993,-1.225,-0.835
4994,-1.250,-0.845
4995,-1.260,-0.860
4996,-1.250,-0.885
4997,-1.265,-0.895
4998,-1.265,-0.920
4999,-1.270,-0.935
5000,-1.270,-0.960
5001,-1.280,-0.975
5002,-1.280,-0.985
5003,-1.265,-0.980
5004,-1.230,-0.975
5005,-1.205,-0.955
5006,-1.180,-0.955
5007,-1.150,-0.940
5008,-1.115,-0.945
5009,-1.085,-0.920
5010,-1.060,-0.920
5011,-1.020,-0.900
5012,-0.995,-0.890
5013,-0.970,-0.875
5014,-0.935,-0.850
5015,-0.915,-0.825
5016,-0.870,-0.795
5017,-0.840,-0.770
5018,-0.820,-0.745
5019,-0.785,-0.710
5020,-0.750,-0.700
5021,-0.725,-0.695
5022,-0.715,-0.675
5023,-0.705,-0.670
5024,-0.710,-0.665
5025,-0.715,-0.665
5026,-0.705,-0.650
5027,-0.700,-0.635
5028,-0.685,-0.630
5029,-0.670,-0.600
5030,-0.670,-0.590
5031,-0.660,-0.575
5032,-0.645,-0.565
5033,-0.645,-0.580
5034,-0.635,-0.580
5035,-0.650,-0.580
5036,-0.660,-0.585
5037,-0.660,-0.600
5038,-0.660,-0.590
5039,-0.665,-0.585
5040,-0.660,-0.585
5041,-0.655,-0.575
5042,-0.645,-0.560
5043,-0.630,-0.555
5044,-0.635,-0.550
5045,-0.630,-0.555
5046,-0.625,-0.560
5047,-0.635,-0.560
5048,-0.645,-0.565
5049,-0.635,-0.575
5050,-0.645,-0.575
5051,-0.645,-0.565
5052,-0.645,-0.555
5053,-0.645,-0.555
5054,-0.625,-0.545
5055,-0.615,-0.540
5056,-0.605,-0.540
5057,-0.595,-0.530
5058,-0.585,-0.540
5059,-0.575,-0.540
5060,-0.570,-0.550
5061,-0.565,-0.555
5062,-0.570,-0.560
5063,-0.560,-0.560
5064,-0.560,-0.555
5065,-0.560,-0.560
5066,-0.560,-0.540
5067,-0.555,-0.520
5068,-0.545,-0.525
5069,-0.550,-0.530
5070,-0.545,-0.515
5071,-0.545,-0.520
5072,-0.545,-0.520
5073,-0.545,-0.530
5074,-0.550,-0.540
5075,-0.555,-0.515
5076,-0.545,-0.510
5077,-0.545,-0.495
5078,-0.535,-0.485
5079,-0.530,-0.485
5080,-0.520,-0.475
5081,-0.530,-0.480
5082,-0.535,-0.490
5083,-0.545,-0.485
5084,-0.535,-0.505
5085,-0.540,-0.510
5086,-0.535,-0.515
5087,-0.565,-0.505
5088,-0.555,-0.495
5089,-0.550,-0.485
5090,-0.540,-0.470
5091,-0.535,-0.460
5092,-0.530,-0.465
5093,-0.535,-0.485
5094,-0.545,-0.480
5095,-0.545,-0.485
5096,-0.555,-0.505
5097,-0.565,-0.495
5098,-0.585,-0.515
5099,-0.610,-0.505
5100,-0.625,-0.495
5101,-0.620,-0.495
5102,-0.625,-0.500
5103,-0.620,-0.490
5104,-0.610,-0.515
5105,-0.605,-0.515
5106,-0.605,-0.530
5107,-0.600,-0.535
5108,-0.605,-0.530
5109,-0.615,-0.535
5110,-0.610,-0.540
5111,-0.610,-0.530
5112,-0.600,-0.530
5113,-0.600,-0.535
5114,-0.595,-0.540
5115,-0.570,-0.525
5116,-0.560,-0.545
5117,-0.545,-0.550
5118,-0.545,-0.550
5119,-0.545,-0.540
5120,-0.545,-0.550
5121,-0.555,-0.550
5122,-0.565,-0.550
5123,-0.570,-0.545
5124,-0.580,-0.550
5125,-0.580,-0.555
5126,-0.595,-0.550
5127,-0.580,-0.550
5128,-0.575,-0.535
5129,-0.580,-0.535
5130,-0.565,-0.535
5131,-0.570,-0.530
5132,-0.570,-0.545
5133,-0.580,-0.565
5134,-0.585,-0.550
5135,-0.580,-0.545
5136,-0.590,-0.555
5137,-0.570,-0.530
5138,-0.580,-0.535
5139,-0.585,-0.530
5140,-0.575,-0.535
5141,-0.580,-0.540
5142,-0.575,-0.550
5143,-0.590,-0.540
5144,-0.590,-0.555
5145,-0.600,-0.565
5146,-0.610,-0.570
5147,-0.600,-0.570
5148,-0.600,-0.560
5149,-0.595,-0.560
5150,-0.590,-0.560
5151,-0.585,-0.545
5152,-0.580,-0.540
5153,-0.585,-0.535
5154,-0.600,-0.550
5155,-0.625,-0.550
5156,-0.625,-0.570
5157,-0.630,-0.575
5158,-0.650,-0.565
5159,-0.650,-0.565
5160,-0.645,-0.570
5161,-0.645,-0.555
5162,-0.650,-0.555
5163,-0.635,-0.540
5164,-0.610,-0.545
5165,-0.605,-0.545
5166,-0.585,-0.535
5167,-0.585,-0.555
5168,-0.585,-0.540
5169,-0.580,-0.540
5170,-0.575,-0.540
5171,-0.575,-0.530
5172,-0.565,-0.525
5173,-0.550,-0.520
5174,-0.545,-0.515
5175,-0.530,-0.505
5176,-0.520,-0.500
5177,-0.520,-0.505
5178,-0.515,-0.510
5179,-0.520,-0.510
5180,-0.530,-0.530
5181,-0.540,-0.545
5182,-0.540,-0.535
5183,-0.540,-0.530
5184,-0.510,-0.515
5185,-0.500,-0.510
5186,-0.515,-0.495
5187,-0.495,-0.485
5188,-0.495,-0.490
5189,-0.520,-0.485
5190,-0.525,-0.495
5191,-0.565,-0.490
5192,-0.575,-0.495
5193,-0.585,-0.500
5194,-0.550,-0.470
5195,-0.435,-0.410
5196,-0.255,-0.340
5197,-0.035,-0.220
5198,0.230,-0.100
5199,0.545,0.005
5200,0.895,0.120
5201,1.220,0.200
5202,1.505,0.290
5203,1.725,0.375
5204,1.830,0.470
5205,1.855,0.585
5206,1.805,0.670
5207,1.705,0.715
5208,1.525,0.605
5209,1.225,0.340
5210,0.755,-0.065
5211,0.190,-0.595
5212,-0.325,-1.110
5213,-0.685,-1.530
5214,-0.845,-1.725
5215,-0.855,-1.695
5216,-0.785,-1.545
5217,-0.715,-1.310
5218,-0.650,-1.115
5219,-0.620,-0.965
5220,-0.615,-0.865
5221,-0.625,-0.790
5222,-0.665,-0.750
5223,-0.680,-0.705
5224,-0.685,-0.680
5225,-0.690,-0.655
5226,-0.680,-0.625
5227,-0.680,-0.610
5228,-0.680,-0.590
5229,-0.670,-0.585
5230,-0.685,-0.570
5231,-0.690,-0.555
5232,-0.695,-0.540
5233,-0.675,-0.530
5234,-0.655,-0.510
5235,-0.645,-0.495
5236,-0.650,-0.495
5237,-0.645,-0.490
5238,-0.650,-0.485
5239,-0.650,-0.490
5240,-0.660,-0.500
5241,-0.675,-0.530
5242,-0.675,-0.525
5243,-0.690,-0.520
5244,-0.685,-0.520
5245,-0.680,-0.505
5246,-0.690,-0.490
5247,-0.685,-0.475
5248,-0.695,-0.480
5249,-0.715,-0.495
5250,-0.710,-0.490
5251,-0.730,-0.495
5252,-0.745,-0.520
5253,-0.745,-0.530
5254,-0.770,-0.530
5255,-0.765,-0.510
5256,-0.765,-0.510
5257,-0.760,-0.505
5258,-0.765,-0.500
5259,-0.770,-0.500
5260,-0.775,-0.500
5261,-0.780,-0.515
5262,-0.795,-0.520
5263,-0.810,-0.520
5264,-0.815,-0.535
5265,-0.845,-0.535
5266,-0.860,-0.535
5267,-0.860,-0.530
5268,-0.865,-0.540
5269,-0.880,-0.540
5270,-0.875,-0.520
5271,-0.885,-0.530
5272,-0.900,-0.525
5273,-0.915,-0.535
5274,-0.920,-0.550
5275,-0.925,-0.570
5276,-0.940,-0.575
5277,-0.955,-0.590
5278,-0.960,-0.595
5279,-0.965,-0.585
5280,-0.960,-0.565
5281,-0.950,-0.575
5282,-0.950,-0.565
5283,-0.945,-0.580
5284,-0.965,-0.605
5285,-0.955,-0.620
5286,-0.955,-0.625
5287,-0.980,-0.645
5288,-1.000,-0.665
5289,-1.020,-0.685
5290,-1.050,-0.680
5291,-1.075,-0.715
5292,-1.075,-0.730
5293,-1.095,-0.725
5294,-1.090,-0.745
5295,-1.085,-0.755
5296,-1.095,-0.775
5297,-1.100,-0.790
5298,-1.120,-0.810
5299,-1.140,-0.825
5300,-1.160,-0.850
5301,-1.170,-0.865
5302,-1.170,-0.885
5303,-1.185,-0.890
5304,-1.185,-0.895
5305,-1.175,-0.900
5306,-1.175,-0.905
5307,-1.140,-0.890
5308,-1.125,-0.900
5309,-1.085,-0.890
5310,-1.060,-0.900
5311,-1.030,-0.895
5312,-1.000,-0.880
5313,-0.965,-0.865
5314,-0.940,-0.845
5315,-0.895,-0.815
5316,-0.870,-0.780
5317,-0.840,-0.745
5318,-0.790,-0.730
5319,-0.765,-0.700
5320,-0.730,-0.680
5321,-0.725,-0.670
5322,-0.695,-0.655
5323,-0.695,-0.655
5324,-0.685,-0.630
5325,-0.675,-0.625
5326,-0.665,-0.620
5327,-0.675,-0.610
5328,-0.665,-0.590
5329,-0.640,-0.570
5330,-0.625,-0.560
5331,-0.615,-0.550
5332,-0.610,-0.535
5333,-0.620,-0.530
5334,-0.605,-0.530
5335,-0.595,-0.545
5336,-0.595,-0.540
5337,-0.595,-0.545
5338,-0.615,-0.550
5339,-0.615,-0.530
5340,-0.605,-0.525
5341,-0.595,-0.525
5342,-0.585,-0.520
5343,-0.580,-0.510
5344,-0.570,-0.505
5345,-0.560,-0.515
5346,-0.550,-0.515
5347,-0.545,-0.525
5348,-0.555,-0.525
5349,-0.560,-0.530
5350,-0.555,-0.535
5351,-0.560,-0.520
5352,-0.575,-0.520
5353,-0.565,-0.500
5354,-0.570,-0.500
5355,-0.555,-0.500
5356,-0.550,-0.505
5357,-0.545,-0.500
5358,-0.545,-0.510
5359,-0.545,-0.515
5360,-0.555,-0.525
5361,-0.565,-0.525
5362,-0.575,-0.520
5363,-0.565,-0.525
5364,-0.560,-0.530
5365,-0.560,-0.525
5366,-0.550,-0.505
5367,-0.545,-0.505
5368,-0.545,-0.500
5369,-0.550,-0.500
5370,-0.555,-0.495
5371,-0.565,-0.495
5372,-0.550,-0.495
5373,-0.565,-0.500
5374,-0.570,-0.505
5375,-0.570,-0.480
5376,-0.560,-0.495
5377,-0.550,-0.475
5378,-0.540,-0.470
5379,-0.545,-0.450
5380,-0.540,-0.455
5381,-0.550,-0.470
5382,-0.565,-0.450
5383,-0.570,-0.470
5384,-0.565,-0.480
5385,-0.575,-0.485
5386,-0.580,-0.490
5387,-0.565,-0.460
5388,-0.550,-0.465
5389,-0.545,-0.450
5390,-0.515,-0.430
5391,-0.500,-0.425
5392,-0.490,-0.410
5393,-0.480,-0.415
5394,-0.490,-0.405
5395,-0.495,-0.420
5396,-0.490,-0.425
5397,-0.490,-0.430
5398,-0.495,-0.435
5399,-0.490,-0.430
5400,-0.485,-0.430
5401,-0.470,-0.410
5402,-0.480,-0.415
5403,-0.465,-0.405
5404,-0.460,-0.405
5405,-0.465,-0.415
5406,-0.445,-0.415
5407,-0.445,-0.425
5408,-0.460,-0.435
5409,-0.455,-0.445
5410,-0.465,-0.440
5411,-0.470,-0.445
5412,-0.470,-0.445
5413,-0.480,-0.435
5414,-0.465,-0.430
5415,-0.470,-0.445
5416,-0.470,-0.430
5417,-0.475,-0.435
5418,-0.485,-0.445
5419,-0.495,-0.460
5420,-0.500,-0.470
5421,-0.510,-0.490
5422,-0.525,-0.495
5423,-0.535,-0.495
5424,-0.515,-0.495
5425,-0.505,-0.495
5426,-0.505,-0.490
5427,-0.495,-0.470
5428,-0.505,-0.480
5429,-0.510,-0.485
5430,-0.520,-0.495
5431,-0.530,-0.500
5432,-0.545,-0.515
5433,-0.540,-0.520
5434,-0.560,-0.520
5435,-0.555,-0.510
5436,-0.555,-0.515
5437,-0.560,-0.515
5438,-0.565,-0.520
5439,-0.575,-0.520
5440,-0.585,-0.530
5441,-0.580,-0.540
5442,-0.575,-0.540
5443,-0.580,-0.560
5444,-0.600,-0.570
5445,-0.595,-0.575
5446,-0.595,-0.565
5447,-0.590,-0.565
5448,-0.570,-0.555
5449,-0.580,-0.545
5450,-0.565,-0.535
5451,-0.560,-0.535
5452,-0.550,-0.515
5453,-0.545,-0.520
5454,-0.545,-0.520
5455,-0.555,-0.520
5456,-0.565,-0.525
5457,-0.555,-0.520
5458,-0.555,-0.520
5459,-0.560,-0.500
5460,-0.550,-0.505
5461,-0.540,-0.500
5462,-0.530,-0.480
5463,-0.520,-0.475
5464,-0.510,-0.480
5465,-0.495,-0.480
5466,-0.500,-0.495
5467,-0.500,-0.500
5468,-0.515,-0.505
5469,-0.505,-0.510
5470,-0.510,-0.510
5471,-0.510,-0.510
5472,-0.505,-0.500
5473,-0.515,-0.500
5474,-0.500,-0.495
5475,-0.495,-0.505
5476,-0.480,-0.500
5477,-0.485,-0.525
5478,-0.490,-0.515
5479,-0.505,-0.535
5480,-0.515,-0.540
5481,-0.530,-0.555
5482,-0.540,-0.550
5483,-0.530,-0.540
5484,-0.530,-0.540
5485,-0.525,-0.540
5486,-0.515,-0.535
5487,-0.500,-0.540
5488,-0.490,-0.530
5489,-0.485,-0.545
5490,-0.490,-0.540
5491,-0.505,-0.550
5492,-0.510,-0.560
5493,-0.520,-0.570
5494,-0.530,-0.565
5495,-0.535,-0.560
5496,-0.540,-0.585
5497,-0.540,-0.565
5498,-0.540,-0.570
5499,-0.550,-0.565
5500,-0.540,-0.550
5501,-0.545,-0.585
5502,-0.550,-0.580
5503,-0.565,-0.600
5504,-0.580,-0.595
5505,-0.590,-0.605
5506,-0.595,-0.600
5507,-0.600,-0.595
5508,-0.595,-0.585
5509,-0.595,-0.585
5510,-0.605,-0.570
5511,-0.580,-0.575
5512,-0.570,-0.565
5513,-0.560,-0.580
5514,-0.555,-0.560
5515,-0.555,-0.570
5516,-0.550,-0.580
5517,-0.540,-0.580
5518,-0.550,-0.575
5519,-0.550,-0.555
5520,-0.550,-0.550
5521,-0.535,-0.545
5522,-0.530,-0.530
5523,-0.525,-0.520
5524,-0.510,-0.505
5525,-0.505,-0.520
5526,-0.515,-0.520
5527,-0.520,-0.525
5528,-0.535,-0.535
5529,-0.530,-0.535
5530,-0.535,-0.540
5531,-0.520,-0.540
5532,-0.510,-0.530
5533,-0.500,-0.515
5534,-0.505,-0.505
5535,-0.490,-0.510
5536,-0.475,-0.500
5537,-0.485,-0.510
5538,-0.480,-0.500
5539,-0.480,-0.520
5540,-0.500,-0.525
5541,-0.490,-0.545
5542,-0.495,-0.545
5543,-0.500,-0.540
5544,-0.495,-0.530
5545,-0.485,-0.525
5546,-0.480,-0.530
5547,-0.470,-0.525
5548,-0.465,-0.520
5549,-0.445,-0.535
5550,-0.455,-0.535
5551,-0.465,-0.545
5552,-0.465,-0.545
5553,-0.460,-0.550
5554,-0.480,-0.550
5555,-0.495,-0.555
5556,-0.520,-0.530
5557,-0.530,-0.540
5558,-0.540,-0.530
5559,-0.540,-0.500
5560,-0.480,-0.475
5561,-0.370,-0.430
5562,-0.205,-0.345
5563,-0.015,-0.265
5564,0.230,-0.180
5565,0.495,-0.095
5566,0.785,-0.015
5567,1.075,0.065
5568,1.365,0.145
5569,1.600,0.245
5570,1.750,0.340
5571,1.825,0.450
5572,1.825,0.560
5573,1.765,0.620
5574,1.610,0.580
5575,1.360,0.380
5576,0.965,0.030
5577,0.440,-0.405
5578,-0.100,-0.875
5579,-0.510,-1.290
5580,-0.750,-1.575
5581,-0.820,-1.650
5582,-0.785,-1.555
5583,-0.695,-1.355
5584,-0.625,-1.145
5585,-0.585,-0.995
5586,-0.565,-0.880
5587,-0.580,-0.820
5588,-0.610,-0.790
5589,-0.640,-0.770
5590,-0.660,-0.755
5591,-0.675,-0.715
5592,-0.680,-0.695
5593,-0.675,-0.655
5594,-0.645,-0.645
5595,-0.630,-0.615
5596,-0.635,-0.605
5597,-0.645,-0.605
5598,-0.655,-0.595
5599,-0.660,-0.605
5600,-0.670,-0.620
5601,-0.690,-0.615
5602,-0.695,-0.615
5603,-0.700,-0.605
5604,-0.695,-0.590
5605,-0.695,-0.580
5606,-0.690,-0.580
5607,-0.685,-0.560
5608,-0.680,-0.550
5609,-0.685,-0.555
5610,-0.680,-0.570
5611,-0.690,-0.575
5612,-0.695,-0.580
5613,-0.690,-0.585
5614,-0.710,-0.585
5615,-0.710,-0.585
5616,-0.720,-0.575
5617,-0.705,-0.565
5618,-0.710,-0.550
5619,-0.690,-0.555
5620,-0.690,-0.555
5621,-0.700,-0.565
5622,-0.700,-0.565
5623,-0.710,-0.580
5624,-0.725,-0.575
5625,-0.725,-0.585
5626,-0.750,-0.595
5627,-0.760,-0.590
5628,-0.765,-0.580
5629,-0.780,-0.585
5630,-0.790,-0.580
5631,-0.805,-0.585
5632,-0.825,-0.580
5633,-0.835,-0.600
5634,-0.870,-0.615
5635,-0.890,-0.625
5636,-0.910,-0.640
5637,-0.920,-0.645
5638,-0.930,-0.655
5639,-0.945,-0.660
5640,-0.940,-0.665
5641,-0.930,-0.670
5642,-0.920,-0.655
5643,-0.930,-0.640
5644,-0.930,-0.625
5645,-0.930,-0.625
5646,-0.930,-0.635
5647,-0.940,-0.630
5648,-0.955,-0.640
5649,-0.970,-0.630
5650,-0.985,-0.635
5651,-1.000,-0.640
5652,-1.010,-0.650
5653,-1.025,-0.655
5654,-1.025,-0.660
5655,-1.035,-0.670
5656,-1.040,-0.680
5657,-1.055,-0.695
5658,-1.070,-0.710
5659,-1.095,-0.740
5660,-1.125,-0.760
5661,-1.140,-0.785
5662,-1.165,-0.815
5663,-1.170,-0.820
5664,-1.190,-0.830
5665,-1.185,-0.850
5666,-1.195,-0.860
5667,-1.190,-0.855
5668,-1.180,-0.875
5669,-1.190,-0.900
5670,-1.190,-0.915
5671,-1.185,-0.940
5672,-1.190,-0.945
5673,-1.190,-0.965
5674,-1.195,-0.980
5675,-1.180,-0.970
5676,-1.170,-0.950
5677,-1.130,-0.945
5678,-1.090,-0.935
5679,-1.035,-0.920
5680,-0.995,-0.885
5681,-0.945,-0.890
5682,-0.910,-0.870
5683,-0.875,-0.845
5684,-0.830,-0.845
5685,-0.805,-0.830
5686,-0.780,-0.795
5687,-0.765,-0.785
5688,-0.755,-0.765
5689,-0.720,-0.745
5690,-0.710,-0.735
5691,-0.695,-0.705
5692,-0.690,-0.695
5693,-0.670,-0.700
5694,-0.665,-0.680
5695,-0.665,-0.695
5696,-0.655,-0.680
5697,-0.660,-0.680
5698,-0.670,-0.675
5699,-0.660,-0.685
5700,-0.650,-0.665
5701,-0.605,-0.660
5702,-0.595,-0.640
5703,-0.585,-0.625
5704,-0.570,-0.610
5705,-0.555,-0.610
5706,-0.555,-0.605
5707,-0.555,-0.605
5708,-0.540,-0.615
5709,-0.560,-0.615
5710,-0.565,-0.610
5711,-0.555,-0.600
5712,-0.550,-0.600
5713,-0.550,-0.580
5714,-0.550,-0.575
5715,-0.535,-0.560
5716,-0.535,-0.555
5717,-0.530,-0.565
5718,-0.540,-0.560
5719,-0.540,-0.545
5720,-0.545,-0.555
5721,-0.555,-0.560
5722,-0.545,-0.550
5723,-0.540,-0.540
5724,-0.525,-0.535
5725,-0.520,-0.525
5726,-0.525,-0.520
5727,-0.500,-0.505
5728,-0.495,-0.495
5729,-0.475,-0.505
5730,-0.490,-0.495
5731,-0.475,-0.490
5732,-0.495,-0.495
5733,-0.510,-0.510
5734,-0.515,-0.505
5735,-0.520,-0.505
5736,-0.530,-0.490
5737,-0.525,-0.485
5738,-0.515,-0.485
5739,-0.505,-0.480
5740,-0.505,-0.470
5741,-0.510,-0.475
5742,-0.500,-0.475
5743,-0.505,-0.490
5744,-0.520,-0.495
5745,-0.520,-0.495
5746,-0.535,-0.510
5747,-0.550,-0.510
5748,-0.560,-0.505
5749,-0.575,-0.510
5750,-0.590,-0.510
5751,-0.595,-0.520
5752,-0.585,-0.515
5753,-0.580,-0.535
5754,-0.570,-0.535
5755,-0.565,-0.540
5756,-0.570,-0.550
5757,-0.575,-0.560
5758,-0.570,-0.560
5759,-0.570,-0.565
5760,-0.555,-0.560
5761,-0.545,-0.550
5762,-0.530,-0.550
5763,-0.510,-0.535
5764,-0.505,-0.540
5765,-0.500,-0.530
5766,-0.490,-0.520
5767,-0.490,-0.530
5768,-0.500,-0.540
5769,-0.505,-0.555
5770,-0.505,-0.550
5771,-0.500,-0.545
5772,-0.495,-0.545
5773,-0.485,-0.530
5774,-0.485,-0.530
5775,-0.470,-0.515
5776,-0.465,-0.520
5777,-0.470,-0.525
5778,-0.470,-0.530
5779,-0.470,-0.540
5780,-0.480,-0.555
5781,-0.480,-0.555
5782,-0.490,-0.545
5783,-0.495,-0.550
5784,-0.485,-0.545
5785,-0.475,-0.535
5786,-0.465,-0.530
5787,-0.450,-0.520
5788,-0.440,-0.515
5789,-0.440,-0.515
5790,-0.440,-0.520
5791,-0.455,-0.530
5792,-0.465,-0.535
5793,-0.490,-0.550
5794,-0.490,-0.550
5795,-0.515,-0.540
5796,-0.520,-0.540
5797,-0.515,-0.545
5798,-0.520,-0.535
5799,-0.515,-0.530
5800,-0.505,-0.530
5801,-0.510,-0.550
5802,-0.515,-0.545
5803,-0.505,-0.555
5804,-0.515,-0.555
5805,-0.530,-0.570
5806,-0.540,-0.575
5807,-0.555,-0.560
5808,-0.555,-0.550
5809,-0.555,-0.560
5810,-0.545,-0.535
5811,-0.540,-0.530
5812,-0.540,-0.535
5813,-0.530,-0.535
5814,-0.530,-0.540
5815,-0.530,-0.540
5816,-0.535,-0.550
5817,-0.545,-0.555
5818,-0.550,-0.575
5819,-0.545,-0.555
5820,-0.545,-0.545
5821,-0.535,-0.550
5822,-0.530,-0.530
5823,-0.525,-0.530
5824,-0.510,-0.530
5825,-0.530,-0.535
5826,-0.520,-0.535
5827,-0.515,-0.545
5828,-0.525,-0.550
5829,-0.530,-0.540
5830,-0.530,-0.545
5831,-0.540,-0.530
5832,-0.555,-0.520
5833,-0.575,-0.525
5834,-0.600,-0.520
5835,-0.595,-0.495
5836,-0.565,-0.480
5837,-0.480,-0.445
5838,-0.325,-0.375
5839,-0.130,-0.295
5840,0.105,-0.220
5841,0.385,-0.135
5842,0.695,-0.050
5843,1.020,0.045
5844,1.335,0.120
5845,1.595,0.190
5846,1.785,0.280
5847,1.870,0.375
5848,1.890,0.490
5849,1.845,0.555
5850,1.725,0.540
5851,1.525,0.395
5852,1.200,0.110
5853,0.735,-0.270
5854,0.195,-0.725
5855,-0.275,-1.155
5856,-0.590,-1.480
5857,-0.730,-1.625
5858,-0.720,-1.600
5859,-0.660,-1.445
5860,-0.570,-1.230
5861,-0.520,-1.070
5862,-0.510,-0.955
5863,-0.525,-0.880
5864,-0.555,-0.835
5865,-0.580,-0.815
5866,-0.600,-0.800
5867,-0.625,-0.755
5868,-0.630,-0.715
5869,-0.625,-0.695
5870,-0.630,-0.640
5871,-0.625,-0.600
5872,-0.610,-0.595
5873,-0.600,-0.590
5874,-0.610,-0.575
5875,-0.620,-0.585
5876,-0.625,-0.590
5877,-0.630,-0.600
5878,-0.635,-0.600
5879,-0.645,-0.580
5880,-0.650,-0.580
5881,-0.655,-0.575
5882,-0.650,-0.565
5883,-0.645,-0.560
5884,-0.635,-0.545
5885,-0.630,-0.550
5886,-0.640,-0.545
5887,-0.660,-0.555
5888,-0.675,-0.565
5889,-0.675,-0.570
5890,-0.705,-0.570
5891,-0.715,-0.565
5892,-0.715,-0.545
5893,-0.695,-0.555
5894,-0.700,-0.550
5895,-0.695,-0.550
5896,-0.700,-0.540
5897,-0.705,-0.540
5898,-0.715,-0.545
5899,-0.730,-0.555
5900,-0.750,-0.570
5901,-0.760,-0.570
5902,-0.765,-0.580
5903,-0.785,-0.565
5904,-0.780,-0.565
5905,-0.775,-0.565
5906,-0.765,-0.565
5907,-0.760,-0.540
5908,-0.765,-0.550
5909,-0.770,-0.560
5910,-0.765,-0.570
5911,-0.770,-0.575
5912,-0.795,-0.575
5913,-0.815,-0.600
5914,-0.825,-0.595
5915,-0.845,-0.595
5916,-0.860,-0.605
5917,-0.855,-0.610
5918,-0.860,-0.600
5919,-0.845,-0.615
5920,-0.835,-0.610
5921,-0.840,-0.625
5922,-0.860,-0.620
5923,-0.865,-0.640
5924,-0.875,-0.655
5925,-0.890,-0.665
5926,-0.905,-0.675
5927,-0.905,-0.670
5928,-0.910,-0.675
5929,-0.910,-0.675
5930,-0.920,-0.670
5931,-0.935,-0.680
5932,-0.930,-0.685
5933,-0.940,-0.700
5934,-0.960,-0.715
5935,-0.990,-0.735
5936,-1.010,-0.750
5937,-1.025,-0.780
5938,-1.035,-0.795
5939,-1.060,-0.820
5940,-1.070,-0.810
5941,-1.090,-0.835
5942,-1.095,-0.825
5943,-1.105,-0.845
5944,-1.105,-0.850
5945,-1.115,-0.865
5946,-1.110,-0.870
5947,-1.115,-0.885
5948,-1.115,-0.900
5949,-1.105,-0.905
5950,-1.085,-0.900
5951,-1.075,-0.905
5952,-1.045,-0.890
5953,-1.015,-0.875
5954,-0.965,-0.855
5955,-0.935,-0.840
5956,-0.895,-0.820
5957,-0.855,-0.805
5958,-0.830,-0.805
5959,-0.805,-0.785
5960,-0.810,-0.775
5961,-0.790,-0.765
5962,-0.775,-0.750
5963,-0.755,-0.735
5964,-0.745,-0.720
5965,-0.700,-0.700
5966,-0.680,-0.675
5967,-0.660,-0.660
5968,-0.650,-0.640
5969,-0.620,-0.650
5970,-0.615,-0.655
5971,-0.605,-0.645
5972,-0.610,-0.655
5973,-0.605,-0.660
5974,-0.600,-0.655
5975,-0.605,-0.650
5976,-0.610,-0.640
5977,-0.595,-0.635
5978,-0.580,-0.630
5979,-0.540,-0.610
5980,-0.510,-0.610
5981,-0.495,-0.605
5982,-0.480,-0.595
5983,-0.465,-0.605
5984,-0.465,-0.610
5985,-0.465,-0.610
5986,-0.470,-0.605
5987,-0.480,-0.605
5988,-0.490,-0.600
5989,-0.480,-0.595
5990,-0.470,-0.585
5991,-0.455,-0.585
5992,-0.465,-0.575
5993,-0.455,-0.595
5994,-0.460,-0.590
5995,-0.475,-0.595
5996,-0.490,-0.605
5997,-0.510,-0.620
5998,-0.510,-0.625
5999,-0.530,-0.615
6000,-0.555,-0.620
6001,-0.545,-0.620
6002,-0.560,-0.610
6003,-0.555,-0.615
6004,-0.560,-0.600
6005,-0.575,-0.615
6006,-0.560,-0.620
6007,-0.560,-0.620
6008,-0.570,-0.630
6009,-0.575,-0.630
6010,-0.570,-0.630
6011,-0.580,-0.625
6012,-0.575,-0.605
6013,-0.575,-0.600
6014,-0.560,-0.590
6015,-0.560,-0.580
6016,-0.565,-0.575
6017,-0.550,-0.575
6018,-0.560,-0.580
6019,-0.560,-0.570
6020,-0.560,-0.585
6021,-0.545,-0.585
6022,-0.530,-0.590
6023,-0.525,-0.580
6024,-0.525,-0.560
6025,-0.500,-0.545
6026,-0.500,-0.530
6027,-0.495,-0.520
6028,-0.485,-0.520
6029,-0.485,-0.515
6030,-0.490,-0.525
6031,-0.490,-0.530
6032,-0.490,-0.525
6033,-0.495,-0.535
6034,-0.495,-0.540
6035,-0.490,-0.540
6036,-0.480,-0.540
6037,-0.465,-0.535
6038,-0.455,-0.515
6039,-0.445,-0.505
6040,-0.420,-0.500
6041,-0.435,-0.490
6042,-0.435,-0.505
6043,-0.445,-0.510
6044,-0.460,-0.535
6045,-0.480,-0.525
6046,-0.505,-0.540
6047,-0.520,-0.530
6048,-0.470,-0.510
6049,-0.365,-0.460
6050,-0.190,-0.375
6051,0.015,-0.260
6052,0.270,-0.145
6053,0.545,-0.060
6054,0.845,0.015
6055,1.145,0.050
6056,1.415,0.105
6057,1.635,0.160
6058,1.780,0.235
6059,1.825,0.330
6060,1.800,0.405
6061,1.700,0.415
6062,1.515,0.320
6063,1.190,0.050
6064,0.725,-0.335
6065,0.185,-0.800
6066,-0.310,-1.240
6067,-0.650,-1.570
6068,-0.805,-1.735
6069,-0.815,-1.725
6070,-0.750,-1.570
6071,-0.670,-1.365
6072,-0.620,-1.160
6073,-0.595,-1.035
6074,-0.585,-0.940
6075,-0.610,-0.885
6076,-0.625,-0.850
6077,-0.640,-0.840
6078,-0.650,-0.805
6079,-0.645,-0.785
6080,-0.655,-0.755
6081,-0.655,-0.725
6082,-0.655,-0.710
6083,-0.670,-0.690
6084,-0.675,-0.665
6085,-0.685,-0.660
6086,-0.675,-0.645
6087,-0.670,-0.635
6088,-0.665,-0.615
6089,-0.685,-0.615
6090,-0.680,-0.605
6091,-0.685,-0.605
6092,-0.680,-0.605
6093,-0.680,-0.605
6094,-0.685,-0.595
6095,-0.700,-0.580
6096,-0.700,-0.580
6097,-0.700,-0.575
6098,-0.690,-0.570
6099,-0.680,-0.555
6100,-0.675,-0.560
6101,-0.675,-0.580
6102,-0.685,-0.570
6103,-0.685,-0.585
6104,-0.695,-0.595
6105,-0.700,-0.600
6106,-0.710,-0.590
6107,-0.730,-0.585
6108,-0.715,-0.580
6109,-0.715,-0.565
6110,-0.705,-0.555
6111,-0.710,-0.565
6112,-0.705,-0.565
6113,-0.705,-0.565
6114,-0.710,-0.565
6115,-0.725,-0.585
6116,-0.730,-0.595
6117,-0.730,-0.615
6118,-0.745,-0.610
6119,-0.750,-0.615
6120,-0.760,-0.610
6121,-0.760,-0.600
6122,-0.765,-0.595
6123,-0.770,-0.595
6124,-0.770,-0.585
6125,-0.780,-0.600
6126,-0.790,-0.605
6127,-0.795,-0.625
6128,-0.820,-0.630
6129,-0.840,-0.640
6130,-0.850,-0.645
6131,-0.860,-0.655
6132,-0.875,-0.655
6133,-0.900,-0.655
6134,-0.910,-0.660
6135,-0.935,-0.670
6136,-0.940,-0.665
6137,-0.955,-0.695
6138,-0.960,-0.695
6139,-0.970,-0.710
6140,-0.985,-0.735
6141,-1.005,-0.745
6142,-1.020,-0.760
6143,-1.030,-0.765
6144,-1.050,-0.780
6145,-1.060,-0.780
6146,-1.070,-0.780
6147,-1.085,-0.780
6148,-1.090,-0.780
6149,-1.105,-0.800
6150,-1.125,-0.815
6151,-1.140,-0.820
6152,-1.150,-0.840
6153,-1.160,-0.860
6154,-1.165,-0.880
6155,-1.165,-0.880
6156,-1.155,-0.885
6157,-1.135,-0.875
6158,-1.120,-0.890
6159,-1.085,-0.870
6160,-1.060,-0.860
6161,-1.035,-0.870
6162,-1.010,-0.870
6163,-0.975,-0.880
6164,-0.950,-0.875
6165,-0.920,-0.860
6166,-0.900,-0.850
6167,-0.860,-0.825
6168,-0.825,-0.810
6169,-0.800,-0.795
6170,-0.775,-0.780
6171,-0.750,-0.755
6172,-0.730,-0.740
6173,-0.690,-0.735
6174,-0.655,-0.735
6175,-0.640,-0.725
6176,-0.600,-0.735
6177,-0.610,-0.725
6178,-0.605,-0.725
6179,-0.585,-0.725
6180,-0.590,-0.705
6181,-0.575,-0.705
6182,-0.575,-0.695
6183,-0.575,-0.685
6184,-0.565,-0.680
6185,-0.555,-0.675
6186,-0.560,-0.680
6187,-0.565,-0.690
6188,-0.570,-0.695
6189,-0.565,-0.695
6190,-0.580,-0.695
6191,-0.585,-0.695
6192,-0.580,-0.680
6193,-0.575,-0.680
6194,-0.575,-0.655
6195,-0.580,-0.650
6196,-0.555,-0.645
6197,-0.550,-0.660
6198,-0.550,-0.660
6199,-0.565,-0.675
6200,-0.565,-0.680
6201,-0.565,-0.675
6202,-0.565,-0.675
6203,-0.555,-0.660
6204,-0.560,-0.655
6205,-0.555,-0.635
6206,-0.545,-0.620
6207,-0.545,-0.605
6208,-0.550,-0.590
6209,-0.540,-0.600
6210,-0.545,-0.595
6211,-0.540,-0.605
6212,-0.535,-0.600
6213,-0.540,-0.590
6214,-0.545,-0.600
6215,-0.550,-0.590
6216,-0.540,-0.580
6217,-0.535,-0.575
6218,-0.525,-0.575
6219,-0.520,-0.565
6220,-0.505,-0.555
6221,-0.495,-0.560
6222,-0.495,-0.565
6223,-0.505,-0.565
6224,-0.505,-0.575
6225,-0.510,-0.570
6226,-0.505,-0.575
6227,-0.505,-0.570
6228,-0.495,-0.555
6229,-0.490,-0.555
6230,-0.485,-0.545
6231,-0.480,-0.550
6232,-0.465,-0.555
6233,-0.460,-0.560
6234,-0.480,-0.560
6235,-0.475,-0.550
6236,-0.495,-0.555
6237,-0.505,-0.575
6238,-0.520,-0.590
6239,-0.520,-0.585
6240,-0.515,-0.590
6241,-0.530,-0.600
6242,-0.525,-0.590
6243,-0.520,-0.600
6244,-0.515,-0.600
6245,-0.520,-0.595
6246,-0.520,-0.610
6247,-0.525,-0.615
6248,-0.530,-0.620
6249,-0.535,-0.635
6250,-0.545,-0.640
6251,-0.545,-0.645
6252,-0.545,-0.650
6253,-0.540,-0.635
6254,-0.550,-0.630
6255,-0.540,-0.615
6256,-0.525,-0.605
6257,-0.530,-0.615
6258,-0.530,-0.610
6259,-0.535,-0.630
6260,-0.545,-0.630
6261,-0.545,-0.635
6262,-0.555,-0.635
6263,-0.555,-0.620
6264,-0.555,-0.620
6265,-0.565,-0.610
6266,-0.555,-0.610
6267,-0.550,-0.605
6268,-0.540,-0.610
6269,-0.545,-0.615
6270,-0.530,-0.625
6271,-0.540,-0.630
6272,-0.535,-0.630
6273,-0.545,-0.645
6274,-0.530,-0.640
6275,-0.525,-0.640
6276,-0.530,-0.620
6277,-0.520,-0.625
6278,-0.530,-0.610
6279,-0.535,-0.615
6280,-0.520,-0.610
6281,-0.510,-0.620
6282,-0.510,-0.620
6283,-0.525,-0.635
6284,-0.535,-0.640
6285,-0.530,-0.640
6286,-0.530,-0.650
6287,-0.520,-0.640
6288,-0.515,-0.635
6289,-0.515,-0.630
6290,-0.505,-0.630
6291,-0.490,-0.625
6292,-0.505,-0.625
6293,-0.510,-0.635
6294,-0.505,-0.640
6295,-0.500,-0.645
6296,-0.505,-0.655
6297,-0.520,-0.665
6298,-0.525,-0.675
6299,-0.535,-0.670
6300,-0.530,-0.660
6301,-0.530,-0.665
6302,-0.525,-0.675
6303,-0.515,-0.670
6304,-0.515,-0.665
6305,-0.525,-0.680
6306,-0.520,-0.690
6307,-0.545,-0.705
6308,-0.540,-0.710
6309,-0.550,-0.730
6310,-0.550,-0.725
6311,-0.560,-0.715
6312,-0.565,-0.705
6313,-0.565,-0.695
6314,-0.540,-0.675
6315,-0.525,-0.670
6316,-0.525,-0.650
6317,-0.520,-0.655
6318,-0.510,-0.665
6319,-0.525,-0.670
6320,-0.515,-0.665
6321,-0.505,-0.680
6322,-0.495,-0.665
6323,-0.490,-0.655
6324,-0.485,-0.640
6325,-0.480,-0.615
6326,-0.470,-0.615
6327,-0.465,-0.585
6328,-0.460,-0.575
6329,-0.465,-0.585
6330,-0.470,-0.580
6331,-0.465,-0.600
6332,-0.475,-0.610
6333,-0.480,-0.625
6334,-0.480,-0.625
6335,-0.500,-0.620
6336,-0.490,-0.610
6337,-0.495,-0.590
6338,-0.490,-0.595
6339,-0.510,-0.580
6340,-0.520,-0.575
6341,-0.540,-0.575
6342,-0.565,-0.570
6343,-0.565,-0.575
6344,-0.525,-0.570
6345,-0.410,-0.520
6346,-0.240,-0.440
6347,-0.040,-0.340
6348,0.240,-0.235
6349,0.545,-0.125
6350,0.870,-0.010
6351,1.195,0.085
6352,1.480,0.185
6353,1.685,0.250
6354,1.810,0.355
6355,1.840,0.430
6356,1.805,0.515
6357,1.705,0.530
6358,1.530,0.430
6359,1.230,0.175
6360,0.805,-0.200
6361,0.270,-0.670
6362,-0.230,-1.140
6363,-0.570,-1.520
6364,-0.735,-1.745
6365,-0.750,-1.775
6366,-0.710,-1.680
6367,-0.635,-1.495
6368,-0.590,-1.305
6369,-0.565,-1.190
6370,-0.570,-1.100
6371,-0.590,-1.025
6372,-0.620,-0.980
6373,-0.635,-0.940
6374,-0.655,-0.890
6375,-0.660,-0.850
6376,-0.650,-0.815
6377,-0.650,-0.810
6378,-0.640,-0.790
6379,-0.635,-0.780
6380,-0.650,-0.765
6381,-0.640,-0.755
6382,-0.670,-0.750
6383,-0.695,-0.740
6384,-0.690,-0.725
6385,-0.700,-0.720
6386,-0.685,-0.705
6387,-0.680,-0.695
6388,-0.680,-0.680
6389,-0.670,-0.675
6390,-0.675,-0.655
6391,-0.665,-0.665
6392,-0.680,-0.660
6393,-0.695,-0.665
6394,-0.715,-0.665
6395,-0.720,-0.660
6396,-0.730,-0.650
6397,-0.735,-0.635
6398,-0.725,-0.625
6399,-0.735,-0.620
