'sample interval','MLII','V1'
'0.00277778 sec','mV','mV'
0,-0.140,-0.375
1,-0.140,-0.375
2,-0.140,-0.375
3,-0.140,-0.375
4,-0.140,-0.375
5,-0.140,-0.375
6,-0.140,-0.375
7,-0.140,-0.375
8,-0.140,-0.350
9,-0.115,-0.355
10,-0.140,-0.370
11,-0.140,-0.385
12,-0.155,-0.385
13,-0.145,-0.365
14,-0.130,-0.360
15,-0.110,-0.360
16,-0.125,-0.360
17,-0.125,-0.375
18,-0.130,-0.360
19,-0.125,-0.350
20,-0.100,-0.335
21,-0.075,-0.320
22,-0.075,-0.320
23,-0.070,-0.340
24,-0.075,-0.325
25,-0.070,-0.320
26,-0.060,-0.295
27,-0.025,-0.280
28,-0.020,-0.285
29,-0.005,-0.290
30,0.005,-0.300
31,0.050,-0.310
32,0.115,-0.330
33,0.160,-0.360
34,0.170,-0.380
35,0.175,-0.380
36,0.165,-0.390
37,0.170,-0.380
38,0.150,-0.380
39,0.185,-0.380
40,0.135,-0.385
41,0.105,-0.390
42,0.080,-0.390
43,0.065,-0.365
44,0.060,-0.355
45,0.060,-0.345
46,0.015,-0.380
47,-0.025,-0.395
48,-0.070,-0.405
49,-0.090,-0.395
50,-0.120,-0.375
51,-0.130,-0.385
52,-0.120,-0.395
53,-0.150,-0.415
54,-0.170,-0.400
55,-0.175,-0.395
56,-0.165,-0.390
57,-0.145,-0.385
58,-0.155,-0.400
59,-0.160,-0.395
60,-0.160,-0.385
61,-0.150,-0.375
62,-0.140,-0.380
63,-0.120,-0.385
64,-0.140,-0.395
65,-0.155,-0.390
66,-0.155,-0.375
67,-0.135,-0.335
68,-0.130,-0.285
69,-0.110,-0.245
70,-0.105,-0.255
71,-0.130,-0.330
72,-0.140,-0.440
73,-0.140,-0.585
74,-0.140,-0.790
75,-0.100,-1.025
76,0.020,-1.210
77,0.180,-1.345
78,0.380,-1.380
79,0.605,-1.310
80,0.790,-1.195
81,0.895,-1.075
82,0.840,-0.930
83,0.590,-0.780
84,0.225,-0.635
85,-0.055,-0.475
86,-0.185,-0.360
87,-0.190,-0.310
88,-0.195,-0.295
89,-0.160,-0.290
90,-0.135,-0.295
91,-0.125,-0.280
92,-0.100,-0.275
93,-0.100,-0.280
94,-0.120,-0.290
95,-0.135,-0.305
96,-0.155,-0.290
97,-0.150,-0.285
98,-0.125,-0.285
99,-0.105,-0.295
100,-0.100,-0.300
101,-0.115,-0.305
102,-0.125,-0.305
103,-0.120,-0.295
104,-0.100,-0.295
105,-0.095,-0.290
106,-0.105,-0.300
107,-0.115,-0.330
108,-0.120,-0.320
109,-0.110,-0.305
110,-0.105,-0.290
111,-0.095,-0.295
112,-0.095,-0.305
113,-0.110,-0.315
114,-0.110,-0.320
115,-0.105,-0.305
116,-0.090,-0.295
117,-0.085,-0.310
118,-0.090,-0.310
119,-0.115,-0.320
120,-0.105,-0.325
121,-0.090,-0.305
122,-0.085,-0.300
123,-0.085,-0.285
124,-0.085,-0.310
125,-0.090,-0.315
126,-0.100,-0.310
127,-0.095,-0.295
128,-0.080,-0.285
129,-0.060,-0.285
130,-0.075,-0.295
131,-0.080,-0.315
132,-0.085,-0.320
133,-0.075,-0.300
134,-0.070,-0.285
135,-0.055,-0.290
136,-0.070,-0.305
137,-0.085,-0.300
138,-0.080,-0.310
139,-0.085,-0.295
140,-0.055,-0.300
141,-0.040,-0.290
142,-0.050,-0.295
143,-0.065,-0.305
144,-0.060,-0.305
145,-0.065,-0.295
146,-0.050,-0.285
147,-0.035,-0.290
148,-0.045,-0.290
149,-0.045,-0.290
150,-0.045,-0.305
151,-0.045,-0.290
152,-0.030,-0.270
153,-0.035,-0.265
154,-0.020,-0.285
155,-0.040,-0.295
156,-0.050,-0.310
157,-0.055,-0.290
158,-0.030,-0.280
159,-0.025,-0.270
160,-0.030,-0.290
161,-0.055,-0.300
162,-0.055,-0.295
163,-0.050,-0.280
164,-0.040,-0.270
165,-0.040,-0.290
166,-0.050,-0.295
167,-0.065,-0.300
168,-0.085,-0.295
169,-0.080,-0.295
170,-0.080,-0.280
171,-0.070,-0.285
172,-0.070,-0.310
173,-0.080,-0.315
174,-0.090,-0.315
175,-0.090,-0.310
176,-0.095,-0.310
177,-0.090,-0.300
178,-0.090,-0.310
179,-0.115,-0.320
180,-0.135,-0.330
181,-0.115,-0.325
182,-0.105,-0.320
183,-0.100,-0.330
184,-0.110,-0.335
185,-0.125,-0.340
186,-0.140,-0.335
187,-0.140,-0.330
188,-0.120,-0.320
189,-0.115,-0.330
190,-0.130,-0.345
191,-0.135,-0.360
192,-0.150,-0.360
193,-0.145,-0.340
194,-0.130,-0.325
195,-0.130,-0.335
196,-0.145,-0.340
197,-0.150,-0.375
198,-0.160,-0.360
199,-0.150,-0.350
200,-0.130,-0.335
201,-0.125,-0.335
202,-0.125,-0.350
203,-0.155,-0.370
204,-0.155,-0.360
205,-0.155,-0.350
206,-0.140,-0.340
207,-0.125,-0.350
208,-0.130,-0.355
209,-0.135,-0.370
210,-0.150,-0.360
211,-0.155,-0.345
212,-0.135,-0.340
213,-0.130,-0.340
214,-0.135,-0.350
215,-0.140,-0.365
216,-0.165,-0.360
217,-0.150,-0.360
218,-0.135,-0.340
219,-0.125,-0.330
220,-0.145,-0.350
221,-0.150,-0.360
222,-0.160,-0.365
223,-0.155,-0.355
224,-0.135,-0.345
225,-0.140,-0.350
226,-0.150,-0.355
227,-0.145,-0.375
228,-0.160,-0.365
229,-0.155,-0.360
230,-0.150,-0.335
231,-0.130,-0.350
232,-0.125,-0.365
233,-0.145,-0.385
234,-0.150,-0.375
235,-0.145,-0.365
236,-0.135,-0.360
237,-0.120,-0.355
238,-0.130,-0.360
239,-0.130,-0.370
240,-0.150,-0.380
241,-0.130,-0.355
242,-0.125,-0.365
243,-0.110,-0.350
244,-0.120,-0.365
245,-0.135,-0.385
246,-0.140,-0.385
247,-0.130,-0.355
248,-0.115,-0.350
249,-0.105,-0.360
250,-0.110,-0.365
251,-0.115,-0.375
252,-0.125,-0.380
253,-0.125,-0.360
254,-0.105,-0.355
255,-0.100,-0.340
256,-0.105,-0.355
257,-0.110,-0.365
258,-0.120,-0.375
259,-0.110,-0.365
260,-0.100,-0.350
261,-0.080,-0.355
262,-0.085,-0.360
263,-0.120,-0.385
264,-0.110,-0.380
265,-0.105,-0.370
266,-0.105,-0.355
267,-0.090,-0.360
268,-0.085,-0.375
269,-0.105,-0.380
270,-0.120,-0.365
271,-0.105,-0.365
272,-0.105,-0.355
273,-0.090,-0.355
274,-0.090,-0.365
275,-0.115,-0.390
276,-0.130,-0.380
277,-0.110,-0.370
278,-0.095,-0.355
279,-0.085,-0.355
280,-0.095,-0.365
281,-0.095,-0.385
282,-0.120,-0.380
283,-0.100,-0.370
284,-0.090,-0.350
285,-0.100,-0.360
286,-0.095,-0.370
287,-0.105,-0.380
288,-0.110,-0.385
289,-0.100,-0.370
290,-0.090,-0.355
291,-0.070,-0.360
292,-0.085,-0.370
293,-0.095,-0.365
294,-0.110,-0.375
295,-0.090,-0.365
296,-0.085,-0.350
297,-0.075,-0.340
298,-0.085,-0.360
299,-0.095,-0.375
300,-0.125,-0.360
301,-0.090,-0.340
302,-0.070,-0.325
303,-0.055,-0.320
304,-0.060,-0.325
305,-0.045,-0.335
306,-0.055,-0.320
307,-0.050,-0.310
308,-0.020,-0.290
309,-0.005,-0.285
310,0.000,-0.295
311,0.020,-0.290
312,0.020,-0.285
313,0.050,-0.290
314,0.115,-0.310
315,0.175,-0.340
316,0.200,-0.380
317,0.200,-0.400
318,0.180,-0.410
319,0.200,-0.400
320,0.205,-0.385
321,0.190,-0.385
322,0.145,-0.395
323,0.115,-0.400
324,0.095,-0.385
325,0.075,-0.360
326,0.070,-0.350
327,0.065,-0.370
328,0.020,-0.385
329,-0.020,-0.395
330,-0.075,-0.395
331,-0.085,-0.405
332,-0.105,-0.395
333,-0.100,-0.395
334,-0.120,-0.410
335,-0.160,-0.410
336,-0.160,-0.405
337,-0.155,-0.395
338,-0.145,-0.395
339,-0.130,-0.395
340,-0.145,-0.400
341,-0.155,-0.410
342,-0.150,-0.410
343,-0.145,-0.410
344,-0.135,-0.390
345,-0.115,-0.380
346,-0.120,-0.375
347,-0.115,-0.375
348,-0.125,-0.340
349,-0.130,-0.290
350,-0.115,-0.270
351,-0.105,-0.300
352,-0.100,-0.395
353,-0.115,-0.550
354,-0.155,-0.755
355,-0.140,-0.990
356,-0.040,-1.180
357,0.140,-1.325
358,0.365,-1.340
359,0.570,-1.285
360,0.735,-1.160
361,0.805,-0.995
362,0.725,-0.830
363,0.465,-0.665
364,0.150,-0.540
365,-0.075,-0.435
366,-0.175,-0.370
367,-0.175,-0.340
368,-0.140,-0.310
369,-0.110,-0.310
370,-0.105,-0.330
371,-0.135,-0.345
372,-0.155,-0.360
373,-0.160,-0.340
374,-0.130,-0.330
375,-0.120,-0.330
376,-0.120,-0.350
377,-0.140,-0.365
378,-0.150,-0.360
379,-0.160,-0.350
380,-0.140,-0.340
381,-0.120,-0.345
382,-0.125,-0.345
383,-0.135,-0.375
384,-0.160,-0.355
385,-0.155,-0.350
386,-0.125,-0.340
387,-0.110,-0.340
388,-0.120,-0.355
389,-0.130,-0.370
390,-0.120,-0.375
391,-0.105,-0.375
392,-0.100,-0.355
393,-0.075,-0.360
394,-0.075,-0.370
395,-0.080,-0.390
396,-0.095,-0.390
397,-0.085,-0.370
398,-0.075,-0.360
399,-0.055,-0.365
400,-0.055,-0.360
401,-0.075,-0.375
402,-0.070,-0.375
403,-0.075,-0.360
404,-0.080,-0.345
405,-0.070,-0.340
406,-0.085,-0.360
407,-0.100,-0.365
408,-0.110,-0.340
409,-0.100,-0.335
410,-0.115,-0.325
411,-0.085,-0.335
412,-0.085,-0.330
413,-0.105,-0.365
414,-0.110,-0.350
415,-0.120,-0.335
416,-0.120,-0.325
417,-0.105,-0.315
418,-0.115,-0.325
419,-0.120,-0.330
420,-0.135,-0.325
421,-0.105,-0.320
422,-0.100,-0.300
423,-0.085,-0.305
424,-0.095,-0.305
425,-0.115,-0.315
426,-0.115,-0.315
427,-0.120,-0.300
428,-0.110,-0.295
429,-0.095,-0.310
430,-0.095,-0.320
431,-0.105,-0.325
432,-0.120,-0.320
433,-0.110,-0.300
434,-0.100,-0.285
435,-0.085,-0.280
436,-0.105,-0.300
437,-0.120,-0.310
438,-0.125,-0.310
439,-0.120,-0.315
440,-0.130,-0.295
441,-0.115,-0.310
442,-0.125,-0.310
443,-0.150,-0.325
444,-0.175,-0.330
445,-0.170,-0.320
446,-0.140,-0.305
447,-0.145,-0.315
448,-0.155,-0.330
449,-0.175,-0.350
450,-0.185,-0.340
451,-0.205,-0.335
452,-0.210,-0.335
453,-0.190,-0.340
454,-0.200,-0.345
455,-0.210,-0.365
456,-0.220,-0.365
457,-0.230,-0.360
458,-0.210,-0.335
459,-0.190,-0.355
460,-0.195,-0.355
461,-0.210,-0.380
462,-0.240,-0.360
463,-0.235,-0.365
464,-0.235,-0.350
465,-0.210,-0.365
466,-0.220,-0.365
467,-0.225,-0.365
468,-0.245,-0.365
469,-0.235,-0.355
470,-0.225,-0.355
471,-0.220,-0.350
472,-0.235,-0.350
473,-0.245,-0.365
474,-0.260,-0.375
475,-0.255,-0.350
476,-0.245,-0.350
477,-0.230,-0.360
478,-0.230,-0.370
479,-0.250,-0.385
480,-0.270,-0.375
481,-0.250,-0.360
482,-0.250,-0.350
483,-0.260,-0.360
484,-0.260,-0.365
485,-0.275,-0.375
486,-0.290,-0.360
487,-0.285,-0.365
488,-0.265,-0.350
489,-0.260,-0.355
490,-0.255,-0.370
491,-0.265,-0.380
492,-0.275,-0.380
493,-0.265,-0.370
494,-0.270,-0.365
495,-0.265,-0.365
496,-0.255,-0.385
497,-0.265,-0.395
498,-0.280,-0.380
499,-0.265,-0.365
500,-0.265,-0.360
501,-0.250,-0.375
502,-0.260,-0.385
503,-0.270,-0.400
504,-0.270,-0.400
505,-0.255,-0.375
506,-0.245,-0.350
507,-0.225,-0.365
508,-0.225,-0.375
509,-0.260,-0.395
510,-0.265,-0.390
511,-0.260,-0.390
512,-0.255,-0.380
513,-0.245,-0.395
514,-0.235,-0.395
515,-0.270,-0.405
516,-0.250,-0.405
517,-0.250,-0.395
518,-0.225,-0.375
519,-0.225,-0.390
520,-0.225,-0.400
521,-0.235,-0.415
522,-0.245,-0.410
523,-0.240,-0.400
524,-0.230,-0.385
525,-0.225,-0.390
526,-0.235,-0.415
527,-0.240,-0.425
528,-0.250,-0.415
529,-0.245,-0.400
530,-0.245,-0.390
531,-0.190,-0.390
532,-0.215,-0.400
533,-0.215,-0.415
534,-0.235,-0.410
535,-0.225,-0.395
536,-0.225,-0.405
537,-0.220,-0.390
538,-0.200,-0.405
539,-0.220,-0.430
540,-0.230,-0.430
541,-0.235,-0.410
542,-0.220,-0.395
543,-0.205,-0.405
544,-0.205,-0.405
545,-0.195,-0.415
546,-0.230,-0.420
547,-0.205,-0.400
548,-0.200,-0.390
549,-0.190,-0.385
550,-0.195,-0.405
551,-0.215,-0.420
552,-0.215,-0.415
553,-0.200,-0.400
554,-0.190,-0.380
555,-0.170,-0.390
556,-0.175,-0.400
557,-0.185,-0.420
558,-0.210,-0.425
559,-0.190,-0.405
560,-0.185,-0.385
561,-0.185,-0.390
562,-0.190,-0.400
563,-0.185,-0.415
564,-0.200,-0.420
565,-0.200,-0.390
566,-0.180,-0.390
567,-0.180,-0.395
568,-0.175,-0.405
569,-0.200,-0.410
570,-0.195,-0.410
571,-0.200,-0.385
572,-0.190,-0.385
573,-0.190,-0.385
574,-0.175,-0.400
575,-0.180,-0.405
576,-0.200,-0.410
577,-0.195,-0.400
578,-0.165,-0.380
579,-0.155,-0.380
580,-0.175,-0.405
581,-0.195,-0.405
582,-0.195,-0.395
583,-0.185,-0.390
584,-0.165,-0.375
585,-0.150,-0.385
586,-0.145,-0.375
587,-0.150,-0.385
588,-0.170,-0.365
589,-0.150,-0.345
590,-0.135,-0.330
591,-0.105,-0.330
592,-0.110,-0.335
593,-0.110,-0.355
594,-0.100,-0.355
595,-0.080,-0.345
596,-0.055,-0.335
597,-0.015,-0.350
598,0.000,-0.380
599,0.020,-0.415
600,0.030,-0.430
601,0.055,-0.440
602,0.065,-0.415
603,0.090,-0.425
604,0.090,-0.440
605,0.065,-0.450
606,0.045,-0.435
607,0.050,-0.420
608,0.030,-0.405
609,0.030,-0.395
610,-0.010,-0.395
611,-0.025,-0.410
612,-0.050,-0.395
613,-0.070,-0.390
614,-0.090,-0.385
615,-0.090,-0.395
616,-0.145,-0.390
617,-0.175,-0.415
618,-0.185,-0.415
619,-0.205,-0.420
620,-0.205,-0.385
621,-0.200,-0.395
622,-0.200,-0.420
623,-0.200,-0.420
624,-0.210,-0.425
625,-0.215,-0.395
626,-0.200,-0.390
627,-0.190,-0.380
628,-0.190,-0.395
629,-0.195,-0.405
630,-0.205,-0.400
631,-0.185,-0.365
632,-0.180,-0.330
633,-0.170,-0.310
634,-0.165,-0.330
635,-0.180,-0.350
636,-0.190,-0.430
637,-0.195,-0.505
638,-0.210,-0.610
639,-0.230,-0.775
640,-0.215,-0.945
641,-0.145,-1.105
642,-0.005,-1.200
643,0.190,-1.220
644,0.415,-1.170
645,0.615,-1.075
646,0.695,-0.960
647,0.580,-0.835
648,0.275,-0.690
649,-0.020,-0.535
650,-0.195,-0.415
651,-0.260,-0.350
652,-0.250,-0.325
653,-0.245,-0.335
654,-0.205,-0.325
655,-0.165,-0.305
656,-0.155,-0.290
657,-0.140,-0.295
658,-0.155,-0.305
659,-0.180,-0.325
660,-0.195,-0.325
661,-0.190,-0.305
662,-0.185,-0.305
663,-0.165,-0.300
664,-0.190,-0.315
665,-0.180,-0.325
666,-0.200,-0.325
667,-0.185,-0.300
668,-0.175,-0.295
669,-0.170,-0.290
670,-0.175,-0.305
671,-0.175,-0.320
672,-0.180,-0.305
673,-0.160,-0.295
674,-0.160,-0.300
675,-0.150,-0.280
676,-0.150,-0.295
677,-0.155,-0.300
678,-0.160,-0.315
679,-0.155,-0.290
680,-0.145,-0.290
681,-0.125,-0.290
682,-0.135,-0.305
683,-0.150,-0.315
684,-0.155,-0.305
685,-0.150,-0.295
686,-0.135,-0.290
687,-0.120,-0.285
688,-0.120,-0.290
689,-0.130,-0.305
690,-0.145,-0.305
691,-0.130,-0.290
692,-0.125,-0.280
693,-0.120,-0.290
694,-0.115,-0.290
695,-0.125,-0.315
696,-0.145,-0.305
697,-0.135,-0.300
698,-0.130,-0.280
699,-0.110,-0.295
700,-0.115,-0.295
701,-0.110,-0.310
702,-0.135,-0.310
703,-0.130,-0.295
704,-0.105,-0.290
705,-0.090,-0.285
706,-0.100,-0.295
707,-0.110,-0.305
708,-0.125,-0.300
709,-0.100,-0.290
710,-0.090,-0.275
711,-0.085,-0.270
712,-0.095,-0.285
713,-0.095,-0.305
714,-0.095,-0.295
715,-0.100,-0.285
716,-0.095,-0.280
717,-0.085,-0.280
718,-0.075,-0.290
719,-0.100,-0.305
720,-0.095,-0.300
721,-0.095,-0.295
722,-0.085,-0.275
723,-0.080,-0.290
724,-0.080,-0.290
725,-0.110,-0.315
726,-0.135,-0.315
727,-0.120,-0.295
728,-0.120,-0.285
729,-0.105,-0.285
730,-0.115,-0.305
731,-0.135,-0.310
732,-0.145,-0.305
733,-0.160,-0.310
734,-0.135,-0.300
735,-0.140,-0.300
736,-0.160,-0.305
737,-0.165,-0.320
738,-0.185,-0.315
739,-0.170,-0.310
740,-0.160,-0.305
741,-0.150,-0.300
742,-0.160,-0.325
743,-0.155,-0.325
744,-0.175,-0.320
745,-0.175,-0.310
746,-0.150,-0.295
747,-0.145,-0.295
748,-0.155,-0.310
749,-0.155,-0.320
750,-0.180,-0.320
751,-0.160,-0.305
752,-0.165,-0.295
753,-0.150,-0.305
754,-0.155,-0.320
755,-0.170,-0.315
756,-0.185,-0.325
757,-0.170,-0.305
758,-0.170,-0.285
759,-0.160,-0.290
760,-0.165,-0.320
761,-0.180,-0.320
762,-0.190,-0.325
763,-0.185,-0.320
764,-0.155,-0.305
765,-0.155,-0.310
766,-0.175,-0.310
767,-0.190,-0.325
768,-0.190,-0.320
769,-0.180,-0.300
770,-0.175,-0.305
771,-0.160,-0.315
772,-0.160,-0.315
773,-0.185,-0.345
774,-0.185,-0.325
775,-0.195,-0.325
776,-0.170,-0.310
777,-0.170,-0.305
778,-0.175,-0.330
779,-0.185,-0.330
780,-0.185,-0.335
781,-0.185,-0.340
782,-0.170,-0.310
783,-0.155,-0.310
784,-0.165,-0.315
785,-0.170,-0.345
786,-0.190,-0.340
787,-0.180,-0.325
788,-0.170,-0.310
789,-0.160,-0.330
790,-0.155,-0.335
791,-0.175,-0.345
792,-0.180,-0.340
793,-0.180,-0.330
794,-0.155,-0.325
795,-0.160,-0.315
796,-0.160,-0.325
797,-0.165,-0.345
798,-0.165,-0.345
799,-0.155,-0.325
800,-0.150,-0.310
801,-0.125,-0.320
802,-0.130,-0.345
803,-0.155,-0.345
804,-0.170,-0.345
805,-0.165,-0.330
806,-0.150,-0.315
807,-0.130,-0.320
808,-0.145,-0.325
809,-0.155,-0.335
810,-0.170,-0.340
811,-0.160,-0.330
812,-0.155,-0.325
813,-0.145,-0.320
814,-0.145,-0.345
815,-0.170,-0.355
816,-0.165,-0.345
817,-0.150,-0.330
818,-0.145,-0.310
819,-0.140,-0.320
820,-0.145,-0.330
821,-0.155,-0.340
822,-0.175,-0.340
823,-0.160,-0.330
824,-0.140,-0.310
825,-0.115,-0.325
826,-0.135,-0.330
827,-0.150,-0.335
828,-0.150,-0.340
829,-0.150,-0.340
830,-0.125,-0.310
831,-0.115,-0.305
832,-0.115,-0.310
833,-0.130,-0.340
834,-0.150,-0.325
835,-0.140,-0.315
836,-0.140,-0.315
837,-0.120,-0.300
838,-0.115,-0.295
839,-0.115,-0.310
840,-0.110,-0.305
841,-0.100,-0.280
842,-0.070,-0.270
843,-0.050,-0.265
844,-0.045,-0.270
845,-0.040,-0.280
846,-0.060,-0.265
847,-0.040,-0.260
848,-0.005,-0.250
849,0.055,-0.250
850,0.110,-0.305
851,0.140,-0.320
852,0.155,-0.340
853,0.160,-0.315
854,0.150,-0.305
855,0.170,-0.315
856,0.160,-0.330
857,0.125,-0.345
858,0.095,-0.340
859,0.080,-0.335
860,0.065,-0.310
861,0.085,-0.320
862,0.065,-0.320
863,0.020,-0.345
864,-0.025,-0.345
865,-0.070,-0.335
866,-0.095,-0.335
867,-0.110,-0.330
868,-0.130,-0.335
869,-0.165,-0.360
870,-0.175,-0.355
871,-0.185,-0.340
872,-0.165,-0.335
873,-0.150,-0.335
874,-0.155,-0.345
875,-0.175,-0.355
876,-0.180,-0.345
877,-0.160,-0.325
878,-0.170,-0.315
879,-0.140,-0.305
880,-0.130,-0.290
881,-0.145,-0.300
882,-0.160,-0.310
883,-0.160,-0.380
884,-0.160,-0.505
885,-0.160,-0.690
886,-0.145,-0.865
887,-0.065,-1.005
888,0.115,-1.070
889,0.360,-1.060
890,0.575,-1.005
891,0.735,-0.945
892,0.795,-0.875
893,0.760,-0.785
894,0.560,-0.700
895,0.310,-0.580
896,0.050,-0.470
897,-0.120,-0.395
898,-0.215,-0.340
899,-0.245,-0.310
900,-0.230,-0.265
901,-0.190,-0.255
902,-0.150,-0.235
903,-0.120,-0.230
904,-0.120,-0.245
905,-0.155,-0.250
906,-0.170,-0.255
907,-0.165,-0.230
908,-0.150,-0.215
909,-0.140,-0.235
910,-0.160,-0.245
911,-0.160,-0.260
912,-0.160,-0.255
913,-0.160,-0.245
914,-0.150,-0.225
915,-0.140,-0.220
916,-0.140,-0.230
917,-0.155,-0.240
918,-0.155,-0.250
919,-0.155,-0.235
920,-0.140,-0.225
921,-0.130,-0.225
922,-0.125,-0.235
923,-0.125,-0.240
924,-0.135,-0.245
925,-0.140,-0.230
926,-0.120,-0.215
927,-0.120,-0.215
928,-0.115,-0.240
929,-0.120,-0.255
930,-0.125,-0.235
931,-0.120,-0.230
932,-0.100,-0.225
933,-0.090,-0.230
934,-0.095,-0.235
935,-0.110,-0.260
936,-0.105,-0.245
937,-0.120,-0.235
938,-0.100,-0.225
939,-0.095,-0.225
940,-0.110,-0.225
941,-0.105,-0.250
942,-0.125,-0.245
943,-0.110,-0.225
944,-0.105,-0.220
945,-0.085,-0.205
946,-0.095,-0.230
947,-0.095,-0.235
948,-0.110,-0.225
949,-0.100,-0.225
950,-0.090,-0.200
951,-0.070,-0.205
952,-0.070,-0.220
953,-0.080,-0.235
954,-0.105,-0.230
955,-0.085,-0.210
956,-0.075,-0.200
957,-0.050,-0.205
958,-0.055,-0.205
959,-0.060,-0.220
960,-0.070,-0.225
961,-0.080,-0.205
962,-0.075,-0.190
963,-0.045,-0.210
964,-0.045,-0.215
965,-0.060,-0.220
966,-0.060,-0.215
967,-0.055,-0.205
968,-0.045,-0.190
969,-0.050,-0.195
970,-0.055,-0.205
971,-0.055,-0.230
972,-0.065,-0.225
973,-0.065,-0.200
974,-0.040,-0.175
975,-0.045,-0.185
976,-0.050,-0.200
977,-0.070,-0.225
978,-0.085,-0.205
979,-0.075,-0.205
980,-0.065,-0.205
981,-0.065,-0.200
982,-0.065,-0.225
983,-0.080,-0.235
984,-0.100,-0.235
985,-0.095,-0.215
986,-0.100,-0.205
987,-0.100,-0.225
988,-0.105,-0.235
989,-0.120,-0.250
990,-0.120,-0.235
991,-0.130,-0.230
992,-0.120,-0.220
993,-0.105,-0.235
994,-0.120,-0.245
995,-0.140,-0.260
996,-0.150,-0.250
997,-0.130,-0.230
998,-0.130,-0.245
999,-0.130,-0.255
1000,-0.135,-0.270
1001,-0.145,-0.270
1002,-0.150,-0.255
1003,-0.140,-0.245
1004,-0.135,-0.255
1005,-0.160,-0.275
1006,-0.165,-0.280
1007,-0.165,-0.280
1008,-0.155,-0.265
1009,-0.150,-0.265
1010,-0.135,-0.245
1011,-0.125,-0.255
1012,-0.160,-0.280
1013,-0.160,-0.275
1014,-0.160,-0.270
1015,-0.150,-0.260
1016,-0.135,-0.265
1017,-0.150,-0.255
1018,-0.150,-0.280
1019,-0.145,-0.270
1020,-0.135,-0.265
1021,-0.120,-0.260
1022,-0.115,-0.260
1023,-0.120,-0.270
1024,-0.125,-0.290
1025,-0.155,-0.290
1026,-0.140,-0.275
1027,-0.135,-0.260
1028,-0.115,-0.265
1029,-0.125,-0.285
1030,-0.145,-0.300
1031,-0.165,-0.290
1032,-0.155,-0.290
1033,-0.135,-0.260
1034,-0.120,-0.280
1035,-0.125,-0.280
1036,-0.145,-0.290
1037,-0.155,-0.295
1038,-0.145,-0.280
1039,-0.140,-0.270
1040,-0.140,-0.290
1041,-0.145,-0.285
1042,-0.160,-0.300
1043,-0.160,-0.305
1044,-0.150,-0.285
1045,-0.145,-0.280
1046,-0.155,-0.290
1047,-0.155,-0.300
1048,-0.155,-0.320
1049,-0.150,-0.300
1050,-0.160,-0.290
1051,-0.145,-0.275
1052,-0.140,-0.285
1053,-0.140,-0.285
1054,-0.160,-0.305
1055,-0.165,-0.295
1056,-0.140,-0.290
1057,-0.140,-0.290
1058,-0.130,-0.290
1059,-0.125,-0.300
1060,-0.140,-0.315
1061,-0.140,-0.305
1062,-0.135,-0.295
1063,-0.125,-0.280
1064,-0.115,-0.290
1065,-0.125,-0.285
1066,-0.140,-0.300
1067,-0.135,-0.305
1068,-0.125,-0.285
1069,-0.120,-0.285
1070,-0.110,-0.285
1071,-0.120,-0.305
1072,-0.125,-0.305
1073,-0.145,-0.300
1074,-0.140,-0.300
1075,-0.120,-0.295
1076,-0.100,-0.285
1077,-0.100,-0.295
1078,-0.115,-0.310
1079,-0.115,-0.305
1080,-0.120,-0.290
1081,-0.095,-0.280
1082,-0.105,-0.285
1083,-0.110,-0.300
1084,-0.110,-0.305
1085,-0.120,-0.305
1086,-0.105,-0.295
1087,-0.120,-0.285
1088,-0.110,-0.290
1089,-0.105,-0.285
1090,-0.110,-0.305
1091,-0.115,-0.310
1092,-0.115,-0.305
1093,-0.100,-0.280
1094,-0.090,-0.290
1095,-0.090,-0.295
1096,-0.095,-0.310
1097,-0.100,-0.295
1098,-0.100,-0.295
1099,-0.100,-0.280
1100,-0.080,-0.290
1101,-0.080,-0.305
1102,-0.090,-0.315
1103,-0.090,-0.305
1104,-0.095,-0.290
1105,-0.090,-0.275
1106,-0.070,-0.285
1107,-0.075,-0.290
1108,-0.090,-0.310
1109,-0.090,-0.310
1110,-0.100,-0.295
1111,-0.090,-0.285
1112,-0.085,-0.290
1113,-0.080,-0.305
1114,-0.080,-0.315
1115,-0.100,-0.305
1116,-0.095,-0.290
1117,-0.075,-0.280
1118,-0.065,-0.290
1119,-0.070,-0.295
1120,-0.105,-0.295
1121,-0.100,-0.305
1122,-0.095,-0.285
1123,-0.075,-0.265
1124,-0.065,-0.290
1125,-0.065,-0.285
1126,-0.075,-0.315
1127,-0.075,-0.310
1128,-0.060,-0.295
1129,-0.055,-0.270
1130,-0.045,-0.255
1131,-0.050,-0.255
1132,-0.055,-0.265
1133,-0.065,-0.250
1134,-0.040,-0.225
1135,-0.010,-0.225
1136,0.015,-0.220
1137,0.010,-0.230
1138,-0.010,-0.240
1139,-0.015,-0.240
1140,0.015,-0.225
1141,0.040,-0.215
1142,0.060,-0.235
1143,0.075,-0.255
1144,0.090,-0.295
1145,0.105,-0.300
1146,0.125,-0.305
1147,0.165,-0.305
1148,0.180,-0.300
1149,0.195,-0.325
1150,0.180,-0.330
1151,0.145,-0.330
1152,0.140,-0.310
1153,0.120,-0.300
1154,0.115,-0.285
1155,0.100,-0.275
1156,0.075,-0.295
1157,0.055,-0.300
1158,0.055,-0.280
1159,0.030,-0.260
1160,0.010,-0.275
1161,-0.030,-0.295
1162,-0.080,-0.310
1163,-0.095,-0.305
1164,-0.105,-0.295
1165,-0.110,-0.275
1166,-0.105,-0.290
1167,-0.120,-0.300
1168,-0.135,-0.315
1169,-0.145,-0.315
1170,-0.140,-0.300
1171,-0.125,-0.290
1172,-0.120,-0.285
1173,-0.125,-0.285
1174,-0.130,-0.305
1175,-0.130,-0.295
1176,-0.115,-0.270
1177,-0.105,-0.230
1178,-0.090,-0.210
1179,-0.105,-0.190
1180,-0.105,-0.200
1181,-0.120,-0.215
1182,-0.105,-0.245
1183,-0.100,-0.295
1184,-0.105,-0.400
1185,-0.140,-0.525
1186,-0.160,-0.670
1187,-0.120,-0.815
1188,-0.025,-0.940
1189,0.105,-1.040
1190,0.270,-1.105
1191,0.425,-1.115
1192,0.605,-1.065
1193,0.775,-0.970
1194,0.880,-0.825
1195,0.820,-0.675
1196,0.555,-0.545
1197,0.215,-0.420
1198,-0.055,-0.330
1199,-0.160,-0.265
1200,-0.185,-0.225
1201,-0.140,-0.205
1202,-0.090,-0.200
1203,-0.080,-0.205
1204,-0.085,-0.215
1205,-0.095,-0.215
1206,-0.105,-0.205
1207,-0.120,-0.200
1208,-0.100,-0.190
1209,-0.115,-0.205
1210,-0.120,-0.225
1211,-0.110,-0.220
1212,-0.105,-0.200
1213,-0.105,-0.190
1214,-0.085,-0.210
1215,-0.095,-0.205
1216,-0.105,-0.220
1217,-0.110,-0.210
1218,-0.100,-0.205
1219,-0.080,-0.200
1220,-0.070,-0.205
1221,-0.085,-0.205
1222,-0.090,-0.225
1223,-0.095,-0.215
1224,-0.090,-0.210
1225,-0.065,-0.195
1226,-0.070,-0.200
1227,-0.065,-0.215
1228,-0.075,-0.225
1229,-0.080,-0.215
1230,-0.060,-0.205
1231,-0.050,-0.190
1232,-0.045,-0.200
1233,-0.055,-0.215
1234,-0.055,-0.220
1235,-0.065,-0.225
1236,-0.060,-0.220
1237,-0.050,-0.205
1238,-0.040,-0.215
1239,-0.045,-0.220
1240,-0.070,-0.220
1241,-0.070,-0.220
1242,-0.055,-0.210
1243,-0.050,-0.210
1244,-0.040,-0.215
1245,-0.045,-0.220
1246,-0.050,-0.225
1247,-0.065,-0.225
1248,-0.070,-0.210
1249,-0.040,-0.190
1250,-0.035,-0.205
1251,-0.025,-0.215
1252,-0.055,-0.230
1253,-0.055,-0.220
1254,-0.050,-0.200
1255,-0.050,-0.200
1256,-0.025,-0.210
1257,-0.045,-0.210
1258,-0.050,-0.230
1259,-0.055,-0.225
1260,-0.045,-0.210
1261,-0.030,-0.195
1262,-0.020,-0.215
1263,-0.030,-0.205
1264,-0.040,-0.220
1265,-0.040,-0.215
1266,-0.035,-0.205
1267,-0.035,-0.195
1268,-0.005,-0.200
1269,-0.035,-0.205
1270,-0.040,-0.220
1271,-0.050,-0.225
1272,-0.045,-0.200
1273,-0.035,-0.190
1274,-0.030,-0.195
1275,-0.035,-0.210
1276,-0.045,-0.220
1277,-0.070,-0.220
1278,-0.055,-0.215
1279,-0.045,-0.205
1280,-0.050,-0.220
1281,-0.060,-0.215
1282,-0.075,-0.225
1283,-0.105,-0.230
1284,-0.100,-0.220
1285,-0.090,-0.200
1286,-0.090,-0.225
1287,-0.105,-0.225
1288,-0.125,-0.255
1289,-0.120,-0.255
1290,-0.115,-0.235
1291,-0.100,-0.225
1292,-0.090,-0.235
1293,-0.105,-0.245
1294,-0.120,-0.260
1295,-0.145,-0.255
1296,-0.140,-0.255
1297,-0.120,-0.240
1298,-0.115,-0.245
1299,-0.130,-0.265
1300,-0.140,-0.265
1301,-0.155,-0.250
1302,-0.145,-0.240
1303,-0.155,-0.235
1304,-0.145,-0.245
1305,-0.140,-0.270
1306,-0.160,-0.275
1307,-0.145,-0.275
1308,-0.145,-0.265
1309,-0.140,-0.260
1310,-0.150,-0.255
1311,-0.135,-0.260
1312,-0.150,-0.275
1313,-0.165,-0.275
1314,-0.160,-0.260
1315,-0.170,-0.260
1316,-0.145,-0.250
1317,-0.145,-0.270
1318,-0.185,-0.285
1319,-0.180,-0.280
1320,-0.180,-0.275
1321,-0.160,-0.270
1322,-0.140,-0.275
1323,-0.155,-0.285
1324,-0.170,-0.290
1325,-0.180,-0.285
1326,-0.185,-0.280
1327,-0.165,-0.265
1328,-0.160,-0.275
1329,-0.185,-0.290
1330,-0.180,-0.300
1331,-0.190,-0.295
1332,-0.180,-0.290
1333,-0.160,-0.270
1334,-0.150,-0.275
1335,-0.150,-0.280
1336,-0.160,-0.290
1337,-0.170,-0.295
1338,-0.170,-0.280
1339,-0.155,-0.270
1340,-0.150,-0.285
1341,-0.160,-0.290
1342,-0.175,-0.310
1343,-0.190,-0.310
1344,-0.195,-0.280
1345,-0.185,-0.275
1346,-0.170,-0.280
1347,-0.180,-0.285
1348,-0.165,-0.310
1349,-0.180,-0.315
1350,-0.165,-0.290
1351,-0.165,-0.295
1352,-0.155,-0.295
1353,-0.180,-0.310
1354,-0.195,-0.315
1355,-0.200,-0.310
1356,-0.180,-0.305
1357,-0.170,-0.290
1358,-0.165,-0.280
1359,-0.165,-0.295
1360,-0.175,-0.305
1361,-0.180,-0.300
1362,-0.170,-0.290
1363,-0.160,-0.280
1364,-0.145,-0.290
1365,-0.155,-0.305
1366,-0.170,-0.315
1367,-0.165,-0.310
1368,-0.175,-0.300
1369,-0.170,-0.290
1370,-0.140,-0.300
1371,-0.150,-0.310
1372,-0.170,-0.320
1373,-0.175,-0.315
1374,-0.170,-0.300
1375,-0.150,-0.295
1376,-0.145,-0.285
1377,-0.150,-0.300
1378,-0.160,-0.320
1379,-0.175,-0.310
1380,-0.155,-0.300
1381,-0.150,-0.290
1382,-0.140,-0.290
1383,-0.145,-0.310
1384,-0.150,-0.330
1385,-0.180,-0.315
1386,-0.170,-0.295
1387,-0.145,-0.285
1388,-0.130,-0.285
1389,-0.145,-0.300
1390,-0.155,-0.305
1391,-0.185,-0.330
1392,-0.165,-0.315
1393,-0.155,-0.295
1394,-0.140,-0.300
1395,-0.140,-0.305
1396,-0.150,-0.315
1397,-0.160,-0.320
1398,-0.155,-0.305
1399,-0.155,-0.305
1400,-0.140,-0.310
1401,-0.140,-0.315
1402,-0.145,-0.325
1403,-0.150,-0.310
1404,-0.165,-0.295
1405,-0.145,-0.285
1406,-0.130,-0.300
1407,-0.140,-0.315
1408,-0.145,-0.330
1409,-0.160,-0.315
1410,-0.160,-0.315
1411,-0.145,-0.295
1412,-0.130,-0.300
1413,-0.130,-0.305
1414,-0.155,-0.310
1415,-0.150,-0.305
1416,-0.145,-0.285
1417,-0.120,-0.270
1418,-0.115,-0.260
1419,-0.120,-0.255
1420,-0.135,-0.270
1421,-0.120,-0.250
1422,-0.110,-0.245
1423,-0.090,-0.230
1424,-0.075,-0.225
1425,-0.050,-0.230
1426,-0.055,-0.245
1427,-0.070,-0.225
1428,-0.035,-0.220
1429,0.000,-0.230
1430,0.020,-0.270
1431,0.050,-0.300
1432,0.075,-0.340
1433,0.090,-0.345
1434,0.095,-0.340
1435,0.115,-0.335
1436,0.120,-0.325
1437,0.115,-0.330
1438,0.085,-0.335
1439,0.060,-0.325
1440,0.040,-0.310
1441,0.040,-0.280
1442,0.035,-0.275
1443,0.015,-0.300
1444,-0.005,-0.310
1445,-0.025,-0.320
1446,-0.045,-0.305
1447,-0.070,-0.285
1448,-0.095,-0.300
1449,-0.130,-0.310
1450,-0.165,-0.325
1451,-0.165,-0.325
1452,-0.160,-0.320
1453,-0.175,-0.310
1454,-0.175,-0.305
1455,-0.180,-0.320
1456,-0.185,-0.330
1457,-0.200,-0.330
1458,-0.180,-0.315
1459,-0.170,-0.305
1460,-0.155,-0.305
1461,-0.150,-0.310
1462,-0.180,-0.315
1463,-0.170,-0.315
1464,-0.160,-0.280
1465,-0.150,-0.255
1466,-0.120,-0.220
1467,-0.110,-0.190
1468,-0.135,-0.170
1469,-0.150,-0.185
1470,-0.135,-0.225
1471,-0.115,-0.265
1472,-0.140,-0.405
1473,-0.165,-0.565
1474,-0.200,-0.755
1475,-0.175,-0.925
1476,-0.085,-1.070
1477,0.080,-1.180
1478,0.265,-1.235
1479,0.450,-1.220
1480,0.640,-1.145
1481,0.775,-1.010
1482,0.855,-0.865
1483,0.790,-0.710
1484,0.545,-0.570
1485,0.220,-0.445
1486,-0.055,-0.350
1487,-0.190,-0.255
1488,-0.220,-0.195
1489,-0.175,-0.185
1490,-0.145,-0.180
1491,-0.105,-0.200
1492,-0.105,-0.205
1493,-0.135,-0.205
1494,-0.130,-0.195
1495,-0.135,-0.200
1496,-0.115,-0.205
1497,-0.125,-0.195
1498,-0.135,-0.205
1499,-0.140,-0.220
1500,-0.115,-0.210
1501,-0.105,-0.195
1502,-0.100,-0.195
1503,-0.115,-0.215
1504,-0.120,-0.215
1505,-0.125,-0.220
1506,-0.125,-0.200
1507,-0.135,-0.195
1508,-0.110,-0.200
1509,-0.115,-0.215
1510,-0.125,-0.230
1511,-0.125,-0.225
1512,-0.115,-0.210
1513,-0.105,-0.205
1514,-0.075,-0.195
1515,-0.100,-0.210
1516,-0.115,-0.210
1517,-0.110,-0.215
1518,-0.095,-0.205
1519,-0.085,-0.190
1520,-0.060,-0.205
1521,-0.070,-0.215
1522,-0.080,-0.225
1523,-0.090,-0.205
1524,-0.070,-0.190
1525,-0.060,-0.180
1526,-0.045,-0.175
1527,-0.065,-0.200
1528,-0.065,-0.205
1529,-0.075,-0.200
1530,-0.070,-0.195
1531,-0.065,-0.190
1532,-0.060,-0.190
1533,-0.060,-0.195
1534,-0.065,-0.200
1535,-0.065,-0.200
1536,-0.060,-0.205
1537,-0.050,-0.185
1538,-0.060,-0.185
1539,-0.050,-0.210
1540,-0.050,-0.220
1541,-0.055,-0.200
1542,-0.035,-0.190
1543,-0.030,-0.180
1544,-0.010,-0.190
1545,-0.025,-0.200
1546,-0.035,-0.210
1547,-0.060,-0.215
1548,-0.040,-0.190
1549,-0.020,-0.165
1550,-0.020,-0.175
1551,-0.010,-0.190
1552,-0.030,-0.185
1553,-0.035,-0.190
1554,-0.020,-0.180
1555,-0.010,-0.160
1556,0.010,-0.170
1557,0.010,-0.190
1558,0.005,-0.200
1559,-0.015,-0.195
1560,-0.005,-0.175
1561,-0.005,-0.155
1562,-0.010,-0.160
1563,0.000,-0.170
1564,-0.020,-0.190
1565,-0.020,-0.190
1566,-0.020,-0.180
1567,-0.015,-0.165
1568,-0.005,-0.165
1569,-0.025,-0.190
1570,-0.045,-0.200
1571,-0.040,-0.205
1572,-0.035,-0.190
1573,-0.030,-0.185
1574,-0.020,-0.200
1575,-0.040,-0.205
1576,-0.065,-0.220
1577,-0.070,-0.210
1578,-0.065,-0.210
1579,-0.060,-0.190
1580,-0.050,-0.210
1581,-0.070,-0.220
1582,-0.080,-0.230
1583,-0.105,-0.230
1584,-0.095,-0.220
1585,-0.080,-0.210
1586,-0.070,-0.210
1587,-0.060,-0.220
1588,-0.085,-0.235
1589,-0.095,-0.240
1590,-0.100,-0.230
1591,-0.075,-0.225
1592,-0.075,-0.225
1593,-0.080,-0.235
1594,-0.100,-0.250
1595,-0.120,-0.240
1596,-0.105,-0.230
1597,-0.105,-0.215
1598,-0.095,-0.225
1599,-0.095,-0.230
1600,-0.100,-0.255
1601,-0.110,-0.235
1602,-0.115,-0.230
1603,-0.095,-0.210
1604,-0.095,-0.215
1605,-0.095,-0.215
1606,-0.105,-0.235
1607,-0.115,-0.235
1608,-0.110,-0.220
1609,-0.105,-0.215
1610,-0.075,-0.225
1611,-0.090,-0.235
1612,-0.090,-0.235
1613,-0.100,-0.240
1614,-0.095,-0.240
1615,-0.105,-0.215
1616,-0.085,-0.230
1617,-0.085,-0.235
1618,-0.105,-0.250
1619,-0.100,-0.250
1620,-0.115,-0.235
1621,-0.110,-0.220
1622,-0.105,-0.230
1623,-0.100,-0.240
1624,-0.110,-0.255
1625,-0.120,-0.250
1626,-0.100,-0.235
1627,-0.105,-0.215
1628,-0.095,-0.230
1629,-0.105,-0.235
1630,-0.110,-0.245
1631,-0.130,-0.260
1632,-0.120,-0.255
1633,-0.105,-0.235
1634,-0.100,-0.240
1635,-0.095,-0.235
1636,-0.105,-0.250
1637,-0.105,-0.245
1638,-0.100,-0.240
1639,-0.105,-0.225
1640,-0.080,-0.230
1641,-0.075,-0.240
1642,-0.105,-0.245
1643,-0.105,-0.245
1644,-0.100,-0.240
1645,-0.095,-0.220
1646,-0.080,-0.230
1647,-0.090,-0.245
1648,-0.090,-0.250
1649,-0.090,-0.255
1650,-0.095,-0.245
1651,-0.080,-0.230
1652,-0.070,-0.235
1653,-0.080,-0.240
1654,-0.095,-0.260
1655,-0.105,-0.250
1656,-0.105,-0.250
1657,-0.105,-0.235
1658,-0.085,-0.245
1659,-0.060,-0.255
1660,-0.095,-0.270
1661,-0.085,-0.265
1662,-0.080,-0.245
1663,-0.080,-0.240
1664,-0.055,-0.235
1665,-0.075,-0.235
1666,-0.085,-0.255
1667,-0.085,-0.255
1668,-0.075,-0.250
1669,-0.075,-0.230
1670,-0.070,-0.240
1671,-0.060,-0.250
1672,-0.075,-0.255
1673,-0.080,-0.255
1674,-0.075,-0.240
1675,-0.055,-0.230
1676,-0.050,-0.235
1677,-0.060,-0.250
1678,-0.080,-0.270
1679,-0.085,-0.265
1680,-0.070,-0.250
1681,-0.055,-0.240
1682,-0.040,-0.245
1683,-0.050,-0.245
1684,-0.065,-0.270
1685,-0.100,-0.245
1686,-0.070,-0.240
1687,-0.055,-0.225
1688,-0.040,-0.235
1689,-0.070,-0.250
1690,-0.050,-0.250
1691,-0.070,-0.245
1692,-0.050,-0.245
1693,-0.050,-0.235
1694,-0.035,-0.240
1695,-0.040,-0.250
1696,-0.055,-0.260
1697,-0.070,-0.250
1698,-0.070,-0.235
1699,-0.050,-0.240
1700,-0.040,-0.225
1701,-0.040,-0.250
1702,-0.050,-0.265
1703,-0.060,-0.245
1704,-0.075,-0.240
1705,-0.070,-0.225
1706,-0.055,-0.230
1707,-0.060,-0.240
1708,-0.075,-0.255
1709,-0.080,-0.245
1710,-0.065,-0.230
1711,-0.060,-0.220
1712,-0.045,-0.215
1713,-0.035,-0.230
1714,-0.040,-0.225
1715,-0.030,-0.210
1716,-0.025,-0.190
1717,0.005,-0.175
1718,0.010,-0.165
1719,0.005,-0.180
1720,0.005,-0.180
1721,0.005,-0.175
1722,0.025,-0.170
1723,0.050,-0.155
1724,0.070,-0.175
1725,0.095,-0.200
1726,0.110,-0.245
1727,0.130,-0.265
1728,0.150,-0.275
1729,0.170,-0.270
1730,0.185,-0.270
1731,0.170,-0.295
1732,0.155,-0.315
1733,0.135,-0.300
1734,0.130,-0.275
1735,0.100,-0.255
1736,0.105,-0.250
1737,0.085,-0.250
1738,0.055,-0.265
1739,0.040,-0.255
1740,0.025,-0.250
1741,0.015,-0.230
1742,0.000,-0.245
1743,-0.035,-0.260
1744,-0.065,-0.265
1745,-0.105,-0.265
1746,-0.125,-0.265
1747,-0.110,-0.260
1748,-0.130,-0.260
1749,-0.145,-0.270
1750,-0.150,-0.270
1751,-0.145,-0.265
1752,-0.150,-0.265
1753,-0.135,-0.250
1754,-0.115,-0.255
1755,-0.130,-0.265
1756,-0.155,-0.285
1757,-0.165,-0.265
1758,-0.160,-0.255
1759,-0.140,-0.235
1760,-0.130,-0.240
1761,-0.135,-0.235
1762,-0.150,-0.220
1763,-0.165,-0.185
1764,-0.130,-0.140
1765,-0.115,-0.120
1766,-0.115,-0.170
1767,-0.120,-0.235
1768,-0.120,-0.330
1769,-0.150,-0.475
1770,-0.160,-0.630
1771,-0.170,-0.805
1772,-0.110,-0.980
1773,-0.030,-1.130
1774,0.105,-1.215
1775,0.275,-1.210
1776,0.490,-1.145
1777,0.665,-1.035
1778,0.750,-0.915
1779,0.690,-0.770
1780,0.475,-0.640
1781,0.190,-0.495
1782,-0.030,-0.365
1783,-0.155,-0.240
1784,-0.205,-0.190
1785,-0.200,-0.185
1786,-0.180,-0.180
1787,-0.175,-0.175
1788,-0.140,-0.175
1789,-0.135,-0.160
1790,-0.120,-0.160
1791,-0.135,-0.170
1792,-0.160,-0.180
1793,-0.160,-0.180
1794,-0.170,-0.155
1795,-0.155,-0.145
1796,-0.145,-0.160
1797,-0.140,-0.165
1798,-0.150,-0.195
1799,-0.145,-0.195
1800,-0.150,-0.185
1801,-0.140,-0.170
1802,-0.125,-0.170
1803,-0.135,-0.175
1804,-0.145,-0.205
1805,-0.150,-0.195
1806,-0.145,-0.170
1807,-0.150,-0.165
1808,-0.150,-0.180
1809,-0.130,-0.180
1810,-0.140,-0.195
1811,-0.160,-0.185
1812,-0.150,-0.165
1813,-0.125,-0.155
1814,-0.115,-0.145
1815,-0.110,-0.170
1816,-0.130,-0.180
1817,-0.145,-0.170
1818,-0.145,-0.160
1819,-0.120,-0.155
1820,-0.105,-0.160
1821,-0.120,-0.175
1822,-0.120,-0.175
1823,-0.125,-0.185
1824,-0.120,-0.165
1825,-0.115,-0.165
1826,-0.095,-0.175
1827,-0.090,-0.175
1828,-0.105,-0.185
1829,-0.115,-0.175
1830,-0.100,-0.175
1831,-0.110,-0.165
1832,-0.090,-0.165
1833,-0.100,-0.170
1834,-0.100,-0.180
1835,-0.125,-0.185
1836,-0.105,-0.170
1837,-0.085,-0.160
1838,-0.080,-0.160
1839,-0.085,-0.160
1840,-0.105,-0.175
1841,-0.100,-0.165
1842,-0.100,-0.150
1843,-0.100,-0.140
1844,-0.090,-0.150
1845,-0.085,-0.165
1846,-0.100,-0.175
1847,-0.115,-0.165
1848,-0.095,-0.145
1849,-0.080,-0.140
1850,-0.075,-0.150
1851,-0.085,-0.160
1852,-0.080,-0.190
1853,-0.095,-0.180
1854,-0.090,-0.170
1855,-0.080,-0.155
1856,-0.060,-0.155
1857,-0.080,-0.160
1858,-0.085,-0.170
1859,-0.100,-0.165
1860,-0.100,-0.160
1861,-0.095,-0.160
1862,-0.070,-0.155
1863,-0.080,-0.170
1864,-0.080,-0.180
1865,-0.080,-0.190
1866,-0.085,-0.170
1867,-0.095,-0.165
1868,-0.085,-0.175
1869,-0.105,-0.180
1870,-0.125,-0.195
1871,-0.145,-0.205
1872,-0.155,-0.180
1873,-0.140,-0.180
1874,-0.120,-0.195
1875,-0.130,-0.190
1876,-0.155,-0.205
1877,-0.165,-0.200
1878,-0.160,-0.200
1879,-0.155,-0.185
1880,-0.150,-0.195
1881,-0.160,-0.205
1882,-0.155,-0.210
1883,-0.160,-0.205
1884,-0.160,-0.200
1885,-0.145,-0.195
1886,-0.150,-0.195
1887,-0.165,-0.225
1888,-0.180,-0.235
1889,-0.185,-0.220
1890,-0.180,-0.195
1891,-0.180,-0.195
1892,-0.170,-0.190
1893,-0.165,-0.210
1894,-0.170,-0.210
1895,-0.180,-0.205
1896,-0.175,-0.215
1897,-0.160,-0.200
1898,-0.155,-0.190
1899,-0.165,-0.205
1900,-0.175,-0.225
1901,-0.185,-0.215
1902,-0.190,-0.205
1903,-0.160,-0.210
1904,-0.160,-0.205
1905,-0.160,-0.210
1906,-0.180,-0.210
1907,-0.195,-0.210
1908,-0.195,-0.205
1909,-0.180,-0.200
1910,-0.165,-0.195
1911,-0.175,-0.225
1912,-0.185,-0.235
1913,-0.190,-0.245
1914,-0.200,-0.215
1915,-0.190,-0.200
1916,-0.175,-0.215
1917,-0.190,-0.215
1918,-0.185,-0.225
1919,-0.205,-0.230
1920,-0.200,-0.215
1921,-0.190,-0.210
1922,-0.165,-0.215
1923,-0.170,-0.225
1924,-0.185,-0.240
1925,-0.185,-0.225
1926,-0.185,-0.225
1927,-0.175,-0.220
1928,-0.180,-0.230
1929,-0.165,-0.230
1930,-0.175,-0.245
1931,-0.190,-0.230
1932,-0.185,-0.225
1933,-0.155,-0.210
1934,-0.160,-0.215
1935,-0.170,-0.225
1936,-0.190,-0.245
1937,-0.185,-0.240
1938,-0.180,-0.235
1939,-0.160,-0.200
1940,-0.140,-0.215
1941,-0.145,-0.225
1942,-0.160,-0.245
1943,-0.165,-0.240
1944,-0.180,-0.220
1945,-0.155,-0.220
1946,-0.150,-0.225
1947,-0.165,-0.225
1948,-0.165,-0.245
1949,-0.165,-0.245
1950,-0.175,-0.240
1951,-0.165,-0.225
1952,-0.145,-0.230
1953,-0.145,-0.250
1954,-0.155,-0.255
1955,-0.160,-0.250
1956,-0.165,-0.240
1957,-0.140,-0.225
1958,-0.135,-0.235
1959,-0.145,-0.240
1960,-0.150,-0.250
1961,-0.160,-0.240
1962,-0.155,-0.235
1963,-0.140,-0.230
1964,-0.130,-0.215
1965,-0.135,-0.230
1966,-0.150,-0.250
1967,-0.145,-0.240
1968,-0.155,-0.235
1969,-0.140,-0.215
1970,-0.115,-0.210
1971,-0.120,-0.235
1972,-0.130,-0.245
1973,-0.125,-0.235
1974,-0.130,-0.220
1975,-0.115,-0.215
1976,-0.120,-0.210
1977,-0.125,-0.230
1978,-0.125,-0.245
1979,-0.130,-0.225
1980,-0.120,-0.230
1981,-0.130,-0.220
1982,-0.115,-0.225
1983,-0.115,-0.235
1984,-0.125,-0.245
1985,-0.125,-0.240
1986,-0.125,-0.220
1987,-0.125,-0.225
1988,-0.110,-0.200
1989,-0.095,-0.225
1990,-0.125,-0.230
1991,-0.135,-0.230
1992,-0.125,-0.225
1993,-0.100,-0.215
1994,-0.085,-0.220
1995,-0.100,-0.240
1996,-0.110,-0.245
1997,-0.115,-0.245
1998,-0.120,-0.235
1999,-0.105,-0.205
2000,-0.080,-0.215
2001,-0.095,-0.230
2002,-0.110,-0.245
2003,-0.115,-0.235
2004,-0.115,-0.215
2005,-0.090,-0.195
2006,-0.085,-0.200
2007,-0.095,-0.225
2008,-0.100,-0.230
2009,-0.110,-0.225
2010,-0.090,-0.220
2011,-0.080,-0.185
2012,-0.070,-0.185
2013,-0.065,-0.170
2014,-0.070,-0.175
2015,-0.055,-0.180
2016,-0.050,-0.160
2017,-0.025,-0.150
2018,0.000,-0.165
2019,0.010,-0.180
2020,0.005,-0.185
2021,0.015,-0.200
2022,0.045,-0.190
2023,0.095,-0.220
2024,0.135,-0.245
2025,0.140,-0.270
2026,0.150,-0.280
2027,0.145,-0.280
2028,0.150,-0.260
2029,0.135,-0.245
2030,0.130,-0.245
2031,0.115,-0.260
2032,0.095,-0.255
2033,0.075,-0.240
2034,0.065,-0.220
2035,0.075,-0.210
2036,0.070,-0.205
2037,0.055,-0.230
2038,0.000,-0.235
2039,-0.045,-0.220
2040,-0.065,-0.225
2041,-0.095,-0.225
2042,-0.105,-0.230
2043,-0.120,-0.255
2044,-0.130,-0.245
2045,-0.140,-0.240
2046,-0.150,-0.225
2047,-0.125,-0.220
2048,-0.110,-0.225
2049,-0.115,-0.225
2050,-0.130,-0.245
2051,-0.135,-0.230
2052,-0.135,-0.220
2053,-0.115,-0.225
2054,-0.105,-0.215
2055,-0.110,-0.225
2056,-0.100,-0.235
2057,-0.100,-0.210
2058,-0.100,-0.165
2059,-0.090,-0.120
2060,-0.070,-0.105
2061,-0.080,-0.140
2062,-0.095,-0.220
2063,-0.125,-0.310
2064,-0.145,-0.450
2065,-0.150,-0.610
2066,-0.130,-0.800
2067,-0.070,-0.980
2068,0.050,-1.115
2069,0.215,-1.170
2070,0.440,-1.120
2071,0.665,-1.000
2072,0.800,-0.840
2073,0.770,-0.695
2074,0.550,-0.535
2075,0.215,-0.380
2076,-0.030,-0.230
2077,-0.130,-0.160
2078,-0.145,-0.115
2079,-0.115,-0.115
2080,-0.100,-0.120
2081,-0.095,-0.120
2082,-0.080,-0.105
2083,-0.055,-0.100
2084,-0.060,-0.110
2085,-0.080,-0.130
2086,-0.095,-0.145
2087,-0.085,-0.135
2088,-0.090,-0.135
2089,-0.080,-0.120
2090,-0.075,-0.110
2091,-0.065,-0.130
2092,-0.075,-0.145
2093,-0.080,-0.140
2094,-0.070,-0.125
2095,-0.060,-0.130
2096,-0.060,-0.140
2097,-0.055,-0.130
2098,-0.060,-0.150
2099,-0.065,-0.155
2100,-0.055,-0.135
2101,-0.045,-0.130
2102,-0.050,-0.120
2103,-0.055,-0.140
2104,-0.070,-0.155
2105,-0.080,-0.155
2106,-0.050,-0.135
2107,-0.050,-0.115
2108,-0.020,-0.120
2109,-0.035,-0.135
2110,-0.050,-0.145
2111,-0.040,-0.155
2112,-0.045,-0.125
2113,-0.030,-0.125
2114,-0.020,-0.125
2115,-0.015,-0.125
2116,-0.035,-0.145
2117,-0.040,-0.150
2118,-0.030,-0.145
2119,-0.020,-0.130
2120,-0.015,-0.140
2121,-0.025,-0.135
2122,-0.035,-0.145
2123,-0.025,-0.150
2124,-0.025,-0.135
2125,-0.015,-0.120
2126,-0.005,-0.120
2127,-0.015,-0.135
2128,-0.030,-0.150
2129,-0.035,-0.140
2130,-0.035,-0.140
2131,-0.010,-0.115
2132,-0.005,-0.110
2133,-0.005,-0.145
2134,-0.020,-0.140
2135,-0.020,-0.160
2136,-0.020,-0.145
2137,0.000,-0.130
2138,0.015,-0.110
2139,0.020,-0.145
2140,0.005,-0.150
2141,0.000,-0.155
2142,0.000,-0.145
2143,0.015,-0.135
2144,0.005,-0.140
2145,0.015,-0.150
2146,0.010,-0.145
2147,-0.005,-0.160
2148,0.010,-0.135
2149,0.015,-0.130
2150,0.035,-0.140
2151,0.010,-0.150
2152,0.005,-0.170
2153,0.000,-0.165
2154,0.000,-0.145
2155,0.000,-0.145
2156,0.010,-0.140
2157,0.000,-0.145
2158,-0.015,-0.170
2159,-0.035,-0.175
2160,-0.030,-0.150
2161,-0.030,-0.145
2162,-0.025,-0.160
2163,-0.045,-0.170
2164,-0.055,-0.185
2165,-0.075,-0.180
2166,-0.060,-0.175
2167,-0.055,-0.160
2168,-0.035,-0.165
2169,-0.055,-0.170
2170,-0.080,-0.185
2171,-0.100,-0.170
2172,-0.070,-0.165
2173,-0.045,-0.155
2174,-0.050,-0.155
2175,-0.050,-0.170
2176,-0.070,-0.180
2177,-0.075,-0.180
2178,-0.070,-0.170
2179,-0.050,-0.145
2180,-0.045,-0.155
2181,-0.045,-0.170
2182,-0.055,-0.175
2183,-0.065,-0.180
2184,-0.075,-0.175
2185,-0.060,-0.175
2186,-0.035,-0.175
2187,-0.050,-0.185
2188,-0.075,-0.205
2189,-0.085,-0.205
2190,-0.090,-0.175
2191,-0.055,-0.160
2192,-0.055,-0.175
2193,-0.065,-0.195
2194,-0.065,-0.210
2195,-0.090,-0.200
2196,-0.080,-0.170
2197,-0.065,-0.180
2198,-0.060,-0.180
2199,-0.070,-0.195
2200,-0.095,-0.200
2201,-0.095,-0.205
2202,-0.090,-0.190
2203,-0.080,-0.175
2204,-0.080,-0.195
2205,-0.080,-0.205
2206,-0.095,-0.220
2207,-0.100,-0.205
2208,-0.090,-0.205
2209,-0.070,-0.180
2210,-0.070,-0.190
2211,-0.075,-0.210
2212,-0.090,-0.215
2213,-0.100,-0.220
2214,-0.090,-0.195
2215,-0.080,-0.195
2216,-0.060,-0.200
2217,-0.060,-0.215
2218,-0.085,-0.235
2219,-0.095,-0.230
2220,-0.085,-0.215
2221,-0.065,-0.205
2222,-0.060,-0.200
2223,-0.065,-0.210
2224,-0.090,-0.225
2225,-0.090,-0.215
2226,-0.080,-0.215
2227,-0.070,-0.200
2228,-0.060,-0.205
2229,-0.060,-0.230
2230,-0.065,-0.230
2231,-0.070,-0.225
2232,-0.065,-0.210
2233,-0.055,-0.195
2234,-0.045,-0.210
2235,-0.055,-0.230
2236,-0.070,-0.240
2237,-0.075,-0.225
2238,-0.055,-0.225
2239,-0.040,-0.215
2240,-0.040,-0.215
2241,-0.045,-0.225
2242,-0.055,-0.230
2243,-0.065,-0.225
2244,-0.055,-0.210
2245,-0.050,-0.205
2246,-0.045,-0.210
2247,-0.040,-0.210
2248,-0.055,-0.245
2249,-0.065,-0.235
2250,-0.055,-0.225
2251,-0.020,-0.215
2252,-0.015,-0.220
2253,-0.030,-0.235
2254,-0.045,-0.245
2255,-0.045,-0.240
2256,-0.040,-0.225
2257,-0.045,-0.205
2258,-0.025,-0.225
2259,-0.035,-0.230
2260,-0.035,-0.250
2261,-0.055,-0.250
2262,-0.055,-0.225
2263,-0.050,-0.225
2264,-0.020,-0.225
2265,-0.030,-0.230
2266,-0.040,-0.245
2267,-0.060,-0.250
2268,-0.045,-0.220
2269,-0.035,-0.220
2270,-0.015,-0.195
2271,-0.010,-0.225
2272,-0.020,-0.220
2273,-0.025,-0.205
2274,-0.025,-0.190
2275,0.000,-0.170
2276,0.025,-0.180
2277,0.020,-0.175
2278,0.020,-0.200
2279,0.025,-0.185
2280,0.035,-0.175
2281,0.035,-0.150
2282,0.065,-0.135
2283,0.065,-0.140
2284,0.080,-0.160
2285,0.110,-0.180
2286,0.160,-0.200
2287,0.225,-0.215
2288,0.250,-0.225
2289,0.255,-0.260
2290,0.250,-0.270
2291,0.230,-0.270
2292,0.240,-0.265
2293,0.255,-0.250
2294,0.230,-0.250
2295,0.195,-0.250
2296,0.180,-0.250
2297,0.155,-0.230
2298,0.130,-0.230
2299,0.130,-0.225
2300,0.100,-0.225
2301,0.085,-0.255
2302,0.005,-0.260
2303,-0.030,-0.250
2304,-0.045,-0.260
2305,-0.035,-0.250
2306,-0.050,-0.250
2307,-0.060,-0.260
2308,-0.080,-0.275
2309,-0.090,-0.265
2310,-0.100,-0.265
2311,-0.085,-0.255
2312,-0.085,-0.260
2313,-0.090,-0.260
2314,-0.100,-0.275
2315,-0.120,-0.245
2316,-0.095,-0.235
2317,-0.075,-0.240
2318,-0.060,-0.225
2319,-0.065,-0.235
2320,-0.075,-0.235
2321,-0.080,-0.205
2322,-0.070,-0.140
2323,-0.050,-0.105
2324,-0.045,-0.105
2325,-0.050,-0.165
2326,-0.075,-0.285
2327,-0.100,-0.465
2328,-0.105,-0.680
2329,-0.080,-0.885
2330,0.025,-1.105
2331,0.180,-1.240
2332,0.365,-1.295
2333,0.540,-1.265
2334,0.715,-1.145
2335,0.860,-1.010
2336,0.890,-0.865
2337,0.795,-0.715
2338,0.535,-0.565
2339,0.190,-0.385
2340,-0.060,-0.245
2341,-0.170,-0.165
2342,-0.155,-0.155
2343,-0.100,-0.155
2344,-0.080,-0.175
2345,-0.085,-0.170
2346,-0.095,-0.160
2347,-0.100,-0.140
2348,-0.090,-0.145
2349,-0.100,-0.160
2350,-0.100,-0.175
2351,-0.105,-0.170
2352,-0.090,-0.155
2353,-0.075,-0.155
2354,-0.085,-0.155
2355,-0.070,-0.160
2356,-0.085,-0.160
2357,-0.085,-0.165
2358,-0.080,-0.150
2359,-0.080,-0.150
2360,-0.075,-0.155
2361,-0.080,-0.170
2362,-0.090,-0.180
2363,-0.090,-0.175
2364,-0.080,-0.165
2365,-0.070,-0.145
2366,-0.060,-0.145
2367,-0.065,-0.160
2368,-0.080,-0.175
2369,-0.075,-0.185
2370,-0.080,-0.170
2371,-0.065,-0.155
2372,-0.055,-0.155
2373,-0.060,-0.160
2374,-0.065,-0.180
2375,-0.080,-0.180
2376,-0.080,-0.165
2377,-0.055,-0.150
2378,-0.040,-0.150
2379,-0.045,-0.155
2380,-0.050,-0.165
2381,-0.065,-0.150
2382,-0.065,-0.150
2383,-0.045,-0.140
2384,-0.030,-0.150
2385,-0.060,-0.160
2386,-0.050,-0.155
2387,-0.070,-0.165
2388,-0.050,-0.135
2389,-0.035,-0.135
2390,-0.030,-0.135
2391,-0.035,-0.160
2392,-0.045,-0.150
2393,-0.050,-0.160
2394,-0.040,-0.130
2395,-0.030,-0.120
2396,-0.010,-0.120
2397,-0.025,-0.135
2398,-0.040,-0.145
2399,-0.045,-0.145
2400,-0.025,-0.125
2401,-0.015,-0.110
2402,0.000,-0.125
2403,-0.015,-0.130
2404,-0.015,-0.155
2405,-0.020,-0.140
2406,-0.015,-0.130
2407,-0.010,-0.115
2408,-0.005,-0.120
2409,-0.005,-0.135
2410,-0.015,-0.140
2411,-0.035,-0.130
2412,-0.040,-0.120
2413,-0.025,-0.120
2414,-0.020,-0.115
2415,-0.025,-0.130
2416,-0.040,-0.155
2417,-0.060,-0.155
2418,-0.065,-0.145
2419,-0.040,-0.130
2420,-0.055,-0.140
2421,-0.070,-0.155
2422,-0.090,-0.165
2423,-0.105,-0.170
2424,-0.100,-0.165
2425,-0.090,-0.160
2426,-0.070,-0.170
2427,-0.090,-0.170
2428,-0.115,-0.180
2429,-0.125,-0.190
2430,-0.115,-0.170
2431,-0.115,-0.165
2432,-0.105,-0.180
2433,-0.120,-0.190
2434,-0.130,-0.195
2435,-0.135,-0.190
2436,-0.145,-0.175
2437,-0.145,-0.170
2438,-0.135,-0.180
2439,-0.150,-0.185
2440,-0.165,-0.220
2441,-0.170,-0.210
2442,-0.170,-0.190
2443,-0.155,-0.195
2444,-0.155,-0.180
2445,-0.155,-0.195
2446,-0.165,-0.205
2447,-0.170,-0.200
2448,-0.170,-0.200
2449,-0.165,-0.190
2450,-0.150,-0.200
2451,-0.170,-0.215
2452,-0.175,-0.215
2453,-0.185,-0.210
2454,-0.160,-0.205
2455,-0.165,-0.215
2456,-0.150,-0.220
2457,-0.165,-0.210
2458,-0.170,-0.240
2459,-0.180,-0.245
2460,-0.175,-0.220
2461,-0.175,-0.205
2462,-0.165,-0.210
2463,-0.175,-0.230
2464,-0.195,-0.240
2465,-0.200,-0.240
2466,-0.190,-0.225
2467,-0.180,-0.215
2468,-0.180,-0.225
2469,-0.175,-0.215
2470,-0.175,-0.230
2471,-0.180,-0.225
2472,-0.180,-0.220
2473,-0.175,-0.210
2474,-0.155,-0.215
2475,-0.175,-0.240
2476,-0.185,-0.240
2477,-0.185,-0.235
2478,-0.190,-0.220
2479,-0.190,-0.220
2480,-0.175,-0.225
2481,-0.170,-0.240
2482,-0.180,-0.235
2483,-0.185,-0.255
2484,-0.185,-0.225
2485,-0.175,-0.225
2486,-0.165,-0.220
2487,-0.170,-0.230
2488,-0.180,-0.255
2489,-0.195,-0.245
2490,-0.180,-0.235
2491,-0.165,-0.220
2492,-0.170,-0.225
2493,-0.170,-0.240
2494,-0.165,-0.255
2495,-0.180,-0.255
2496,-0.170,-0.225
2497,-0.165,-0.235
2498,-0.150,-0.230
2499,-0.175,-0.230
2500,-0.165,-0.250
2501,-0.180,-0.235
2502,-0.170,-0.230
2503,-0.155,-0.225
2504,-0.155,-0.240
2505,-0.170,-0.250
2506,-0.165,-0.260
2507,-0.175,-0.255
2508,-0.170,-0.245
2509,-0.150,-0.220
2510,-0.160,-0.225
2511,-0.165,-0.245
2512,-0.180,-0.265
2513,-0.175,-0.255
2514,-0.170,-0.245
2515,-0.155,-0.225
2516,-0.150,-0.235
2517,-0.160,-0.245
2518,-0.180,-0.260
2519,-0.180,-0.250
2520,-0.175,-0.265
2521,-0.165,-0.240
2522,-0.160,-0.235
2523,-0.160,-0.255
2524,-0.180,-0.255
2525,-0.185,-0.260
2526,-0.190,-0.240
2527,-0.175,-0.235
2528,-0.170,-0.250
2529,-0.160,-0.260
2530,-0.175,-0.265
2531,-0.190,-0.260
2532,-0.200,-0.240
2533,-0.180,-0.235
2534,-0.175,-0.250
2535,-0.175,-0.250
2536,-0.190,-0.260
2537,-0.210,-0.270
2538,-0.205,-0.270
2539,-0.195,-0.245
2540,-0.185,-0.245
2541,-0.190,-0.260
2542,-0.205,-0.260
2543,-0.210,-0.255
2544,-0.205,-0.240
2545,-0.200,-0.240
2546,-0.195,-0.235
2547,-0.205,-0.255
2548,-0.205,-0.270
2549,-0.210,-0.270
2550,-0.205,-0.255
2551,-0.200,-0.240
2552,-0.185,-0.240
2553,-0.220,-0.255
2554,-0.230,-0.270
2555,-0.230,-0.270
2556,-0.210,-0.255
2557,-0.215,-0.240
2558,-0.200,-0.245
2559,-0.215,-0.255
2560,-0.225,-0.280
2561,-0.225,-0.265
2562,-0.225,-0.245
2563,-0.210,-0.245
2564,-0.220,-0.245
2565,-0.235,-0.245
2566,-0.250,-0.270
2567,-0.245,-0.260
2568,-0.235,-0.265
2569,-0.225,-0.230
2570,-0.220,-0.235
2571,-0.235,-0.245
2572,-0.230,-0.260
2573,-0.240,-0.255
2574,-0.220,-0.255
2575,-0.220,-0.245
2576,-0.215,-0.255
2577,-0.230,-0.260
2578,-0.240,-0.260
2579,-0.245,-0.245
2580,-0.225,-0.245
2581,-0.215,-0.215
2582,-0.220,-0.225
2583,-0.215,-0.255
2584,-0.230,-0.265
2585,-0.215,-0.260
2586,-0.220,-0.240
2587,-0.200,-0.235
2588,-0.195,-0.240
2589,-0.205,-0.245
2590,-0.215,-0.260
2591,-0.230,-0.255
2592,-0.215,-0.270
2593,-0.175,-0.275
2594,-0.165,-0.280
2595,-0.160,-0.310
2596,-0.170,-0.325
2597,-0.165,-0.340
2598,-0.155,-0.330
2599,-0.135,-0.320
2600,-0.115,-0.335
2601,-0.105,-0.340
2602,-0.120,-0.345
2603,-0.140,-0.335
2604,-0.180,-0.300
2605,-0.160,-0.280
2606,-0.165,-0.275
2607,-0.190,-0.275
2608,-0.220,-0.260
2609,-0.215,-0.240
2610,-0.215,-0.225
2611,-0.200,-0.215
2612,-0.200,-0.230
2613,-0.235,-0.245
2614,-0.260,-0.250
2615,-0.270,-0.260
2616,-0.295,-0.260
2617,-0.290,-0.245
2618,-0.270,-0.240
2619,-0.270,-0.260
2620,-0.290,-0.265
2621,-0.305,-0.275
2622,-0.300,-0.250
2623,-0.300,-0.250
2624,-0.270,-0.250
2625,-0.270,-0.255
2626,-0.280,-0.270
2627,-0.285,-0.260
2628,-0.290,-0.245
2629,-0.280,-0.220
2630,-0.265,-0.185
2631,-0.255,-0.140
2632,-0.275,-0.120
2633,-0.275,-0.120
2634,-0.265,-0.140
2635,-0.250,-0.225
2636,-0.270,-0.365
2637,-0.290,-0.570
2638,-0.335,-0.805
2639,-0.310,-1.010
2640,-0.200,-1.135
2641,-0.045,-1.195
2642,0.155,-1.165
2643,0.315,-1.090
2644,0.410,-1.000
2645,0.415,-0.840
2646,0.310,-0.670
2647,0.100,-0.490
2648,-0.155,-0.375
2649,-0.345,-0.260
2650,-0.420,-0.225
2651,-0.415,-0.170
2652,-0.360,-0.150
2653,-0.305,-0.145
2654,-0.260,-0.140
2655,-0.260,-0.145
2656,-0.270,-0.160
2657,-0.300,-0.160
2658,-0.295,-0.155
2659,-0.290,-0.145
2660,-0.295,-0.145
2661,-0.305,-0.160
2662,-0.310,-0.180
2663,-0.315,-0.185
2664,-0.280,-0.170
2665,-0.275,-0.170
2666,-0.265,-0.165
2667,-0.280,-0.170
2668,-0.290,-0.180
2669,-0.300,-0.180
2670,-0.300,-0.175
2671,-0.265,-0.165
2672,-0.265,-0.160
2673,-0.275,-0.175
2674,-0.290,-0.190
2675,-0.305,-0.180
2676,-0.280,-0.170
2677,-0.280,-0.160
2678,-0.270,-0.160
2679,-0.270,-0.185
2680,-0.275,-0.195
2681,-0.285,-0.195
2682,-0.275,-0.165
2683,-0.260,-0.155
2684,-0.245,-0.170
2685,-0.265,-0.185
2686,-0.295,-0.200
2687,-0.300,-0.190
2688,-0.285,-0.190
2689,-0.265,-0.175
2690,-0.255,-0.170
2691,-0.265,-0.185
2692,-0.290,-0.200
2693,-0.310,-0.190
2694,-0.300,-0.185
2695,-0.295,-0.175
2696,-0.270,-0.195
2697,-0.260,-0.200
2698,-0.270,-0.205
2699,-0.285,-0.210
2700,-0.270,-0.205
2701,-0.270,-0.180
2702,-0.255,-0.190
2703,-0.260,-0.200
2704,-0.280,-0.210
2705,-0.290,-0.205
2706,-0.290,-0.185
2707,-0.270,-0.185
2708,-0.260,-0.190
2709,-0.275,-0.195
2710,-0.295,-0.215
2711,-0.290,-0.195
2712,-0.280,-0.185
2713,-0.270,-0.165
2714,-0.255,-0.175
2715,-0.260,-0.190
2716,-0.280,-0.210
2717,-0.300,-0.195
2718,-0.305,-0.195
2719,-0.295,-0.180
2720,-0.275,-0.185
2721,-0.290,-0.205
2722,-0.295,-0.210
2723,-0.305,-0.210
2724,-0.295,-0.205
2725,-0.290,-0.190
2726,-0.280,-0.205
2727,-0.295,-0.205
2728,-0.305,-0.225
2729,-0.310,-0.210
2730,-0.310,-0.200
2731,-0.305,-0.200
2732,-0.315,-0.200
2733,-0.355,-0.225
2734,-0.365,-0.225
2735,-0.380,-0.225
2736,-0.390,-0.220
2737,-0.385,-0.215
2738,-0.385,-0.225
2739,-0.375,-0.225
2740,-0.385,-0.235
2741,-0.400,-0.220
2742,-0.390,-0.205
2743,-0.390,-0.205
2744,-0.385,-0.200
2745,-0.395,-0.215
2746,-0.415,-0.235
2747,-0.420,-0.240
2748,-0.440,-0.230
2749,-0.405,-0.210
2750,-0.370,-0.220
2751,-0.380,-0.230
2752,-0.410,-0.235
2753,-0.405,-0.245
2754,-0.410,-0.235
2755,-0.405,-0.215
2756,-0.395,-0.230
2757,-0.400,-0.235
2758,-0.435,-0.240
2759,-0.435,-0.235
2760,-0.430,-0.225
2761,-0.415,-0.210
2762,-0.395,-0.230
2763,-0.395,-0.235
2764,-0.435,-0.250
2765,-0.430,-0.240
2766,-0.435,-0.240
2767,-0.430,-0.220
2768,-0.435,-0.235
2769,-0.420,-0.245
2770,-0.430,-0.260
2771,-0.440,-0.250
2772,-0.435,-0.230
2773,-0.425,-0.225
2774,-0.415,-0.225
2775,-0.415,-0.240
2776,-0.425,-0.245
2777,-0.440,-0.245
2778,-0.435,-0.245
2779,-0.425,-0.240
2780,-0.445,-0.255
2781,-0.430,-0.250
2782,-0.445,-0.260
2783,-0.445,-0.270
2784,-0.440,-0.250
2785,-0.435,-0.235
2786,-0.430,-0.240
2787,-0.430,-0.260
2788,-0.435,-0.265
2789,-0.450,-0.255
2790,-0.430,-0.245
2791,-0.425,-0.240
2792,-0.405,-0.245
2793,-0.420,-0.260
2794,-0.435,-0.275
2795,-0.430,-0.250
2796,-0.430,-0.245
2797,-0.425,-0.250
2798,-0.415,-0.250
2799,-0.430,-0.260
2800,-0.435,-0.265
2801,-0.440,-0.270
2802,-0.445,-0.260
2803,-0.410,-0.260
2804,-0.410,-0.250
2805,-0.410,-0.255
2806,-0.430,-0.270
2807,-0.435,-0.270
2808,-0.430,-0.250
2809,-0.415,-0.250
2810,-0.395,-0.250
2811,-0.400,-0.275
2812,-0.410,-0.270
2813,-0.430,-0.265
2814,-0.420,-0.255
2815,-0.410,-0.250
2816,-0.400,-0.250
2817,-0.415,-0.260
2818,-0.425,-0.265
2819,-0.430,-0.270
2820,-0.425,-0.250
2821,-0.420,-0.245
2822,-0.400,-0.245
2823,-0.410,-0.255
2824,-0.405,-0.255
2825,-0.420,-0.270
2826,-0.420,-0.250
2827,-0.405,-0.250
2828,-0.405,-0.245
2829,-0.405,-0.250
2830,-0.420,-0.265
2831,-0.420,-0.270
2832,-0.415,-0.250
2833,-0.405,-0.240
2834,-0.400,-0.245
2835,-0.405,-0.260
2836,-0.400,-0.270
2837,-0.410,-0.250
2838,-0.420,-0.260
2839,-0.400,-0.240
2840,-0.385,-0.250
2841,-0.385,-0.260
2842,-0.400,-0.255
2843,-0.405,-0.270
2844,-0.415,-0.260
2845,-0.390,-0.245
2846,-0.390,-0.240
2847,-0.395,-0.260
2848,-0.400,-0.265
2849,-0.420,-0.275
2850,-0.395,-0.255
2851,-0.390,-0.250
2852,-0.375,-0.255
2853,-0.390,-0.260
2854,-0.405,-0.270
2855,-0.420,-0.260
2856,-0.415,-0.255
2857,-0.395,-0.250
2858,-0.385,-0.240
2859,-0.395,-0.255
2860,-0.400,-0.260
2861,-0.410,-0.265
2862,-0.425,-0.250
2863,-0.395,-0.240
2864,-0.385,-0.235
2865,-0.400,-0.245
2866,-0.410,-0.265
2867,-0.415,-0.265
2868,-0.400,-0.235
2869,-0.390,-0.230
2870,-0.380,-0.220
2871,-0.385,-0.235
2872,-0.395,-0.240
2873,-0.405,-0.240
2874,-0.395,-0.225
2875,-0.375,-0.215
2876,-0.365,-0.225
2877,-0.370,-0.250
2878,-0.385,-0.260
2879,-0.390,-0.245
2880,-0.385,-0.230
2881,-0.370,-0.220
2882,-0.360,-0.225
2883,-0.370,-0.240
2884,-0.360,-0.260
2885,-0.375,-0.260
2886,-0.360,-0.260
2887,-0.340,-0.265
2888,-0.320,-0.285
2889,-0.320,-0.305
2890,-0.325,-0.335
2891,-0.320,-0.340
2892,-0.310,-0.310
2893,-0.280,-0.320
2894,-0.260,-0.320
2895,-0.250,-0.345
2896,-0.260,-0.330
2897,-0.265,-0.305
2898,-0.285,-0.295
2899,-0.290,-0.270
2900,-0.290,-0.275
2901,-0.305,-0.265
2902,-0.325,-0.260
2903,-0.340,-0.245
2904,-0.335,-0.225
2905,-0.310,-0.205
2906,-0.315,-0.230
2907,-0.325,-0.240
2908,-0.355,-0.250
2909,-0.385,-0.255
2910,-0.400,-0.235
2911,-0.395,-0.235
2912,-0.385,-0.240
2913,-0.400,-0.260
2914,-0.405,-0.260
2915,-0.410,-0.265
2916,-0.400,-0.240
2917,-0.390,-0.235
2918,-0.390,-0.235
2919,-0.390,-0.245
2920,-0.410,-0.250
2921,-0.395,-0.250
2922,-0.380,-0.230
2923,-0.365,-0.200
2924,-0.355,-0.220
2925,-0.360,-0.200
2926,-0.375,-0.165
2927,-0.360,-0.135
2928,-0.365,-0.120
2929,-0.335,-0.130
2930,-0.335,-0.220
2931,-0.355,-0.355
2932,-0.385,-0.555
2933,-0.400,-0.765
2934,-0.340,-0.940
2935,-0.235,-1.065
2936,-0.075,-1.135
2937,0.085,-1.155
2938,0.220,-1.115
2939,0.350,-0.995
2940,0.395,-0.840
2941,0.325,-0.685
2942,0.145,-0.545
2943,-0.095,-0.410
2944,-0.295,-0.290
2945,-0.400,-0.195
2946,-0.430,-0.120
2947,-0.400,-0.100
2948,-0.350,-0.100
2949,-0.335,-0.115
2950,-0.340,-0.135
2951,-0.350,-0.135
2952,-0.345,-0.120
2953,-0.345,-0.120
2954,-0.360,-0.115
2955,-0.355,-0.130
2956,-0.345,-0.130
2957,-0.365,-0.135
2958,-0.350,-0.135
2959,-0.350,-0.125
2960,-0.330,-0.115
2961,-0.335,-0.130
2962,-0.350,-0.145
2963,-0.355,-0.135
2964,-0.360,-0.125
2965,-0.340,-0.115
2966,-0.335,-0.125
2967,-0.335,-0.135
2968,-0.340,-0.145
2969,-0.345,-0.150
2970,-0.345,-0.130
2971,-0.335,-0.120
2972,-0.325,-0.120
2973,-0.330,-0.140
2974,-0.345,-0.150
2975,-0.340,-0.150
2976,-0.320,-0.135
2977,-0.310,-0.110
2978,-0.300,-0.120
2979,-0.305,-0.120
2980,-0.310,-0.145
2981,-0.310,-0.145
2982,-0.300,-0.130
2983,-0.300,-0.125
2984,-0.280,-0.130
2985,-0.290,-0.140
2986,-0.300,-0.145
2987,-0.305,-0.135
2988,-0.305,-0.145
2989,-0.300,-0.115
2990,-0.290,-0.125
2991,-0.285,-0.130
2992,-0.305,-0.150
2993,-0.310,-0.145
2994,-0.295,-0.140
2995,-0.285,-0.125
2996,-0.290,-0.135
2997,-0.295,-0.140
2998,-0.300,-0.140
2999,-0.305,-0.145
3000,-0.295,-0.125
3001,-0.295,-0.110
3002,-0.280,-0.125
3003,-0.275,-0.135
3004,-0.300,-0.135
3005,-0.300,-0.150
3006,-0.295,-0.135
3007,-0.275,-0.130
3008,-0.275,-0.130
3009,-0.280,-0.130
3010,-0.275,-0.145
3011,-0.295,-0.130
3012,-0.295,-0.125
3013,-0.290,-0.115
3014,-0.270,-0.125
3015,-0.280,-0.135
3016,-0.285,-0.160
3017,-0.300,-0.145
3018,-0.285,-0.130
3019,-0.285,-0.125
3020,-0.275,-0.130
3021,-0.280,-0.150
3022,-0.305,-0.160
3023,-0.300,-0.155
3024,-0.315,-0.155
3025,-0.305,-0.135
3026,-0.300,-0.140
3027,-0.310,-0.165
3028,-0.345,-0.165
3029,-0.340,-0.170
3030,-0.340,-0.165
3031,-0.340,-0.155
3032,-0.325,-0.160
3033,-0.325,-0.165
3034,-0.345,-0.190
3035,-0.350,-0.175
3036,-0.350,-0.155
3037,-0.345,-0.160
3038,-0.345,-0.160
3039,-0.330,-0.175
3040,-0.345,-0.175
3041,-0.365,-0.170
3042,-0.345,-0.175
3043,-0.340,-0.155
3044,-0.320,-0.165
3045,-0.325,-0.175
3046,-0.340,-0.180
3047,-0.345,-0.180
3048,-0.355,-0.165
3049,-0.330,-0.160
3050,-0.320,-0.165
3051,-0.320,-0.175
3052,-0.340,-0.185
3053,-0.340,-0.185
3054,-0.345,-0.175
3055,-0.320,-0.160
3056,-0.320,-0.160
3057,-0.320,-0.185
3058,-0.335,-0.180
3059,-0.345,-0.200
3060,-0.340,-0.185
3061,-0.340,-0.160
3062,-0.315,-0.170
3063,-0.320,-0.185
3064,-0.340,-0.195
3065,-0.345,-0.180
3066,-0.335,-0.175
3067,-0.310,-0.170
3068,-0.315,-0.170
3069,-0.315,-0.180
3070,-0.325,-0.195
3071,-0.330,-0.180
3072,-0.325,-0.170
3073,-0.315,-0.160
3074,-0.295,-0.175
3075,-0.310,-0.175
3076,-0.320,-0.200
3077,-0.320,-0.175
3078,-0.315,-0.180
3079,-0.315,-0.175
3080,-0.290,-0.175
3081,-0.305,-0.185
3082,-0.315,-0.200
3083,-0.330,-0.200
3084,-0.315,-0.175
3085,-0.305,-0.160
3086,-0.310,-0.170
3087,-0.275,-0.170
3088,-0.320,-0.190
3089,-0.290,-0.195
3090,-0.295,-0.180
3091,-0.285,-0.185
3092,-0.270,-0.180
3093,-0.295,-0.195
3094,-0.290,-0.195
3095,-0.300,-0.190
3096,-0.285,-0.165
3097,-0.280,-0.170
3098,-0.280,-0.175
3099,-0.275,-0.190
3100,-0.280,-0.190
3101,-0.290,-0.195
3102,-0.285,-0.175
3103,-0.265,-0.165
3104,-0.250,-0.175
3105,-0.250,-0.180
3106,-0.265,-0.200
3107,-0.275,-0.195
3108,-0.270,-0.190
3109,-0.260,-0.185
3110,-0.250,-0.175
3111,-0.260,-0.180
3112,-0.275,-0.200
3113,-0.275,-0.195
3114,-0.280,-0.180
3115,-0.255,-0.175
3116,-0.250,-0.190
3117,-0.255,-0.190
3118,-0.265,-0.200
3119,-0.275,-0.200
3120,-0.265,-0.180
3121,-0.255,-0.160
3122,-0.240,-0.170
3123,-0.240,-0.185
3124,-0.245,-0.200
3125,-0.255,-0.195
3126,-0.245,-0.175
3127,-0.230,-0.150
3128,-0.225,-0.150
3129,-0.210,-0.140
3130,-0.205,-0.160
3131,-0.210,-0.145
3132,-0.200,-0.120
3133,-0.175,-0.110
3134,-0.160,-0.105
3135,-0.145,-0.110
3136,-0.165,-0.120
3137,-0.145,-0.120
3138,-0.140,-0.100
3139,-0.120,-0.110
3140,-0.095,-0.140
3141,-0.060,-0.190
3142,-0.030,-0.235
3143,-0.020,-0.245
3144,-0.025,-0.230
3145,-0.010,-0.220
3146,0.005,-0.225
3147,-0.005,-0.245
3148,-0.025,-0.235
3149,-0.055,-0.220
3150,-0.070,-0.195
3151,-0.070,-0.170
3152,-0.080,-0.165
3153,-0.080,-0.165
3154,-0.105,-0.185
3155,-0.115,-0.180
3156,-0.130,-0.185
3157,-0.160,-0.175
3158,-0.170,-0.190
3159,-0.200,-0.205
3160,-0.235,-0.220
3161,-0.250,-0.220
3162,-0.255,-0.205
3163,-0.250,-0.190
3164,-0.255,-0.190
3165,-0.255,-0.195
3166,-0.250,-0.210
3167,-0.265,-0.215
3168,-0.260,-0.195
3169,-0.240,-0.180
3170,-0.225,-0.185
3171,-0.245,-0.200
3172,-0.235,-0.205
3173,-0.235,-0.205
3174,-0.230,-0.185
3175,-0.210,-0.175
3176,-0.205,-0.160
3177,-0.205,-0.140
3178,-0.205,-0.100
3179,-0.215,-0.055
3180,-0.195,-0.055
3181,-0.185,-0.090
3182,-0.195,-0.205
3183,-0.215,-0.360
3184,-0.240,-0.580
3185,-0.245,-0.800
3186,-0.170,-1.000
3187,-0.015,-1.135
3188,0.170,-1.195
3189,0.370,-1.160
3190,0.525,-1.050
3191,0.620,-0.900
3192,0.620,-0.750
3193,0.480,-0.605
3194,0.250,-0.470
3195,-0.015,-0.340
3196,-0.195,-0.245
3197,-0.280,-0.165
3198,-0.280,-0.105
3199,-0.245,-0.080
3200,-0.215,-0.065
3201,-0.200,-0.080
3202,-0.195,-0.095
3203,-0.195,-0.095
3204,-0.190,-0.085
3205,-0.185,-0.070
3206,-0.190,-0.080
3207,-0.205,-0.095
3208,-0.230,-0.115
3209,-0.210,-0.100
3210,-0.205,-0.090
3211,-0.200,-0.085
3212,-0.205,-0.090
3213,-0.175,-0.100
3214,-0.185,-0.120
3215,-0.190,-0.115
3216,-0.180,-0.115
3217,-0.170,-0.100
3218,-0.165,-0.095
3219,-0.170,-0.110
3220,-0.170,-0.110
3221,-0.180,-0.115
3222,-0.170,-0.105
3223,-0.165,-0.085
3224,-0.155,-0.100
3225,-0.170,-0.115
3226,-0.170,-0.130
3227,-0.165,-0.115
3228,-0.155,-0.100
3229,-0.150,-0.085
3230,-0.140,-0.095
3231,-0.145,-0.115
3232,-0.155,-0.115
3233,-0.170,-0.125
3234,-0.160,-0.105
3235,-0.145,-0.080
3236,-0.125,-0.100
3237,-0.135,-0.105
3238,-0.150,-0.120
3239,-0.165,-0.115
3240,-0.150,-0.110
3241,-0.130,-0.085
3242,-0.120,-0.100
3243,-0.120,-0.115
3244,-0.130,-0.115
3245,-0.130,-0.115
3246,-0.120,-0.105
3247,-0.110,-0.080
3248,-0.105,-0.085
3249,-0.100,-0.105
3250,-0.120,-0.125
3251,-0.120,-0.115
3252,-0.115,-0.100
3253,-0.095,-0.080
3254,-0.085,-0.090
3255,-0.080,-0.110
3256,-0.100,-0.115
3257,-0.100,-0.105
3258,-0.105,-0.105
3259,-0.080,-0.075
3260,-0.070,-0.080
3261,-0.070,-0.105
3262,-0.070,-0.115
3263,-0.085,-0.105
3264,-0.095,-0.110
3265,-0.085,-0.085
3266,-0.055,-0.095
3267,-0.060,-0.090
3268,-0.080,-0.105
3269,-0.080,-0.100
3270,-0.065,-0.090
3271,-0.070,-0.070
3272,-0.065,-0.080
3273,-0.075,-0.095
3274,-0.080,-0.110
3275,-0.085,-0.095
3276,-0.080,-0.090
3277,-0.085,-0.080
3278,-0.075,-0.090
3279,-0.095,-0.095
3280,-0.100,-0.110
3281,-0.115,-0.115
3282,-0.125,-0.110
3283,-0.110,-0.100
3284,-0.110,-0.110
3285,-0.110,-0.130
3286,-0.125,-0.145
3287,-0.125,-0.140
3288,-0.130,-0.135
3289,-0.135,-0.125
3290,-0.125,-0.130
3291,-0.140,-0.150
3292,-0.155,-0.160
3293,-0.165,-0.160
3294,-0.160,-0.150
3295,-0.140,-0.135
3296,-0.145,-0.135
3297,-0.145,-0.155
3298,-0.160,-0.175
3299,-0.170,-0.165
3300,-0.170,-0.160
3301,-0.165,-0.155
3302,-0.150,-0.150
3303,-0.165,-0.180
3304,-0.180,-0.180
3305,-0.180,-0.165
3306,-0.170,-0.160
3307,-0.160,-0.160
3308,-0.150,-0.145
3309,-0.165,-0.170
3310,-0.175,-0.185
3311,-0.175,-0.175
3312,-0.180,-0.155
3313,-0.160,-0.155
3314,-0.155,-0.155
3315,-0.165,-0.155
3316,-0.170,-0.175
3317,-0.175,-0.180
3318,-0.175,-0.170
3319,-0.170,-0.145
3320,-0.160,-0.160
3321,-0.170,-0.155
3322,-0.170,-0.180
3323,-0.190,-0.180
3324,-0.175,-0.160
3325,-0.155,-0.165
3326,-0.155,-0.170
3327,-0.165,-0.190
3328,-0.170,-0.200
3329,-0.185,-0.190
3330,-0.175,-0.170
3331,-0.165,-0.150
3332,-0.160,-0.155
3333,-0.170,-0.180
3334,-0.195,-0.195
3335,-0.195,-0.195
3336,-0.180,-0.175
3337,-0.160,-0.175
3338,-0.165,-0.180
3339,-0.160,-0.185
3340,-0.180,-0.200
3341,-0.175,-0.210
3342,-0.175,-0.180
3343,-0.160,-0.160
3344,-0.140,-0.175
3345,-0.140,-0.200
3346,-0.155,-0.205
3347,-0.160,-0.195
3348,-0.150,-0.190
3349,-0.135,-0.175
3350,-0.140,-0.185
3351,-0.135,-0.185
3352,-0.145,-0.200
3353,-0.155,-0.205
3354,-0.155,-0.200
3355,-0.140,-0.190
3356,-0.125,-0.190
3357,-0.130,-0.195
3358,-0.135,-0.205
3359,-0.150,-0.200
3360,-0.145,-0.190
3361,-0.135,-0.180
3362,-0.135,-0.190
3363,-0.145,-0.200
3364,-0.125,-0.210
3365,-0.150,-0.210
3366,-0.140,-0.190
3367,-0.135,-0.180
3368,-0.125,-0.195
3369,-0.130,-0.195
3370,-0.135,-0.215
3371,-0.140,-0.215
3372,-0.130,-0.195
3373,-0.115,-0.180
3374,-0.100,-0.190
3375,-0.115,-0.200
3376,-0.125,-0.210
3377,-0.130,-0.210
3378,-0.135,-0.190
3379,-0.115,-0.195
3380,-0.105,-0.195
3381,-0.120,-0.200
3382,-0.130,-0.205
3383,-0.140,-0.205
3384,-0.120,-0.195
3385,-0.105,-0.190
3386,-0.095,-0.200
3387,-0.095,-0.205
3388,-0.115,-0.215
3389,-0.130,-0.205
3390,-0.130,-0.200
3391,-0.110,-0.185
3392,-0.105,-0.190
3393,-0.100,-0.205
3394,-0.095,-0.200
3395,-0.105,-0.195
3396,-0.100,-0.200
3397,-0.100,-0.185
3398,-0.075,-0.190
3399,-0.090,-0.215
3400,-0.090,-0.220
3401,-0.115,-0.210
3402,-0.100,-0.190
3403,-0.095,-0.185
3404,-0.090,-0.190
3405,-0.095,-0.195
3406,-0.105,-0.205
3407,-0.115,-0.205
3408,-0.105,-0.185
3409,-0.085,-0.190
3410,-0.085,-0.185
3411,-0.095,-0.195
3412,-0.095,-0.200
3413,-0.110,-0.215
3414,-0.095,-0.200
3415,-0.085,-0.200
3416,-0.080,-0.210
3417,-0.085,-0.215
3418,-0.085,-0.230
3419,-0.100,-0.210
3420,-0.090,-0.200
3421,-0.085,-0.190
3422,-0.075,-0.195
3423,-0.080,-0.200
3424,-0.100,-0.230
3425,-0.095,-0.215
3426,-0.090,-0.205
3427,-0.075,-0.190
3428,-0.075,-0.200
3429,-0.070,-0.205
3430,-0.080,-0.210
3431,-0.095,-0.225
3432,-0.090,-0.195
3433,-0.075,-0.195
3434,-0.060,-0.200
3435,-0.075,-0.200
3436,-0.100,-0.220
3437,-0.085,-0.205
3438,-0.080,-0.185
3439,-0.070,-0.175
3440,-0.055,-0.190
3441,-0.070,-0.210
3442,-0.100,-0.220
3443,-0.100,-0.215
3444,-0.085,-0.200
3445,-0.055,-0.195
3446,-0.055,-0.200
3447,-0.055,-0.200
3448,-0.075,-0.210
3449,-0.080,-0.195
3450,-0.090,-0.190
3451,-0.055,-0.180
3452,-0.035,-0.190
3453,-0.050,-0.195
3454,-0.050,-0.205
3455,-0.050,-0.195
3456,-0.040,-0.190
3457,-0.040,-0.170
3458,-0.030,-0.185
3459,-0.030,-0.195
3460,-0.025,-0.230
3461,-0.045,-0.230
3462,-0.030,-0.215
3463,-0.010,-0.205
3464,0.000,-0.220
3465,-0.005,-0.250
3466,-0.025,-0.280
3467,-0.005,-0.265
3468,0.000,-0.270
3469,0.020,-0.270
3470,0.045,-0.270
3471,0.040,-0.295
3472,0.045,-0.305
3473,0.055,-0.300
3474,0.065,-0.280
3475,0.070,-0.265
3476,0.050,-0.270
3477,0.050,-0.260
3478,0.020,-0.265
3479,-0.005,-0.245
3480,0.000,-0.200
3481,-0.020,-0.170
3482,-0.005,-0.170
3483,-0.005,-0.175
3484,-0.005,-0.195
3485,-0.020,-0.190
3486,-0.025,-0.185
3487,-0.045,-0.185
3488,-0.045,-0.195
3489,-0.055,-0.195
3490,-0.070,-0.210
3491,-0.080,-0.200
3492,-0.080,-0.185
3493,-0.075,-0.175
3494,-0.070,-0.195
3495,-0.080,-0.200
3496,-0.065,-0.215
3497,-0.075,-0.215
3498,-0.070,-0.205
3499,-0.060,-0.205
3500,-0.055,-0.200
3501,-0.070,-0.205
3502,-0.075,-0.215
3503,-0.075,-0.195
3504,-0.055,-0.170
3505,-0.050,-0.145
3506,-0.040,-0.115
3507,-0.040,-0.080
3508,-0.045,-0.060
3509,-0.050,-0.070
3510,-0.040,-0.110
3511,-0.035,-0.200
3512,-0.050,-0.340
3513,-0.070,-0.550
3514,-0.070,-0.755
3515,-0.010,-0.935
3516,0.115,-1.085
3517,0.270,-1.175
3518,0.445,-1.175
3519,0.605,-1.115
3520,0.710,-0.985
3521,0.740,-0.830
3522,0.670,-0.665
3523,0.480,-0.515
3524,0.250,-0.390
3525,0.040,-0.255
3526,-0.075,-0.180
3527,-0.120,-0.130
3528,-0.115,-0.100
3529,-0.080,-0.080
3530,-0.045,-0.085
3531,-0.035,-0.100
3532,-0.055,-0.105
3533,-0.065,-0.095
3534,-0.070,-0.080
3535,-0.060,-0.065
3536,-0.050,-0.075
3537,-0.070,-0.095
3538,-0.085,-0.110
3539,-0.065,-0.100
3540,-0.060,-0.090
3541,-0.040,-0.080
3542,-0.030,-0.090
3543,-0.030,-0.100
3544,-0.065,-0.115
3545,-0.065,-0.115
3546,-0.065,-0.100
3547,-0.040,-0.095
3548,-0.030,-0.110
3549,-0.025,-0.100
3550,-0.050,-0.110
3551,-0.055,-0.100
3552,-0.045,-0.100
3553,-0.050,-0.085
3554,-0.045,-0.085
3555,-0.030,-0.095
3556,-0.035,-0.110
3557,-0.050,-0.115
3558,-0.035,-0.095
3559,-0.025,-0.080
3560,-0.005,-0.085
3561,-0.005,-0.100
3562,-0.015,-0.110
3563,-0.035,-0.110
3564,-0.020,-0.100
3565,-0.020,-0.100
3566,-0.015,-0.100
3567,-0.030,-0.105
3568,-0.050,-0.120
3569,-0.050,-0.120
3570,-0.045,-0.110
3571,-0.025,-0.095
3572,-0.025,-0.095
3573,-0.025,-0.110
3574,-0.040,-0.125
3575,-0.040,-0.125
3576,-0.030,-0.105
3577,-0.015,-0.090
3578,-0.010,-0.100
3579,-0.015,-0.100
3580,-0.035,-0.110
3581,-0.035,-0.115
3582,-0.015,-0.100
3583,-0.005,-0.095
3584,0.005,-0.100
3585,-0.020,-0.110
3586,-0.030,-0.115
3587,-0.035,-0.120
3588,-0.020,-0.100
3589,-0.015,-0.095
3590,-0.005,-0.105
3591,-0.010,-0.115
3592,-0.015,-0.115
3593,-0.025,-0.115
3594,-0.020,-0.100
3595,-0.020,-0.090
3596,0.005,-0.090
3597,0.005,-0.115
3598,0.000,-0.120
3599,-0.015,-0.120
3600,-0.005,-0.115
3601,0.005,-0.110
3602,0.005,-0.105
3603,-0.005,-0.100
3604,-0.020,-0.120
3605,-0.030,-0.115
3606,-0.025,-0.100
3607,-0.015,-0.075
3608,-0.010,-0.095
3609,-0.010,-0.100
3610,-0.025,-0.125
3611,-0.040,-0.120
3612,-0.035,-0.105
3613,-0.055,-0.105
3614,-0.030,-0.110
3615,-0.050,-0.130
3616,-0.070,-0.150
3617,-0.080,-0.140
3618,-0.080,-0.120
3619,-0.060,-0.120
3620,-0.050,-0.125
3621,-0.065,-0.135
3622,-0.095,-0.155
3623,-0.095,-0.155
3624,-0.085,-0.135
3625,-0.070,-0.135
3626,-0.060,-0.130
3627,-0.080,-0.140
3628,-0.110,-0.165
3629,-0.115,-0.145
3630,-0.105,-0.145
3631,-0.080,-0.140
3632,-0.095,-0.140
3633,-0.090,-0.155
3634,-0.105,-0.165
3635,-0.125,-0.175
3636,-0.120,-0.150
3637,-0.095,-0.135
3638,-0.090,-0.130
3639,-0.105,-0.140
3640,-0.105,-0.155
3641,-0.110,-0.155
3642,-0.110,-0.140
3643,-0.110,-0.130
3644,-0.100,-0.145
3645,-0.105,-0.160
3646,-0.115,-0.170
3647,-0.125,-0.155
3648,-0.110,-0.135
3649,-0.095,-0.120
3650,-0.095,-0.140
3651,-0.085,-0.145
3652,-0.110,-0.160
3653,-0.120,-0.165
3654,-0.115,-0.160
3655,-0.105,-0.135
3656,-0.100,-0.135
3657,-0.110,-0.140
3658,-0.120,-0.170
3659,-0.125,-0.155
3660,-0.105,-0.150
3661,-0.100,-0.130
3662,-0.085,-0.150
3663,-0.090,-0.145
3664,-0.115,-0.155
3665,-0.130,-0.160
3666,-0.125,-0.150
3667,-0.100,-0.130
3668,-0.090,-0.140
3669,-0.085,-0.170
3670,-0.095,-0.170
3671,-0.095,-0.170
3672,-0.090,-0.165
3673,-0.090,-0.160
3674,-0.090,-0.165
3675,-0.095,-0.175
3676,-0.110,-0.175
3677,-0.120,-0.175
3678,-0.115,-0.160
3679,-0.090,-0.155
3680,-0.070,-0.165
3681,-0.075,-0.170
3682,-0.095,-0.185
3683,-0.090,-0.170
3684,-0.080,-0.165
3685,-0.075,-0.160
3686,-0.060,-0.165
3687,-0.060,-0.180
3688,-0.075,-0.190
3689,-0.100,-0.195
3690,-0.085,-0.165
3691,-0.075,-0.155
3692,-0.070,-0.160
3693,-0.060,-0.170
3694,-0.080,-0.180
3695,-0.070,-0.170
3696,-0.060,-0.170
3697,-0.060,-0.170
3698,-0.045,-0.175
3699,-0.055,-0.180
3700,-0.070,-0.180
3701,-0.075,-0.180
3702,-0.055,-0.165
3703,-0.055,-0.155
3704,-0.055,-0.175
3705,-0.060,-0.190
3706,-0.065,-0.195
3707,-0.080,-0.190
3708,-0.080,-0.175
3709,-0.060,-0.160
3710,-0.060,-0.165
3711,-0.065,-0.175
3712,-0.070,-0.175
3713,-0.075,-0.185
3714,-0.060,-0.165
3715,-0.045,-0.150
3716,-0.040,-0.175
3717,-0.030,-0.180
3718,-0.045,-0.190
3719,-0.080,-0.180
3720,-0.075,-0.175
3721,-0.060,-0.165
3722,-0.055,-0.170
3723,-0.075,-0.190
3724,-0.080,-0.190
3725,-0.080,-0.195
3726,-0.075,-0.165
3727,-0.055,-0.150
3728,-0.055,-0.165
3729,-0.060,-0.175
3730,-0.070,-0.190
3731,-0.070,-0.185
3732,-0.040,-0.170
3733,-0.035,-0.170
3734,-0.035,-0.175
3735,-0.045,-0.180
3736,-0.055,-0.190
3737,-0.070,-0.190
3738,-0.065,-0.175
3739,-0.040,-0.160
3740,-0.030,-0.170
3741,-0.045,-0.185
3742,-0.055,-0.185
3743,-0.055,-0.195
3744,-0.050,-0.185
3745,-0.045,-0.170
3746,-0.035,-0.170
3747,-0.035,-0.180
3748,-0.045,-0.200
3749,-0.050,-0.190
3750,-0.050,-0.185
3751,-0.050,-0.170
3752,-0.050,-0.175
3753,-0.035,-0.190
3754,-0.040,-0.200
3755,-0.050,-0.185
3756,-0.060,-0.175
3757,-0.040,-0.165
3758,-0.025,-0.175
3759,-0.035,-0.180
3760,-0.040,-0.190
3761,-0.045,-0.200
3762,-0.035,-0.175
3763,-0.015,-0.150
3764,-0.005,-0.135
3765,-0.015,-0.155
3766,-0.030,-0.160
3767,-0.040,-0.145
3768,-0.020,-0.125
3769,0.005,-0.115
3770,0.025,-0.110
3771,0.020,-0.115
3772,0.010,-0.125
3773,0.000,-0.125
3774,0.035,-0.120
3775,0.050,-0.100
3776,0.075,-0.110
3777,0.080,-0.130
3778,0.095,-0.165
3779,0.100,-0.170
3780,0.150,-0.180
3781,0.175,-0.175
3782,0.180,-0.200
3783,0.210,-0.225
3784,0.205,-0.230
3785,0.185,-0.230
3786,0.200,-0.225
3787,0.195,-0.215
3788,0.205,-0.205
3789,0.165,-0.190
3790,0.130,-0.195
3791,0.105,-0.170
3792,0.105,-0.165
3793,0.095,-0.165
3794,0.080,-0.165
3795,0.045,-0.180
3796,0.005,-0.200
3797,0.000,-0.195
3798,-0.030,-0.180
3799,-0.030,-0.175
3800,-0.040,-0.180
3801,-0.045,-0.205
3802,-0.065,-0.210
3803,-0.075,-0.205
3804,-0.090,-0.185
3805,-0.065,-0.185
3806,-0.065,-0.180
3807,-0.080,-0.190
3808,-0.095,-0.195
3809,-0.095,-0.190
3810,-0.085,-0.180
3811,-0.075,-0.175
3812,-0.075,-0.180
3813,-0.075,-0.195
3814,-0.085,-0.190
3815,-0.085,-0.170
3816,-0.075,-0.140
3817,-0.065,-0.105
3818,-0.060,-0.080
3819,-0.060,-0.090
3820,-0.065,-0.120
3821,-0.070,-0.165
3822,-0.080,-0.220
3823,-0.105,-0.310
3824,-0.140,-0.475
3825,-0.175,-0.665
3826,-0.190,-0.845
3827,-0.120,-0.950
3828,0.020,-1.025
3829,0.185,-1.025
3830,0.350,-0.975
3831,0.465,-0.870
3832,0.505,-0.745
3833,0.395,-0.605
3834,0.210,-0.485
3835,0.015,-0.370
3836,-0.115,-0.265
3837,-0.190,-0.175
3838,-0.230,-0.130
3839,-0.190,-0.100
3840,-0.105,-0.095
3841,-0.040,-0.090
3842,-0.015,-0.085
3843,-0.015,-0.090
3844,-0.030,-0.105
3845,-0.055,-0.110
3846,-0.040,-0.095
3847,-0.070,-0.080
3848,-0.030,-0.080
3849,-0.040,-0.110
3850,-0.065,-0.115
3851,-0.050,-0.100
3852,-0.040,-0.090
3853,-0.040,-0.080
3854,-0.030,-0.095
3855,-0.035,-0.105
3856,-0.045,-0.110
3857,-0.055,-0.105
3858,-0.030,-0.100
3859,-0.025,-0.085
3860,-0.005,-0.075
3861,-0.005,-0.085
3862,-0.015,-0.100
3863,-0.035,-0.105
3864,-0.025,-0.095
3865,-0.020,-0.090
3866,-0.015,-0.085
3867,-0.005,-0.095
3868,-0.015,-0.110
3869,-0.020,-0.095
3870,-0.010,-0.095
3871,0.000,-0.075
3872,-0.005,-0.080
3873,0.000,-0.105
3874,-0.010,-0.105
3875,-0.010,-0.105
3876,-0.010,-0.080
3877,-0.005,-0.075
3878,0.010,-0.080
3879,0.000,-0.100
3880,-0.010,-0.110
3881,-0.005,-0.110
3882,0.005,-0.110
3883,0.015,-0.090
3884,0.020,-0.085
3885,0.000,-0.090
3886,0.000,-0.110
3887,-0.005,-0.105
3888,-0.010,-0.090
3889,0.010,-0.085
3890,0.015,-0.090
3891,0.010,-0.095
3892,-0.010,-0.120
3893,-0.020,-0.115
3894,-0.005,-0.095
3895,0.005,-0.070
3896,0.005,-0.075
3897,-0.005,-0.090
3898,-0.010,-0.105
3899,-0.015,-0.105
3900,-0.010,-0.090
3901,-0.005,-0.075
3902,0.000,-0.090
3903,-0.010,-0.100
3904,-0.015,-0.115
3905,-0.020,-0.105
3906,-0.015,-0.100
3907,-0.005,-0.080
3908,0.005,-0.085
3909,0.000,-0.095
3910,-0.015,-0.110
3911,-0.025,-0.105
3912,-0.035,-0.105
3913,-0.015,-0.075
3914,-0.005,-0.095
3915,-0.010,-0.120
3916,-0.035,-0.115
3917,-0.055,-0.115
3918,-0.035,-0.110
3919,-0.030,-0.090
3920,-0.020,-0.105
3921,-0.035,-0.100
3922,-0.055,-0.125
3923,-0.070,-0.115
3924,-0.065,-0.110
3925,-0.070,-0.105
3926,-0.060,-0.095
3927,-0.055,-0.115
3928,-0.085,-0.125
3929,-0.105,-0.115
3930,-0.110,-0.100
3931,-0.090,-0.080
3932,-0.090,-0.095
3933,-0.085,-0.110
3934,-0.100,-0.120
3935,-0.105,-0.120
3936,-0.095,-0.110
3937,-0.090,-0.110
3938,-0.080,-0.095
3939,-0.090,-0.100
3940,-0.100,-0.105
3941,-0.115,-0.110
3942,-0.120,-0.090
3943,-0.090,-0.100
3944,-0.085,-0.090
3945,-0.095,-0.115
3946,-0.110,-0.120
3947,-0.110,-0.115
3948,-0.100,-0.105
3949,-0.120,-0.100
3950,-0.090,-0.110
3951,-0.095,-0.130
3952,-0.115,-0.135
3953,-0.115,-0.130
3954,-0.100,-0.115
3955,-0.085,-0.100
3956,-0.080,-0.115
3957,-0.090,-0.140
3958,-0.105,-0.145
3959,-0.100,-0.150
3960,-0.095,-0.135
3961,-0.080,-0.125
3962,-0.070,-0.125
3963,-0.080,-0.125
3964,-0.095,-0.145
3965,-0.095,-0.135
3966,-0.090,-0.135
3967,-0.085,-0.125
3968,-0.085,-0.135
3969,-0.080,-0.145
3970,-0.085,-0.155
3971,-0.090,-0.160
3972,-0.080,-0.145
3973,-0.080,-0.135
3974,-0.055,-0.130
3975,-0.055,-0.150
3976,-0.065,-0.160
3977,-0.085,-0.150
3978,-0.065,-0.145
3979,-0.055,-0.130
3980,-0.045,-0.130
3981,-0.050,-0.150
3982,-0.050,-0.150
3983,-0.065,-0.160
3984,-0.040,-0.150
3985,-0.040,-0.140
3986,-0.020,-0.135
3987,-0.025,-0.150
3988,-0.030,-0.150
3989,-0.045,-0.155
3990,-0.030,-0.140
3991,-0.025,-0.130
3992,-0.015,-0.135
3993,-0.025,-0.150
3994,-0.030,-0.155
3995,-0.055,-0.155
3996,-0.055,-0.130
3997,-0.025,-0.140
3998,-0.030,-0.135
3999,-0.025,-0.150
4000,-0.025,-0.160
4001,-0.040,-0.160
4002,-0.020,-0.150
4003,-0.010,-0.125
4004,0.000,-0.130
4005,-0.005,-0.135
4006,-0.025,-0.150
4007,-0.030,-0.155
4008,-0.010,-0.135
4009,-0.005,-0.125
4010,0.000,-0.140
4011,-0.010,-0.150
4012,-0.010,-0.140
4013,-0.020,-0.155
4014,-0.005,-0.135
4015,0.005,-0.125
4016,0.000,-0.130
4017,0.005,-0.135
4018,-0.015,-0.155
4019,-0.010,-0.155
4020,-0.010,-0.130
4021,-0.005,-0.120
4022,0.015,-0.130
4023,0.010,-0.135
4024,-0.015,-0.150
4025,-0.020,-0.155
4026,-0.005,-0.150
4027,0.010,-0.130
4028,0.015,-0.135
4029,-0.005,-0.130
4030,-0.020,-0.150
4031,-0.015,-0.150
4032,-0.015,-0.140
4033,-0.010,-0.125
4034,-0.005,-0.130
4035,0.000,-0.140
4036,-0.005,-0.155
4037,-0.035,-0.145
4038,-0.005,-0.130
4039,0.015,-0.110
4040,0.010,-0.115
4041,0.010,-0.145
4042,-0.005,-0.150
4043,-0.005,-0.150
4044,0.005,-0.125
4045,0.010,-0.100
4046,0.015,-0.115
4047,0.010,-0.115
4048,-0.010,-0.105
4049,0.000,-0.100
4050,0.030,-0.085
4051,0.050,-0.075
4052,0.075,-0.075
4053,0.075,-0.070
4054,0.060,-0.080
4055,0.050,-0.070
4056,0.080,-0.055
4057,0.095,-0.040
4058,0.130,-0.065
4059,0.130,-0.085
4060,0.145,-0.100
4061,0.180,-0.125
4062,0.210,-0.145
4063,0.240,-0.150
4064,0.260,-0.165
4065,0.255,-0.170
4066,0.250,-0.195
4067,0.230,-0.185
4068,0.225,-0.150
4069,0.210,-0.130
4070,0.195,-0.120
4071,0.180,-0.120
4072,0.155,-0.140
4073,0.135,-0.140
4074,0.125,-0.130
4075,0.105,-0.130
4076,0.090,-0.125
4077,0.060,-0.155
4078,0.025,-0.155
4079,0.005,-0.150
4080,-0.005,-0.130
4081,-0.005,-0.125
4082,-0.020,-0.135
4083,-0.030,-0.155
4084,-0.040,-0.165
4085,-0.065,-0.155
4086,-0.040,-0.145
4087,-0.015,-0.130
4088,-0.010,-0.115
4089,-0.015,-0.130
4090,-0.035,-0.145
4091,-0.050,-0.145
4092,-0.035,-0.130
4093,-0.005,-0.115
4094,0.000,-0.080
4095,-0.005,-0.050
4096,-0.010,-0.005
4097,-0.015,0.020
4098,-0.010,0.015
4099,-0.010,-0.040
4100,-0.025,-0.140
4101,-0.035,-0.300
4102,-0.045,-0.530
4103,-0.015,-0.775
4104,0.100,-1.000
4105,0.265,-1.120
4106,0.440,-1.160
4107,0.605,-1.120
4108,0.725,-1.005
4109,0.780,-0.845
4110,0.750,-0.665
4111,0.590,-0.490
4112,0.330,-0.335
4113,0.085,-0.200
4114,-0.050,-0.120
4115,-0.075,-0.075
4116,-0.045,-0.045
4117,0.000,-0.040
4118,0.015,-0.025
4119,0.010,-0.045
4120,-0.025,-0.045
4121,-0.035,-0.060
4122,-0.030,-0.040
4123,-0.015,-0.020
4124,-0.005,-0.040
4125,-0.010,-0.045
4126,-0.030,-0.055
4127,-0.030,-0.050
4128,-0.020,-0.040
4129,-0.015,-0.040
4130,-0.010,-0.045
4131,-0.010,-0.055
4132,-0.025,-0.075
4133,-0.030,-0.065
4134,-0.035,-0.055
4135,-0.020,-0.035
4136,0.005,-0.040
4137,-0.010,-0.065
4138,-0.020,-0.065
4139,-0.030,-0.045
4140,-0.010,-0.060
4141,-0.005,-0.035
4142,0.015,-0.055
4143,-0.010,-0.065
4144,-0.005,-0.075
4145,-0.010,-0.070
4146,0.000,-0.045
4147,0.010,-0.030
4148,0.015,-0.050
4149,-0.015,-0.060
4150,-0.005,-0.050
4151,-0.015,-0.045
4152,0.000,-0.040
4153,0.020,-0.025
4154,0.035,-0.030
4155,0.020,-0.040
4156,0.010,-0.050
4157,0.010,-0.050
4158,0.015,-0.040
4159,0.030,-0.025
4160,0.025,-0.030
4161,0.035,-0.035
4162,0.020,-0.060
4163,0.015,-0.050
4164,0.025,-0.045
4165,0.045,-0.025
4166,0.050,-0.025
4167,0.050,-0.035
4168,0.035,-0.045
4169,0.025,-0.030
4170,0.030,-0.025
4171,0.035,-0.005
4172,0.055,-0.020
4173,0.050,-0.035
4174,0.035,-0.035
4175,0.040,-0.025
4176,0.040,-0.005
4177,0.055,-0.005
4178,0.060,-0.005
4179,0.045,-0.030
4180,0.040,-0.025
4181,0.040,-0.025
4182,0.030,0.000
4183,0.055,0.000
4184,0.050,-0.010
4185,0.025,-0.020
4186,0.025,-0.035
4187,0.030,-0.035
4188,0.025,-0.020
4189,0.045,-0.005
4190,0.050,0.000
4191,0.025,-0.015
4192,0.020,-0.040
4193,0.015,-0.025
4194,0.010,-0.020
4195,0.010,-0.020
4196,0.010,-0.040
4197,-0.010,-0.050
4198,-0.020,-0.060
4199,-0.035,-0.055
4200,-0.030,-0.055
4201,-0.025,-0.035
4202,-0.010,-0.060
4203,-0.020,-0.060
4204,-0.040,-0.065
4205,-0.040,-0.065
4206,-0.035,-0.060
4207,-0.035,-0.050
4208,-0.030,-0.055
4209,-0.030,-0.075
4210,-0.050,-0.100
4211,-0.070,-0.080
4212,-0.070,-0.070
4213,-0.060,-0.065
4214,-0.055,-0.065
4215,-0.055,-0.080
4216,-0.075,-0.090
4217,-0.090,-0.090
4218,-0.080,-0.080
4219,-0.080,-0.080
4220,-0.070,-0.085
4221,-0.065,-0.095
4222,-0.090,-0.105
4223,-0.090,-0.100
4224,-0.090,-0.090
4225,-0.080,-0.090
4226,-0.060,-0.070
4227,-0.075,-0.090
4228,-0.080,-0.110
4229,-0.100,-0.100
4230,-0.100,-0.095
4231,-0.080,-0.085
4232,-0.070,-0.095
4233,-0.085,-0.100
4234,-0.085,-0.110
4235,-0.090,-0.100
4236,-0.090,-0.090
4237,-0.080,-0.090
4238,-0.065,-0.090
4239,-0.070,-0.100
4240,-0.085,-0.115
4241,-0.085,-0.100
4242,-0.105,-0.100
4243,-0.080,-0.075
4244,-0.065,-0.095
4245,-0.065,-0.105
4246,-0.080,-0.110
4247,-0.085,-0.125
4248,-0.070,-0.110
4249,-0.065,-0.095
4250,-0.050,-0.100
4251,-0.070,-0.115
4252,-0.080,-0.125
4253,-0.085,-0.115
4254,-0.075,-0.100
4255,-0.065,-0.100
4256,-0.050,-0.095
4257,-0.065,-0.110
4258,-0.080,-0.125
4259,-0.075,-0.105
4260,-0.070,-0.105
4261,-0.070,-0.100
4262,-0.055,-0.100
4263,-0.040,-0.125
4264,-0.070,-0.120
4265,-0.085,-0.120
4266,-0.085,-0.110
4267,-0.065,-0.095
4268,-0.050,-0.100
4269,-0.070,-0.125
4270,-0.055,-0.125
4271,-0.065,-0.120
4272,-0.065,-0.100
4273,-0.050,-0.100
4274,-0.060,-0.090
4275,-0.055,-0.115
4276,-0.065,-0.125
4277,-0.060,-0.120
4278,-0.065,-0.100
4279,-0.045,-0.090
4280,-0.030,-0.105
4281,-0.035,-0.110
4282,-0.065,-0.125
4283,-0.065,-0.125
4284,-0.055,-0.115
4285,-0.040,-0.085
4286,-0.045,-0.100
4287,-0.050,-0.115
4288,-0.060,-0.120
4289,-0.075,-0.125
4290,-0.055,-0.095
4291,-0.045,-0.095
4292,-0.025,-0.095
4293,-0.045,-0.105
4294,-0.065,-0.120
4295,-0.065,-0.120
4296,-0.050,-0.100
4297,-0.040,-0.085
4298,-0.030,-0.095
4299,-0.035,-0.115
4300,-0.060,-0.130
4301,-0.065,-0.130
4302,-0.060,-0.105
4303,-0.040,-0.085
4304,-0.030,-0.095
4305,-0.050,-0.105
4306,-0.055,-0.110
4307,-0.065,-0.120
4308,-0.055,-0.100
4309,-0.040,-0.085
4310,-0.025,-0.100
4311,-0.040,-0.105
4312,-0.045,-0.110
4313,-0.060,-0.115
4314,-0.060,-0.105
4315,-0.050,-0.090
4316,-0.030,-0.095
4317,-0.060,-0.105
4318,-0.050,-0.120
4319,-0.060,-0.120
4320,-0.045,-0.110
4321,-0.040,-0.085
4322,-0.030,-0.090
4323,-0.045,-0.115
4324,-0.060,-0.135
4325,-0.060,-0.120
4326,-0.045,-0.095
4327,-0.035,-0.085
4328,-0.035,-0.090
4329,-0.040,-0.115
4330,-0.050,-0.115
4331,-0.055,-0.110
4332,-0.045,-0.100
4333,-0.030,-0.080
4334,-0.045,-0.085
4335,-0.040,-0.100
4336,-0.050,-0.110
4337,-0.070,-0.110
4338,-0.055,-0.105
4339,-0.045,-0.090
4340,-0.025,-0.100
4341,-0.030,-0.095
4342,-0.050,-0.095
4343,-0.050,-0.085
4344,-0.055,-0.075
4345,-0.030,-0.040
4346,-0.010,-0.035
4347,0.000,-0.050
4348,-0.005,-0.060
4349,-0.010,-0.060
4350,0.010,-0.030
4351,0.020,-0.025
4352,0.040,-0.030
4353,0.050,-0.050
4354,0.045,-0.080
4355,0.060,-0.095
4356,0.095,-0.115
4357,0.140,-0.130
4358,0.150,-0.135
4359,0.145,-0.155
4360,0.150,-0.155
4361,0.135,-0.160
4362,0.145,-0.155
4363,0.145,-0.130
4364,0.135,-0.130
4365,0.110,-0.130
4366,0.085,-0.140
4367,0.055,-0.105
4368,0.075,-0.100
4369,0.070,-0.065
4370,0.075,-0.070
4371,0.060,-0.105
4372,0.020,-0.115
4373,0.000,-0.110
4374,-0.050,-0.095
4375,-0.040,-0.100
4376,-0.040,-0.095
4377,-0.065,-0.110
4378,-0.090,-0.115
4379,-0.105,-0.120
4380,-0.095,-0.115
4381,-0.085,-0.100
4382,-0.080,-0.100
4383,-0.090,-0.115
4384,-0.100,-0.140
4385,-0.100,-0.120
4386,-0.100,-0.100
4387,-0.080,-0.085
4388,-0.065,-0.090
4389,-0.085,-0.095
4390,-0.085,-0.085
4391,-0.080,-0.025
4392,-0.065,0.030
4393,-0.050,0.050
4394,-0.050,0.010
4395,-0.060,-0.110
4396,-0.075,-0.255
4397,-0.100,-0.465
4398,-0.095,-0.670
4399,-0.045,-0.850
4400,0.060,-1.015
4401,0.180,-1.105
4402,0.300,-1.120
4403,0.460,-1.010
4404,0.590,-0.860
4405,0.650,-0.695
4406,0.580,-0.545
4407,0.365,-0.400
4408,0.150,-0.280
4409,-0.005,-0.145
4410,-0.085,-0.045
4411,-0.105,-0.010
4412,-0.090,0.000
4413,-0.085,-0.010
4414,-0.095,-0.020
4415,-0.115,-0.020
4416,-0.115,0.000
4417,-0.105,0.015
4418,-0.090,-0.005
4419,-0.095,-0.010
4420,-0.115,-0.035
4421,-0.105,-0.025
4422,-0.105,-0.020
4423,-0.105,-0.015
4424,-0.090,-0.015
4425,-0.090,-0.020
4426,-0.115,-0.040
4427,-0.115,-0.040
4428,-0.100,-0.015
4429,-0.085,-0.015
4430,-0.080,-0.010
4431,-0.080,-0.020
4432,-0.100,-0.040
4433,-0.100,-0.030
4434,-0.085,-0.020
4435,-0.090,0.005
4436,-0.085,-0.015
4437,-0.090,-0.040
4438,-0.100,-0.040
4439,-0.105,-0.025
4440,-0.110,-0.025
4441,-0.090,-0.005
4442,-0.070,-0.010
4443,-0.095,-0.015
4444,-0.080,-0.035
4445,-0.095,-0.020
4446,-0.075,-0.015
4447,-0.065,-0.005
4448,-0.060,-0.025
4449,-0.055,-0.040
4450,-0.075,-0.040
4451,-0.080,-0.040
4452,-0.075,-0.020
4453,-0.055,-0.005
4454,-0.055,-0.020
4455,-0.050,-0.030
4456,-0.060,-0.060
4457,-0.060,-0.035
4458,-0.060,-0.025
4459,-0.070,-0.015
4460,-0.050,-0.020
4461,-0.050,-0.035
4462,-0.055,-0.045
4463,-0.070,-0.030
4464,-0.050,-0.025
4465,-0.035,-0.010
4466,-0.020,-0.020
4467,-0.030,-0.020
4468,-0.055,-0.025
4469,-0.050,-0.015
4470,-0.040,0.000
4471,-0.035,0.005
4472,-0.025,-0.010
4473,-0.035,-0.030
4474,-0.050,-0.035
4475,-0.050,-0.010
4476,-0.040,0.000
4477,-0.035,-0.005
4478,-0.030,0.000
4479,-0.030,-0.030
4480,-0.035,-0.025
4481,-0.045,-0.035
4482,-0.040,-0.025
4483,-0.045,-0.020
4484,-0.030,-0.025
4485,-0.040,-0.035
4486,-0.050,-0.040
4487,-0.050,-0.035
4488,-0.050,-0.030
4489,-0.040,-0.025
4490,-0.050,-0.010
4491,-0.075,-0.020
4492,-0.085,-0.035
4493,-0.105,-0.045
4494,-0.095,-0.035
4495,-0.095,-0.030
4496,-0.090,-0.030
4497,-0.115,-0.065
4498,-0.120,-0.060
4499,-0.125,-0.060
4500,-0.115,-0.045
4501,-0.115,-0.030
4502,-0.105,-0.055
4503,-0.115,-0.070
4504,-0.130,-0.075
4505,-0.135,-0.090
4506,-0.130,-0.075
4507,-0.120,-0.065
4508,-0.115,-0.060
4509,-0.135,-0.075
4510,-0.150,-0.080
4511,-0.155,-0.090
4512,-0.150,-0.070
4513,-0.175,-0.070
4514,-0.145,-0.070
4515,-0.155,-0.070
4516,-0.165,-0.080
4517,-0.170,-0.080
4518,-0.165,-0.070
4519,-0.165,-0.065
4520,-0.150,-0.075
4521,-0.150,-0.085
4522,-0.160,-0.100
4523,-0.180,-0.100
4524,-0.180,-0.080
4525,-0.165,-0.080
4526,-0.150,-0.085
4527,-0.150,-0.100
4528,-0.170,-0.110
4529,-0.185,-0.115
4530,-0.175,-0.090
4531,-0.155,-0.075
4532,-0.155,-0.085
4533,-0.155,-0.100
4534,-0.170,-0.110
4535,-0.185,-0.095
4536,-0.190,-0.100
4537,-0.180,-0.085
4538,-0.170,-0.085
4539,-0.160,-0.105
4540,-0.170,-0.110
4541,-0.170,-0.110
4542,-0.170,-0.090
4543,-0.150,-0.090
4544,-0.145,-0.100
4545,-0.150,-0.110
4546,-0.160,-0.125
4547,-0.165,-0.110
4548,-0.155,-0.090
4549,-0.140,-0.095
4550,-0.145,-0.100
4551,-0.145,-0.105
4552,-0.165,-0.115
4553,-0.155,-0.120
4554,-0.165,-0.115
4555,-0.135,-0.100
4556,-0.140,-0.105
4557,-0.135,-0.130
4558,-0.155,-0.135
4559,-0.165,-0.120
4560,-0.160,-0.110
4561,-0.140,-0.105
4562,-0.145,-0.110
4563,-0.135,-0.125
4564,-0.160,-0.140
4565,-0.150,-0.125
4566,-0.160,-0.115
4567,-0.145,-0.120
4568,-0.145,-0.120
4569,-0.160,-0.140
4570,-0.160,-0.150
4571,-0.165,-0.125
4572,-0.155,-0.120
4573,-0.155,-0.110
4574,-0.135,-0.095
4575,-0.135,-0.115
4576,-0.140,-0.125
4577,-0.160,-0.125
4578,-0.130,-0.120
4579,-0.120,-0.110
4580,-0.125,-0.115
4581,-0.140,-0.125
4582,-0.150,-0.135
4583,-0.145,-0.125
4584,-0.130,-0.130
4585,-0.130,-0.115
4586,-0.120,-0.120
4587,-0.140,-0.140
4588,-0.150,-0.140
4589,-0.145,-0.130
4590,-0.145,-0.115
4591,-0.130,-0.095
4592,-0.130,-0.115
4593,-0.135,-0.150
4594,-0.140,-0.155
4595,-0.150,-0.145
4596,-0.125,-0.130
4597,-0.130,-0.110
4598,-0.135,-0.135
4599,-0.125,-0.140
4600,-0.150,-0.150
4601,-0.160,-0.130
4602,-0.140,-0.130
4603,-0.120,-0.120
4604,-0.120,-0.135
4605,-0.130,-0.140
4606,-0.145,-0.145
4607,-0.150,-0.130
4608,-0.155,-0.140
4609,-0.145,-0.115
4610,-0.140,-0.125
4611,-0.130,-0.125
4612,-0.150,-0.145
4613,-0.155,-0.135
4614,-0.155,-0.130
4615,-0.125,-0.115
4616,-0.120,-0.115
4617,-0.115,-0.140
4618,-0.125,-0.145
4619,-0.130,-0.145
4620,-0.140,-0.130
4621,-0.125,-0.110
4622,-0.120,-0.120
4623,-0.125,-0.140
4624,-0.130,-0.130
4625,-0.140,-0.125
4626,-0.130,-0.115
4627,-0.110,-0.110
4628,-0.095,-0.120
4629,-0.110,-0.110
4630,-0.105,-0.100
4631,-0.120,-0.100
4632,-0.115,-0.065
4633,-0.095,-0.055
4634,-0.065,-0.060
4635,-0.065,-0.060
4636,-0.055,-0.075
4637,-0.055,-0.070
4638,-0.035,-0.055
4639,-0.005,-0.040
4640,0.015,-0.055
4641,0.020,-0.085
4642,0.030,-0.140
4643,0.045,-0.160
4644,0.060,-0.165
4645,0.085,-0.160
4646,0.095,-0.145
4647,0.080,-0.170
4648,0.070,-0.170
4649,0.060,-0.170
4650,0.050,-0.140
4651,0.045,-0.105
4652,0.035,-0.115
4653,0.025,-0.125
4654,-0.015,-0.155
4655,-0.035,-0.140
4656,-0.065,-0.140
4657,-0.080,-0.125
4658,-0.090,-0.140
4659,-0.130,-0.155
4660,-0.145,-0.175
4661,-0.165,-0.170
4662,-0.170,-0.150
4663,-0.170,-0.135
4664,-0.155,-0.135
4665,-0.160,-0.145
4666,-0.175,-0.160
4667,-0.185,-0.165
4668,-0.180,-0.150
4669,-0.160,-0.145
4670,-0.165,-0.140
4671,-0.165,-0.160
4672,-0.200,-0.155
4673,-0.180,-0.140
4674,-0.190,-0.135
4675,-0.180,-0.120
4676,-0.160,-0.090
4677,-0.160,-0.065
4678,-0.175,-0.050
4679,-0.165,-0.065
4680,-0.160,-0.110
4681,-0.155,-0.180
4682,-0.185,-0.315
4683,-0.215,-0.505
4684,-0.240,-0.705
4685,-0.205,-0.860
4686,-0.125,-0.980
4687,-0.005,-1.015
4688,0.130,-1.025
4689,0.250,-0.950
4690,0.315,-0.830
4691,0.295,-0.680
4692,0.190,-0.510
4693,0.020,-0.370
4694,-0.155,-0.265
4695,-0.240,-0.165
4696,-0.275,-0.110
4697,-0.260,-0.080
4698,-0.195,-0.060
4699,-0.145,-0.065
4700,-0.145,-0.055
4701,-0.155,-0.070
4702,-0.155,-0.075
4703,-0.180,-0.085
4704,-0.160,-0.075
4705,-0.140,-0.065
4706,-0.140,-0.065
4707,-0.145,-0.065
4708,-0.180,-0.085
4709,-0.195,-0.085
4710,-0.180,-0.065
4711,-0.155,-0.065
4712,-0.150,-0.060
4713,-0.150,-0.065
4714,-0.150,-0.080
4715,-0.155,-0.075
4716,-0.140,-0.065
4717,-0.135,-0.055
4718,-0.125,-0.060
4719,-0.130,-0.085
4720,-0.140,-0.085
4721,-0.145,-0.075
4722,-0.175,-0.055
4723,-0.145,-0.050
4724,-0.140,-0.050
4725,-0.155,-0.070
4726,-0.175,-0.075
4727,-0.155,-0.075
4728,-0.145,-0.050
4729,-0.120,-0.050
4730,-0.115,-0.050
4731,-0.125,-0.060
4732,-0.145,-0.080
4733,-0.155,-0.085
4734,-0.140,-0.070
4735,-0.125,-0.060
4736,-0.115,-0.060
4737,-0.130,-0.075
4738,-0.130,-0.080
4739,-0.150,-0.075
4740,-0.135,-0.065
4741,-0.120,-0.040
4742,-0.105,-0.045
4743,-0.115,-0.060
4744,-0.120,-0.065
4745,-0.125,-0.080
4746,-0.120,-0.070
4747,-0.125,-0.050
4748,-0.130,-0.055
4749,-0.120,-0.070
4750,-0.140,-0.075
4751,-0.150,-0.080
4752,-0.145,-0.065
4753,-0.130,-0.050
4754,-0.130,-0.055
4755,-0.140,-0.065
4756,-0.155,-0.085
4757,-0.150,-0.080
4758,-0.135,-0.075
4759,-0.120,-0.055
4760,-0.125,-0.055
4761,-0.120,-0.070
4762,-0.165,-0.075
4763,-0.170,-0.085
4764,-0.155,-0.075
4765,-0.145,-0.065
4766,-0.135,-0.070
4767,-0.140,-0.075
4768,-0.160,-0.095
4769,-0.180,-0.095
4770,-0.170,-0.085
4771,-0.170,-0.065
4772,-0.170,-0.085
4773,-0.195,-0.090
4774,-0.205,-0.110
4775,-0.225,-0.100
4776,-0.215,-0.085
4777,-0.195,-0.075
4778,-0.205,-0.080
4779,-0.220,-0.095
4780,-0.220,-0.110
4781,-0.235,-0.090
4782,-0.230,-0.080
4783,-0.230,-0.060
4784,-0.220,-0.075
4785,-0.220,-0.090
4786,-0.240,-0.085
4787,-0.240,-0.090
4788,-0.230,-0.075
4789,-0.225,-0.075
4790,-0.220,-0.065
4791,-0.240,-0.080
4792,-0.245,-0.095
4793,-0.245,-0.090
4794,-0.235,-0.080
4795,-0.235,-0.075
4796,-0.220,-0.070
4797,-0.230,-0.085
4798,-0.245,-0.105
4799,-0.250,-0.100
4800,-0.250,-0.085
4801,-0.225,-0.085
4802,-0.215,-0.100
4803,-0.220,-0.110
4804,-0.230,-0.130
4805,-0.245,-0.120
4806,-0.235,-0.110
4807,-0.220,-0.095
4808,-0.220,-0.100
4809,-0.215,-0.115
4810,-0.215,-0.120
4811,-0.225,-0.125
4812,-0.225,-0.120
4813,-0.220,-0.110
4814,-0.200,-0.105
4815,-0.220,-0.125
4816,-0.230,-0.115
4817,-0.235,-0.120
4818,-0.225,-0.125
4819,-0.220,-0.115
4820,-0.185,-0.120
4821,-0.200,-0.125
4822,-0.200,-0.135
4823,-0.210,-0.125
4824,-0.200,-0.120
4825,-0.190,-0.105
4826,-0.185,-0.105
4827,-0.175,-0.125
4828,-0.200,-0.140
4829,-0.205,-0.125
4830,-0.200,-0.120
4831,-0.190,-0.110
4832,-0.175,-0.120
4833,-0.175,-0.130
4834,-0.200,-0.145
4835,-0.210,-0.145
4836,-0.190,-0.130
4837,-0.170,-0.115
4838,-0.160,-0.125
4839,-0.165,-0.125
4840,-0.175,-0.140
4841,-0.170,-0.145
4842,-0.175,-0.130
4843,-0.155,-0.115
4844,-0.150,-0.135
4845,-0.160,-0.150
4846,-0.175,-0.155
4847,-0.165,-0.150
4848,-0.155,-0.120
4849,-0.140,-0.115
4850,-0.140,-0.110
4851,-0.140,-0.145
4852,-0.150,-0.155
4853,-0.150,-0.145
4854,-0.150,-0.125
4855,-0.140,-0.130
4856,-0.130,-0.140
4857,-0.135,-0.145
4858,-0.145,-0.145
4859,-0.140,-0.150
4860,-0.135,-0.135
4861,-0.135,-0.135
4862,-0.135,-0.120
4863,-0.135,-0.130
4864,-0.130,-0.130
4865,-0.140,-0.125
4866,-0.125,-0.120
4867,-0.130,-0.105
4868,-0.105,-0.115
4869,-0.135,-0.125
4870,-0.120,-0.145
4871,-0.130,-0.130
4872,-0.130,-0.120
4873,-0.110,-0.110
4874,-0.100,-0.120
4875,-0.110,-0.115
4876,-0.120,-0.135
4877,-0.115,-0.130
4878,-0.115,-0.120
4879,-0.105,-0.120
4880,-0.110,-0.120
4881,-0.105,-0.120
4882,-0.105,-0.140
4883,-0.100,-0.135
4884,-0.110,-0.115
4885,-0.080,-0.110
4886,-0.085,-0.125
4887,-0.095,-0.135
4888,-0.095,-0.140
4889,-0.105,-0.125
4890,-0.095,-0.125
4891,-0.090,-0.115
4892,-0.070,-0.120
4893,-0.080,-0.125
4894,-0.090,-0.160
4895,-0.105,-0.140
4896,-0.095,-0.125
4897,-0.090,-0.105
4898,-0.085,-0.120
4899,-0.075,-0.135
4900,-0.090,-0.155
4901,-0.105,-0.150
4902,-0.085,-0.125
4903,-0.085,-0.120
4904,-0.075,-0.115
4905,-0.075,-0.140
4906,-0.090,-0.145
4907,-0.090,-0.135
4908,-0.085,-0.125
4909,-0.070,-0.110
4910,-0.055,-0.125
4911,-0.065,-0.125
4912,-0.070,-0.120
4913,-0.070,-0.100
4914,-0.050,-0.080
4915,-0.030,-0.055
4916,-0.020,-0.055
4917,-0.015,-0.075
4918,-0.010,-0.085
4919,-0.005,-0.080
4920,0.010,-0.055
4921,0.030,-0.040
4922,0.055,-0.040
4923,0.065,-0.065
4924,0.065,-0.080
4925,0.090,-0.100
4926,0.115,-0.100
4927,0.150,-0.130
4928,0.180,-0.150
4929,0.180,-0.170
4930,0.175,-0.165
4931,0.170,-0.170
4932,0.165,-0.160
4933,0.175,-0.140
4934,0.180,-0.130
4935,0.160,-0.140
4936,0.115,-0.155
4937,0.085,-0.135
4938,0.090,-0.115
4939,0.085,-0.115
4940,0.070,-0.115
4941,0.045,-0.135
4942,0.005,-0.150
4943,-0.030,-0.145
4944,-0.025,-0.140
4945,-0.030,-0.135
4946,-0.040,-0.140
4947,-0.045,-0.145
4948,-0.070,-0.150
4949,-0.080,-0.145
4950,-0.080,-0.135
4951,-0.050,-0.130
4952,-0.055,-0.135
4953,-0.060,-0.150
4954,-0.085,-0.160
4955,-0.070,-0.145
4956,-0.065,-0.145
4957,-0.045,-0.120
4958,-0.045,-0.120
4959,-0.040,-0.125
4960,-0.035,-0.100
4961,-0.055,-0.060
4962,-0.040,-0.005
4963,-0.025,0.015
4964,-0.030,-0.050
4965,-0.030,-0.135
4966,-0.055,-0.240
4967,-0.065,-0.375
4968,-0.055,-0.530
4969,-0.025,-0.715
4970,0.060,-0.915
4971,0.180,-1.055
4972,0.325,-1.110
4973,0.465,-1.050
4974,0.635,-0.925
4975,0.715,-0.765
4976,0.705,-0.605
4977,0.540,-0.455
4978,0.300,-0.300
4979,0.100,-0.180
4980,-0.005,-0.080
4981,-0.025,-0.030
4982,0.000,-0.035
4983,-0.005,-0.045
4984,-0.020,-0.060
4985,-0.030,-0.045
4986,-0.025,-0.040
4987,-0.025,-0.030
4988,-0.020,-0.035
4989,-0.020,-0.050
4990,-0.030,-0.060
4991,-0.040,-0.045
4992,-0.040,-0.040
4993,-0.025,-0.035
4994,-0.025,-0.035
4995,-0.045,-0.050
4996,-0.060,-0.070
4997,-0.065,-0.055
4998,-0.035,-0.045
4999,-0.025,-0.015
5000,-0.025,-0.040
5001,-0.035,-0.055
5002,-0.045,-0.070
5003,-0.055,-0.040
5004,-0.035,-0.040
5005,-0.010,-0.025
5006,-0.015,-0.025
5007,-0.010,-0.035
5008,-0.040,-0.050
5009,-0.065,-0.040
5010,-0.035,-0.035
5011,-0.020,-0.030
5012,-0.005,-0.035
5013,-0.020,-0.040
5014,-0.015,-0.055
5015,-0.020,-0.055
5016,-0.020,-0.035
5017,-0.005,-0.030
5018,-0.015,-0.020
5019,-0.015,-0.050
5020,-0.020,-0.065
5021,-0.015,-0.060
5022,-0.025,-0.045
5023,0.000,-0.025
5024,-0.005,-0.040
5025,-0.010,-0.045
5026,-0.025,-0.060
5027,-0.025,-0.065
5028,-0.020,-0.045
5029,-0.010,-0.030
5030,0.005,-0.035
5031,0.000,-0.040
5032,-0.020,-0.055
5033,-0.015,-0.045
5034,-0.005,-0.045
5035,0.010,-0.025
5036,0.015,-0.040
5037,0.010,-0.065
5038,-0.015,-0.065
5039,-0.010,-0.050
5040,-0.005,-0.045
5041,0.005,-0.030
5042,0.015,-0.030
5043,0.005,-0.040
5044,0.005,-0.055
5045,-0.020,-0.050
5046,0.005,-0.035
5047,0.015,-0.025
5048,0.020,-0.040
5049,0.015,-0.045
5050,0.000,-0.060
5051,-0.005,-0.050
5052,0.000,-0.040
5053,0.015,-0.030
5054,0.015,-0.040
5055,0.010,-0.055
5056,-0.015,-0.060
5057,-0.020,-0.045
5058,-0.005,-0.040
5059,-0.005,-0.030
5060,0.000,-0.050
5061,-0.010,-0.055
5062,-0.020,-0.065
5063,-0.025,-0.060
5064,-0.035,-0.045
5065,-0.025,-0.035
5066,-0.035,-0.040
5067,-0.025,-0.065
5068,-0.045,-0.085
5069,-0.055,-0.065
5070,-0.050,-0.070
5071,-0.040,-0.060
5072,-0.045,-0.070
5073,-0.065,-0.085
5074,-0.070,-0.095
5075,-0.065,-0.085
5076,-0.055,-0.080
5077,-0.040,-0.075
5078,-0.040,-0.080
5079,-0.065,-0.090
5080,-0.070,-0.100
5081,-0.065,-0.105
5082,-0.065,-0.085
5083,-0.050,-0.065
5084,-0.055,-0.075
5085,-0.065,-0.095
5086,-0.065,-0.110
5087,-0.085,-0.100
5088,-0.070,-0.100
5089,-0.060,-0.080
5090,-0.055,-0.085
5091,-0.065,-0.100
5092,-0.075,-0.110
5093,-0.060,-0.115
5094,-0.080,-0.100
5095,-0.065,-0.105
5096,-0.050,-0.110
5097,-0.065,-0.120
5098,-0.080,-0.120
5099,-0.080,-0.110
5100,-0.080,-0.100
5101,-0.065,-0.095
5102,-0.055,-0.100
5103,-0.060,-0.115
5104,-0.060,-0.125
5105,-0.090,-0.110
5106,-0.075,-0.100
5107,-0.050,-0.080
5108,-0.045,-0.095
5109,-0.055,-0.110
5110,-0.050,-0.110
5111,-0.065,-0.120
5112,-0.060,-0.100
5113,-0.040,-0.095
5114,-0.040,-0.095
5115,-0.040,-0.120
5116,-0.060,-0.120
5117,-0.060,-0.115
5118,-0.055,-0.100
5119,-0.050,-0.105
5120,-0.040,-0.115
5121,-0.040,-0.110
5122,-0.055,-0.135
5123,-0.060,-0.125
5124,-0.045,-0.110
5125,-0.040,-0.095
5126,-0.030,-0.105
5127,-0.025,-0.120
5128,-0.050,-0.135
5129,-0.060,-0.130
5130,-0.045,-0.115
5131,-0.030,-0.105
5132,-0.015,-0.105
5133,-0.035,-0.135
5134,-0.035,-0.125
5135,-0.050,-0.125
5136,-0.040,-0.110
5137,-0.020,-0.110
5138,-0.005,-0.115
5139,-0.025,-0.130
5140,-0.030,-0.130
5141,-0.025,-0.130
5142,-0.025,-0.115
5143,-0.005,-0.100
5144,-0.005,-0.115
5145,-0.010,-0.130
5146,-0.025,-0.140
5147,-0.025,-0.140
5148,-0.010,-0.130
5149,0.000,-0.110
5150,-0.005,-0.115
5151,0.000,-0.130
5152,-0.020,-0.145
5153,-0.020,-0.130
5154,-0.010,-0.120
5155,-0.005,-0.105
5156,0.005,-0.115
5157,0.010,-0.120
5158,-0.010,-0.130
5159,-0.030,-0.130
5160,-0.010,-0.120
5161,0.010,-0.115
5162,0.015,-0.105
5163,-0.005,-0.125
5164,-0.010,-0.135
5165,-0.005,-0.150
5166,0.005,-0.120
5167,0.010,-0.105
5168,0.015,-0.115
5169,0.025,-0.130
5170,0.010,-0.140
5171,0.005,-0.135
5172,0.010,-0.110
5173,0.020,-0.095
5174,0.020,-0.095
5175,0.025,-0.090
5176,0.015,-0.105
5177,0.015,-0.085
5178,0.035,-0.060
5179,0.050,-0.055
5180,0.065,-0.055
5181,0.075,-0.070
5182,0.065,-0.075
5183,0.065,-0.070
5184,0.090,-0.055
5185,0.110,-0.030
5186,0.135,-0.035
5187,0.155,-0.050
5188,0.155,-0.080
5189,0.190,-0.095
5190,0.235,-0.105
5191,0.265,-0.105
5192,0.280,-0.145
5193,0.265,-0.160
5194,0.250,-0.175
5195,0.240,-0.150
5196,0.225,-0.130
5197,0.205,-0.110
5198,0.200,-0.110
5199,0.185,-0.120
5200,0.140,-0.140
5201,0.105,-0.145
5202,0.085,-0.135
5203,0.065,-0.120
5204,0.040,-0.135
5205,0.015,-0.150
5206,-0.005,-0.155
5207,-0.020,-0.150
5208,-0.025,-0.145
5209,-0.020,-0.145
5210,-0.020,-0.130
5211,-0.020,-0.130
5212,-0.030,-0.155
5213,-0.040,-0.155
5214,-0.030,-0.135
5215,-0.015,-0.125
5216,-0.010,-0.110
5217,-0.030,-0.115
5218,-0.015,-0.135
5219,-0.025,-0.115
5220,-0.020,-0.070
5221,0.000,-0.025
5222,0.010,0.010
5223,0.005,0.000
5224,-0.015,-0.035
5225,-0.010,-0.080
5226,-0.025,-0.160
5227,-0.020,-0.280
5228,-0.015,-0.485
5229,-0.030,-0.725
5230,0.015,-0.940
5231,0.130,-1.095
5232,0.325,-1.130
5233,0.495,-1.060
5234,0.655,-0.940
5235,0.715,-0.810
5236,0.685,-0.675
5237,0.540,-0.515
5238,0.330,-0.365
5239,0.140,-0.230
5240,0.020,-0.140
5241,-0.050,-0.100
5242,-0.050,-0.075
5243,-0.045,-0.055
5244,-0.015,-0.045
5245,-0.005,-0.015
5246,0.005,-0.015
5247,0.005,-0.030
5248,-0.010,-0.055
5249,-0.015,-0.055
5250,-0.005,-0.045
5251,0.000,-0.025
5252,0.005,-0.035
5253,-0.015,-0.045
5254,-0.005,-0.055
5255,-0.020,-0.065
5256,-0.010,-0.045
5257,0.005,-0.035
5258,0.010,-0.040
5259,0.010,-0.055
5260,-0.010,-0.065
5261,-0.015,-0.065
5262,-0.010,-0.045
5263,0.010,-0.035
5264,0.020,-0.040
5265,0.015,-0.060
5266,0.005,-0.070
5267,0.005,-0.070
5268,0.005,-0.060
5269,0.025,-0.040
5270,0.020,-0.045
5271,0.025,-0.045
5272,0.015,-0.060
5273,0.000,-0.050
5274,0.000,-0.035
5275,0.020,-0.030
5276,0.030,-0.045
5277,0.025,-0.045
5278,0.005,-0.065
5279,-0.005,-0.060
5280,0.005,-0.050
5281,0.030,-0.035
5282,0.035,-0.040
5283,0.025,-0.060
5284,0.015,-0.060
5285,0.015,-0.065
5286,0.025,-0.050
5287,0.015,-0.030
5288,0.040,-0.040
5289,0.030,-0.035
5290,0.015,-0.055
5291,0.010,-0.055
5292,0.005,-0.045
5293,0.010,-0.030
5294,0.040,-0.030
5295,0.035,-0.045
5296,0.030,-0.050
5297,0.025,-0.040
5298,0.025,-0.030
5299,0.025,-0.020
5300,0.035,-0.030
5301,0.045,-0.035
5302,0.025,-0.055
5303,0.015,-0.050
5304,0.035,-0.025
5305,0.040,-0.015
5306,0.045,-0.020
5307,0.025,-0.040
5308,0.015,-0.040
5309,0.015,-0.030
5310,0.020,-0.025
5311,0.040,-0.015
5312,0.025,-0.025
5313,0.045,-0.045
5314,0.030,-0.040
5315,0.025,-0.040
5316,0.020,-0.030
5317,0.030,-0.015
5318,0.035,-0.025
5319,0.025,-0.040
5320,0.015,-0.045
5321,-0.005,-0.040
5322,0.010,-0.020
5323,0.020,-0.015
5324,0.025,-0.030
5325,0.025,-0.040
5326,0.005,-0.065
5327,-0.010,-0.060
5328,-0.010,-0.040
5329,-0.010,-0.025
5330,0.000,-0.030
5331,-0.030,-0.050
5332,-0.035,-0.065
5333,-0.050,-0.065
5334,-0.035,-0.045
5335,-0.040,-0.040
5336,-0.025,-0.055
5337,-0.040,-0.065
5338,-0.065,-0.085
5339,-0.075,-0.080
5340,-0.070,-0.065
5341,-0.055,-0.060
5342,-0.065,-0.075
5343,-0.070,-0.085
5344,-0.085,-0.105
5345,-0.090,-0.105
5346,-0.090,-0.085
5347,-0.075,-0.070
5348,-0.085,-0.090
5349,-0.085,-0.090
5350,-0.100,-0.100
5351,-0.100,-0.110
5352,-0.105,-0.085
5353,-0.080,-0.080
5354,-0.100,-0.090
5355,-0.095,-0.100
5356,-0.095,-0.105
5357,-0.105,-0.100
5358,-0.115,-0.100
5359,-0.105,-0.080
5360,-0.100,-0.105
5361,-0.105,-0.100
5362,-0.120,-0.110
5363,-0.120,-0.110
5364,-0.110,-0.090
5365,-0.085,-0.090
5366,-0.085,-0.085
5367,-0.095,-0.100
5368,-0.100,-0.110
5369,-0.130,-0.115
5370,-0.110,-0.105
5371,-0.105,-0.095
5372,-0.100,-0.100
5373,-0.105,-0.105
5374,-0.120,-0.120
5375,-0.120,-0.115
5376,-0.100,-0.105
5377,-0.085,-0.100
5378,-0.085,-0.100
5379,-0.100,-0.115
5380,-0.115,-0.125
5381,-0.110,-0.130
5382,-0.115,-0.110
5383,-0.095,-0.090
5384,-0.090,-0.105
5385,-0.105,-0.120
5386,-0.115,-0.130
5387,-0.120,-0.135
5388,-0.115,-0.125
5389,-0.095,-0.100
5390,-0.090,-0.095
5391,-0.110,-0.115
5392,-0.135,-0.130
5393,-0.115,-0.130
5394,-0.105,-0.120
5395,-0.100,-0.115
5396,-0.080,-0.130
5397,-0.090,-0.135
5398,-0.095,-0.135
5399,-0.110,-0.135
5400,-0.105,-0.135
5401,-0.095,-0.120
5402,-0.080,-0.115
5403,-0.085,-0.135
5404,-0.095,-0.145
5405,-0.095,-0.145
5406,-0.090,-0.120
5407,-0.085,-0.115
5408,-0.080,-0.120
5409,-0.065,-0.130
5410,-0.075,-0.135
5411,-0.100,-0.140
5412,-0.070,-0.125
5413,-0.060,-0.110
5414,-0.055,-0.115
5415,-0.065,-0.135
5416,-0.085,-0.140
5417,-0.080,-0.130
5418,-0.090,-0.115
5419,-0.080,-0.105
5420,-0.070,-0.115
5421,-0.080,-0.140
5422,-0.095,-0.140
5423,-0.090,-0.145
5424,-0.090,-0.125
5425,-0.070,-0.125
5426,-0.060,-0.125
5427,-0.070,-0.135
5428,-0.080,-0.140
5429,-0.085,-0.140
5430,-0.070,-0.130
5431,-0.060,-0.115
5432,-0.050,-0.125
5433,-0.050,-0.135
5434,-0.075,-0.145
5435,-0.090,-0.125
5436,-0.075,-0.125
5437,-0.055,-0.110
5438,-0.055,-0.130
5439,-0.070,-0.135
5440,-0.080,-0.130
5441,-0.090,-0.130
5442,-0.080,-0.125
5443,-0.075,-0.120
5444,-0.055,-0.100
5445,-0.070,-0.120
5446,-0.065,-0.130
5447,-0.080,-0.120
5448,-0.070,-0.115
5449,-0.050,-0.105
5450,-0.055,-0.130
5451,-0.065,-0.140
5452,-0.085,-0.140
5453,-0.075,-0.125
5454,-0.075,-0.115
5455,-0.050,-0.110
5456,-0.060,-0.120
5457,-0.070,-0.135
5458,-0.095,-0.150
5459,-0.090,-0.145
5460,-0.075,-0.140
5461,-0.060,-0.110
5462,-0.045,-0.130
5463,-0.065,-0.140
5464,-0.075,-0.135
5465,-0.085,-0.140
5466,-0.085,-0.120
5467,-0.080,-0.105
5468,-0.070,-0.110
5469,-0.080,-0.135
5470,-0.080,-0.150
5471,-0.085,-0.140
5472,-0.085,-0.125
5473,-0.060,-0.125
5474,-0.050,-0.120
5475,-0.055,-0.135
5476,-0.065,-0.150
5477,-0.080,-0.140
5478,-0.080,-0.125
5479,-0.055,-0.120
5480,-0.045,-0.120
5481,-0.070,-0.125
5482,-0.070,-0.130
5483,-0.095,-0.125
5484,-0.080,-0.120
5485,-0.070,-0.110
5486,-0.065,-0.105
5487,-0.065,-0.125
5488,-0.090,-0.135
5489,-0.080,-0.125
5490,-0.065,-0.110
5491,-0.055,-0.100
5492,-0.055,-0.130
5493,-0.055,-0.140
5494,-0.075,-0.140
5495,-0.080,-0.140
5496,-0.080,-0.115
5497,-0.070,-0.110
5498,-0.030,-0.110
5499,-0.045,-0.115
5500,-0.060,-0.125
5501,-0.070,-0.130
5502,-0.065,-0.110
5503,-0.045,-0.105
5504,-0.045,-0.110
5505,-0.050,-0.115
5506,-0.060,-0.125
5507,-0.065,-0.115
5508,-0.065,-0.115
5509,-0.060,-0.120
5510,-0.040,-0.120
5511,-0.045,-0.135
5512,-0.055,-0.150
5513,-0.060,-0.135
5514,-0.040,-0.115
5515,-0.030,-0.125
5516,-0.025,-0.145
5517,-0.015,-0.175
5518,-0.010,-0.205
5519,-0.025,-0.195
5520,-0.005,-0.180
5521,0.015,-0.170
5522,0.025,-0.180
5523,0.030,-0.190
5524,0.030,-0.210
5525,0.020,-0.210
5526,0.025,-0.185
5527,0.015,-0.160
5528,0.010,-0.170
5529,0.005,-0.175
5530,-0.030,-0.170
5531,-0.055,-0.145
5532,-0.040,-0.115
5533,-0.020,-0.100
5534,-0.025,-0.100
5535,-0.020,-0.115
5536,-0.030,-0.130
5537,-0.055,-0.130
5538,-0.075,-0.115
5539,-0.070,-0.095
5540,-0.085,-0.090
5541,-0.105,-0.115
5542,-0.120,-0.125
5543,-0.130,-0.130
5544,-0.115,-0.120
5545,-0.095,-0.105
5546,-0.090,-0.110
5547,-0.095,-0.135
5548,-0.115,-0.150
5549,-0.125,-0.135
5550,-0.105,-0.110
5551,-0.080,-0.105
5552,-0.080,-0.110
5553,-0.085,-0.125
5554,-0.095,-0.130
5555,-0.110,-0.105
5556,-0.085,-0.080
5557,-0.080,-0.040
5558,-0.060,-0.005
5559,-0.065,-0.015
5560,-0.085,-0.060
5561,-0.090,-0.135
5562,-0.095,-0.245
5563,-0.105,-0.395
5564,-0.140,-0.575
5565,-0.125,-0.740
5566,-0.075,-0.855
5567,0.000,-0.925
5568,0.140,-0.975
5569,0.255,-0.960
5570,0.380,-0.915
5571,0.455,-0.820
5572,0.475,-0.710
5573,0.365,-0.550
5574,0.170,-0.405
5575,-0.015,-0.265
5576,-0.140,-0.165
5577,-0.185,-0.090
5578,-0.195,-0.055
5579,-0.180,-0.045
5580,-0.110,-0.030
5581,-0.065,-0.025
5582,-0.055,-0.010
5583,-0.070,-0.020
5584,-0.080,-0.030
5585,-0.080,-0.035
5586,-0.075,-0.030
5587,-0.060,-0.015
5588,-0.050,-0.030
5589,-0.065,-0.025
5590,-0.085,-0.045
5591,-0.080,-0.035
5592,-0.065,-0.025
5593,-0.045,-0.005
5594,-0.045,-0.005
5595,-0.055,-0.015
5596,-0.060,-0.040
5597,-0.075,-0.025
5598,-0.050,-0.030
5599,-0.045,-0.005
5600,-0.035,-0.015
5601,-0.035,-0.020
5602,-0.060,-0.035
5603,-0.065,-0.040
5604,-0.060,-0.030
5605,-0.045,-0.025
5606,-0.040,-0.030
5607,-0.035,-0.045
5608,-0.050,-0.050
5609,-0.045,-0.040
5610,-0.035,-0.020
5611,-0.035,-0.015
5612,-0.025,-0.030
5613,-0.040,-0.025
5614,-0.060,-0.050
5615,-0.065,-0.050
5616,-0.050,-0.035
5617,-0.030,-0.015
5618,-0.035,-0.025
5619,-0.040,-0.040
5620,-0.055,-0.030
5621,-0.050,-0.030
5622,-0.060,-0.040
5623,-0.030,-0.030
5624,-0.030,-0.025
5625,-0.030,-0.035
5626,-0.050,-0.040
5627,-0.045,-0.050
5628,-0.040,-0.040
5629,-0.030,-0.020
5630,-0.030,-0.035
5631,-0.030,-0.040
5632,-0.055,-0.060
5633,-0.055,-0.055
5634,-0.065,-0.040
5635,-0.050,-0.025
5636,-0.035,-0.035
5637,-0.050,-0.050
5638,-0.045,-0.055
5639,-0.050,-0.050
5640,-0.035,-0.030
5641,-0.025,-0.015
5642,-0.030,-0.035
5643,-0.055,-0.040
5644,-0.065,-0.070
5645,-0.070,-0.065
5646,-0.070,-0.050
5647,-0.060,-0.045
5648,-0.045,-0.040
5649,-0.060,-0.055
5650,-0.070,-0.080
5651,-0.065,-0.065
5652,-0.065,-0.050
5653,-0.045,-0.050
5654,-0.055,-0.045
5655,-0.075,-0.050
5656,-0.085,-0.075
5657,-0.095,-0.070
5658,-0.100,-0.060
5659,-0.080,-0.045
5660,-0.070,-0.045
5661,-0.090,-0.055
5662,-0.095,-0.080
5663,-0.115,-0.065
5664,-0.105,-0.060
5665,-0.105,-0.045
5666,-0.105,-0.045
5667,-0.130,-0.065
5668,-0.140,-0.080
5669,-0.155,-0.075
5670,-0.140,-0.065
5671,-0.125,-0.060
5672,-0.125,-0.060
5673,-0.125,-0.075
5674,-0.135,-0.085
5675,-0.140,-0.080
5676,-0.145,-0.050
5677,-0.130,-0.045
5678,-0.130,-0.060
5679,-0.165,-0.075
5680,-0.170,-0.085
5681,-0.185,-0.070
5682,-0.190,-0.070
5683,-0.160,-0.055
5684,-0.145,-0.055
5685,-0.145,-0.065
5686,-0.155,-0.075
5687,-0.150,-0.075
5688,-0.170,-0.065
5689,-0.160,-0.055
5690,-0.155,-0.060
5691,-0.160,-0.085
5692,-0.175,-0.095
5693,-0.190,-0.080
5694,-0.180,-0.075
5695,-0.185,-0.070
5696,-0.175,-0.075
5697,-0.170,-0.080
5698,-0.180,-0.100
5699,-0.175,-0.095
5700,-0.190,-0.075
5701,-0.160,-0.070
5702,-0.165,-0.075
5703,-0.165,-0.085
5704,-0.175,-0.095
5705,-0.180,-0.095
5706,-0.195,-0.085
5707,-0.170,-0.085
5708,-0.180,-0.085
5709,-0.195,-0.085
5710,-0.195,-0.110
5711,-0.210,-0.095
5712,-0.195,-0.090
5713,-0.190,-0.085
5714,-0.185,-0.095
5715,-0.175,-0.105
5716,-0.195,-0.115
5717,-0.205,-0.110
5718,-0.195,-0.095
5719,-0.180,-0.085
5720,-0.165,-0.095
5721,-0.180,-0.105
5722,-0.205,-0.125
5723,-0.205,-0.115
5724,-0.190,-0.105
5725,-0.185,-0.080
5726,-0.170,-0.085
5727,-0.175,-0.090
5728,-0.195,-0.100
5729,-0.200,-0.105
5730,-0.200,-0.095
5731,-0.190,-0.080
5732,-0.180,-0.095
5733,-0.200,-0.100
5734,-0.205,-0.105
5735,-0.215,-0.100
5736,-0.200,-0.085
5737,-0.190,-0.080
5738,-0.190,-0.095
5739,-0.200,-0.115
5740,-0.210,-0.130
5741,-0.185,-0.115
5742,-0.190,-0.100
5743,-0.185,-0.075
5744,-0.180,-0.085
5745,-0.190,-0.100
5746,-0.200,-0.115
5747,-0.205,-0.110
5748,-0.190,-0.095
5749,-0.180,-0.080
5750,-0.190,-0.080
5751,-0.175,-0.095
5752,-0.205,-0.110
5753,-0.210,-0.110
5754,-0.210,-0.100
5755,-0.185,-0.085
5756,-0.175,-0.090
5757,-0.185,-0.100
5758,-0.185,-0.115
5759,-0.190,-0.110
5760,-0.185,-0.095
5761,-0.175,-0.080
5762,-0.175,-0.080
5763,-0.185,-0.110
5764,-0.185,-0.105
5765,-0.195,-0.095
5766,-0.185,-0.080
5767,-0.175,-0.075
5768,-0.185,-0.085
5769,-0.180,-0.105
5770,-0.200,-0.110
5771,-0.195,-0.100
5772,-0.190,-0.085
5773,-0.175,-0.075
5774,-0.175,-0.090
5775,-0.190,-0.100
5776,-0.195,-0.110
5777,-0.200,-0.115
5778,-0.205,-0.080
5779,-0.185,-0.070
5780,-0.190,-0.070
5781,-0.195,-0.085
5782,-0.200,-0.105
5783,-0.200,-0.090
5784,-0.200,-0.075
5785,-0.175,-0.065
5786,-0.170,-0.075
5787,-0.175,-0.095
5788,-0.195,-0.105
5789,-0.200,-0.100
5790,-0.195,-0.090
5791,-0.195,-0.080
5792,-0.185,-0.090
5793,-0.200,-0.105
5794,-0.215,-0.100
5795,-0.215,-0.090
5796,-0.200,-0.095
5797,-0.195,-0.080
5798,-0.190,-0.075
5799,-0.200,-0.090
5800,-0.210,-0.100
5801,-0.210,-0.085
5802,-0.215,-0.085
5803,-0.195,-0.065
5804,-0.180,-0.085
5805,-0.195,-0.085
5806,-0.205,-0.095
5807,-0.215,-0.095
5808,-0.205,-0.080
5809,-0.180,-0.065
5810,-0.190,-0.075
5811,-0.195,-0.085
5812,-0.225,-0.095
5813,-0.220,-0.090
5814,-0.225,-0.095
5815,-0.220,-0.065
5816,-0.205,-0.065
5817,-0.205,-0.090
5818,-0.210,-0.090
5819,-0.215,-0.090
5820,-0.210,-0.070
5821,-0.190,-0.050
5822,-0.195,-0.070
5823,-0.195,-0.070
5824,-0.200,-0.075
5825,-0.205,-0.075
5826,-0.205,-0.065
5827,-0.190,-0.050
5828,-0.180,-0.050
5829,-0.180,-0.070
5830,-0.200,-0.070
5831,-0.215,-0.075
5832,-0.195,-0.060
5833,-0.180,-0.055
5834,-0.175,-0.060
5835,-0.180,-0.075
5836,-0.185,-0.090
5837,-0.165,-0.095
5838,-0.150,-0.095
5839,-0.155,-0.110
5840,-0.120,-0.120
5841,-0.135,-0.130
5842,-0.130,-0.150
5843,-0.120,-0.145
5844,-0.100,-0.130
5845,-0.085,-0.120
5846,-0.065,-0.130
5847,-0.065,-0.150
5848,-0.095,-0.150
5849,-0.090,-0.130
5850,-0.110,-0.105
5851,-0.095,-0.090
5852,-0.100,-0.100
5853,-0.110,-0.100
5854,-0.140,-0.070
5855,-0.145,-0.060
5856,-0.130,-0.045
5857,-0.115,-0.040
5858,-0.120,-0.050
5859,-0.130,-0.065
5860,-0.160,-0.075
5861,-0.180,-0.090
5862,-0.195,-0.070
5863,-0.175,-0.060
5864,-0.170,-0.060
5865,-0.185,-0.080
5866,-0.210,-0.095
5867,-0.210,-0.085
5868,-0.200,-0.080
5869,-0.170,-0.065
5870,-0.165,-0.070
5871,-0.175,-0.085
5872,-0.190,-0.100
5873,-0.185,-0.075
5874,-0.170,-0.050
5875,-0.160,-0.040
5876,-0.140,-0.040
5877,-0.165,-0.030
5878,-0.160,-0.005
5879,-0.170,0.030
5880,-0.150,0.050
5881,-0.125,0.030
5882,-0.120,-0.025
5883,-0.130,-0.120
5884,-0.145,-0.275
5885,-0.170,-0.450
5886,-0.150,-0.630
5887,-0.095,-0.780
5888,0.030,-0.895
5889,0.160,-0.945
5890,0.290,-0.925
5891,0.405,-0.835
5892,0.490,-0.690
5893,0.465,-0.540
5894,0.325,-0.385
5895,0.085,-0.285
5896,-0.080,-0.175
5897,-0.160,-0.070
5898,-0.200,0.005
5899,-0.175,0.030
5900,-0.150,0.040
5901,-0.155,0.030
5902,-0.130,0.015
5903,-0.135,0.015
5904,-0.125,0.025
5905,-0.105,0.045
5906,-0.105,0.035
5907,-0.135,0.020
5908,-0.145,0.005
5909,-0.140,0.020
5910,-0.110,0.030
5911,-0.110,0.040
5912,-0.110,0.025
5913,-0.115,0.020
5914,-0.130,0.015
5915,-0.130,0.020
5916,-0.115,0.025
5917,-0.105,0.040
5918,-0.100,0.025
5919,-0.105,0.020
5920,-0.125,0.015
5921,-0.120,0.020
5922,-0.105,0.025
5923,-0.095,0.045
5924,-0.100,0.040
5925,-0.085,0.015
5926,-0.110,0.005
5927,-0.110,0.010
5928,-0.090,0.035
5929,-0.085,0.045
5930,-0.080,0.035
5931,-0.080,0.030
5932,-0.095,0.015
5933,-0.095,0.020
5934,-0.105,0.025
5935,-0.065,0.030
5936,-0.055,0.025
5937,-0.065,0.020
5938,-0.080,0.000
5939,-0.080,0.000
5940,-0.065,0.020
5941,-0.065,0.035
5942,-0.055,0.030
5943,-0.060,0.010
5944,-0.090,0.005
5945,-0.085,0.010
5946,-0.080,0.015
5947,-0.065,0.025
5948,-0.060,0.030
5949,-0.075,0.030
5950,-0.080,0.015
5951,-0.090,0.010
5952,-0.080,0.020
5953,-0.080,0.030
5954,-0.060,0.020
5955,-0.075,0.015
5956,-0.095,0.005
5957,-0.090,0.005
5958,-0.085,0.025
5959,-0.065,0.035
5960,-0.075,0.040
5961,-0.065,0.020
5962,-0.090,0.005
5963,-0.085,0.010
5964,-0.065,0.010
5965,-0.060,0.035
5966,-0.055,0.030
5967,-0.070,0.015
5968,-0.075,-0.005
5969,-0.095,0.010
5970,-0.070,0.010
5971,-0.075,0.025
5972,-0.065,0.015
5973,-0.075,0.015
5974,-0.095,0.005
5975,-0.090,0.005
5976,-0.095,0.005
5977,-0.075,0.025
5978,-0.090,0.015
5979,-0.095,-0.005
5980,-0.115,-0.020
5981,-0.125,-0.020
5982,-0.120,0.000
5983,-0.120,0.005
5984,-0.105,-0.005
5985,-0.120,-0.020
5986,-0.145,-0.040
5987,-0.170,-0.045
5988,-0.160,-0.015
5989,-0.145,-0.010
5990,-0.150,-0.015
5991,-0.155,-0.025
5992,-0.165,-0.030
5993,-0.175,-0.020
5994,-0.160,-0.005
5995,-0.165,0.000
5996,-0.165,-0.010
5997,-0.155,-0.030
5998,-0.165,-0.035
5999,-0.170,-0.035
6000,-0.160,-0.015
6001,-0.150,-0.005
6002,-0.140,-0.015
6003,-0.150,-0.025
6004,-0.150,-0.045
6005,-0.160,-0.040
6006,-0.170,-0.020
6007,-0.155,-0.025
6008,-0.155,-0.025
6009,-0.145,-0.025
6010,-0.155,-0.040
6011,-0.160,-0.045
6012,-0.145,-0.025
6013,-0.140,-0.020
6014,-0.140,-0.025
6015,-0.155,-0.035
6016,-0.145,-0.045
6017,-0.165,-0.045
6018,-0.155,-0.025
6019,-0.140,-0.025
6020,-0.130,-0.025
6021,-0.140,-0.030
6022,-0.155,-0.055
6023,-0.170,-0.050
6024,-0.155,-0.040
6025,-0.145,-0.015
6026,-0.135,-0.035
6027,-0.135,-0.045
6028,-0.145,-0.060
6029,-0.150,-0.055
6030,-0.155,-0.035
6031,-0.135,-0.025
6032,-0.145,-0.030
6033,-0.145,-0.035
6034,-0.150,-0.060
6035,-0.170,-0.055
6036,-0.150,-0.035
6037,-0.125,-0.030
6038,-0.140,-0.040
6039,-0.150,-0.060
6040,-0.160,-0.065
6041,-0.150,-0.045
6042,-0.135,-0.030
6043,-0.155,-0.035
6044,-0.140,-0.035
6045,-0.135,-0.055
6046,-0.150,-0.065
6047,-0.145,-0.070
6048,-0.135,-0.050
6049,-0.125,-0.035
6050,-0.120,-0.045
6051,-0.125,-0.055
6052,-0.130,-0.055
6053,-0.125,-0.050
6054,-0.125,-0.030
6055,-0.115,-0.030
6056,-0.110,-0.040
6057,-0.115,-0.050
6058,-0.135,-0.060
6059,-0.120,-0.060
6060,-0.115,-0.030
6061,-0.120,-0.030
6062,-0.120,-0.040
6063,-0.120,-0.055
6064,-0.135,-0.060
6065,-0.125,-0.040
6066,-0.125,-0.035
6067,-0.115,-0.015
6068,-0.100,-0.040
6069,-0.100,-0.045
6070,-0.120,-0.045
6071,-0.115,-0.045
6072,-0.125,-0.030
6073,-0.095,-0.025
6074,-0.100,-0.035
6075,-0.105,-0.040
6076,-0.120,-0.050
6077,-0.130,-0.050
6078,-0.135,-0.035
6079,-0.115,-0.020
6080,-0.105,-0.040
6081,-0.115,-0.050
6082,-0.120,-0.055
6083,-0.110,-0.050
6084,-0.115,-0.035
6085,-0.100,-0.030
6086,-0.095,-0.020
6087,-0.090,-0.040
6088,-0.100,-0.050
6089,-0.110,-0.045
6090,-0.110,-0.035
6091,-0.090,-0.020
6092,-0.085,-0.030
6093,-0.085,-0.035
6094,-0.100,-0.045
6095,-0.100,-0.045
6096,-0.110,-0.035
6097,-0.105,-0.020
6098,-0.090,-0.035
6099,-0.090,-0.035
6100,-0.105,-0.055
6101,-0.110,-0.045
6102,-0.090,-0.040
6103,-0.085,-0.015
6104,-0.085,-0.015
6105,-0.095,-0.035
6106,-0.100,-0.045
6107,-0.110,-0.055
6108,-0.105,-0.035
6109,-0.080,-0.040
6110,-0.080,-0.040
6111,-0.095,-0.040
6112,-0.100,-0.045
6113,-0.110,-0.035
6114,-0.105,-0.025
6115,-0.085,-0.015
6116,-0.080,-0.030
6117,-0.080,-0.040
6118,-0.095,-0.060
6119,-0.110,-0.045
6120,-0.100,-0.035
6121,-0.090,-0.020
6122,-0.085,-0.020
6123,-0.075,-0.030
6124,-0.100,-0.045
6125,-0.105,-0.035
6126,-0.095,-0.025
6127,-0.090,-0.005
6128,-0.075,-0.020
6129,-0.085,-0.015
6130,-0.090,-0.020
6131,-0.090,-0.025
6132,-0.075,-0.035
6133,-0.070,-0.030
6134,-0.055,-0.040
6135,-0.060,-0.050
6136,-0.075,-0.075
6137,-0.070,-0.065
6138,-0.065,-0.050
6139,-0.045,-0.045
6140,-0.040,-0.065
6141,-0.040,-0.080
6142,-0.045,-0.105
6143,-0.040,-0.110
6144,-0.020,-0.100
6145,-0.010,-0.085
6146,0.005,-0.110
6147,0.000,-0.125
6148,-0.005,-0.135
6149,-0.005,-0.115
6150,0.010,-0.115
6151,0.010,-0.075
6152,-0.005,-0.075
6153,-0.035,-0.090
6154,-0.050,-0.085
6155,-0.055,-0.055
6156,-0.045,-0.030
6157,-0.045,-0.005
6158,-0.025,-0.015
6159,-0.040,-0.030
6160,-0.070,-0.050
6161,-0.095,-0.045
6162,-0.085,-0.040
6163,-0.080,-0.025
6164,-0.100,-0.030
6165,-0.125,-0.035
6166,-0.125,-0.050
6167,-0.125,-0.050
6168,-0.125,-0.040
6169,-0.105,-0.020
6170,-0.100,-0.035
6171,-0.110,-0.050
6172,-0.115,-0.055
6173,-0.125,-0.040
6174,-0.085,-0.035
6175,-0.090,-0.025
6176,-0.070,-0.030
6177,-0.075,-0.035
6178,-0.090,-0.025
6179,-0.080,0.015
6180,-0.070,0.080
6181,-0.055,0.105
6182,-0.045,0.090
6183,-0.035,0.010
6184,-0.045,-0.125
6185,-0.065,-0.300
6186,-0.030,-0.495
6187,0.015,-0.705
6188,0.125,-0.900
6189,0.250,-1.020
6190,0.370,-1.065
6191,0.490,-1.035
6192,0.595,-0.945
6193,0.665,-0.820
6194,0.685,-0.685
6195,0.590,-0.540
6196,0.395,-0.415
6197,0.185,-0.255
6198,0.055,-0.125
6199,-0.015,-0.020
6200,-0.035,0.020
6201,-0.060,0.045
6202,-0.075,0.035
6203,-0.080,0.040
6204,-0.080,0.055
6205,-0.075,0.070
6206,-0.070,0.070
6207,-0.080,0.060
6208,-0.100,0.040
6209,-0.110,0.035
6210,-0.100,0.045
6211,-0.090,0.060
6212,-0.080,0.050
6213,-0.085,0.055
6214,-0.095,0.035
6215,-0.100,0.040
6216,-0.100,0.055
6217,-0.100,0.070
6218,-0.090,0.065
6219,-0.100,0.040
6220,-0.090,0.030
6221,-0.105,0.040
6222,-0.095,0.065
6223,-0.085,0.070
6224,-0.075,0.065
6225,-0.090,0.050
6226,-0.100,0.035
6227,-0.105,0.030
6228,-0.100,0.045
6229,-0.090,0.070
6230,-0.080,0.045
6231,-0.095,0.035
6232,-0.100,0.040
6233,-0.110,0.035
6234,-0.100,0.055
6235,-0.095,0.070
6236,-0.085,0.060
6237,-0.090,0.040
6238,-0.095,0.035
6239,-0.100,0.035
6240,-0.095,0.070
6241,-0.080,0.065
6242,-0.080,0.055
6243,-0.085,0.050
6244,-0.100,0.025
6245,-0.120,0.035
6246,-0.090,0.040
6247,-0.080,0.065
6248,-0.080,0.060
6249,-0.090,0.040
6250,-0.105,0.040
6251,-0.100,0.035
6252,-0.105,0.050
6253,-0.075,0.070
6254,-0.075,0.060
6255,-0.090,0.055
6256,-0.105,0.035
6257,-0.105,0.040
6258,-0.090,0.055
6259,-0.075,0.070
6260,-0.080,0.060
6261,-0.085,0.050
6262,-0.095,0.045
6263,-0.100,0.045
6264,-0.085,0.070
6265,-0.075,0.080
6266,-0.085,0.075
6267,-0.085,0.055
6268,-0.105,0.050
6269,-0.110,0.055
6270,-0.095,0.060
6271,-0.080,0.075
6272,-0.070,0.070
6273,-0.080,0.055
6274,-0.095,0.045
6275,-0.095,0.055
6276,-0.100,0.060
6277,-0.085,0.065
6278,-0.085,0.055
6279,-0.095,0.055
6280,-0.115,0.030
6281,-0.125,0.040
6282,-0.130,0.050
6283,-0.105,0.050
6284,-0.100,0.040
6285,-0.125,0.025
6286,-0.140,0.010
6287,-0.150,0.015
6288,-0.130,0.035
6289,-0.125,0.045
6290,-0.120,0.020
6291,-0.130,0.000
6292,-0.150,-0.005
6293,-0.155,0.010
6294,-0.160,0.020
6295,-0.155,0.035
6296,-0.165,0.010
6297,-0.150,0.000
6298,-0.180,-0.005
6299,-0.180,-0.020
6300,-0.160,-0.010
6301,-0.155,0.005
6302,-0.145,0.000
6303,-0.160,-0.015
6304,-0.180,-0.025
6305,-0.185,-0.020
6306,-0.170,-0.005
6307,-0.175,0.005
6308,-0.160,-0.005
6309,-0.165,-0.025
6310,-0.190,-0.025
6311,-0.190,-0.020
6312,-0.170,-0.005
6313,-0.175,0.005
6314,-0.160,-0.010
6315,-0.180,-0.030
6316,-0.175,-0.035
6317,-0.175,-0.040
6318,-0.180,-0.015
6319,-0.165,-0.005
6320,-0.165,-0.015
6321,-0.170,-0.020
6322,-0.190,-0.030
6323,-0.195,-0.025
6324,-0.180,-0.015
6325,-0.165,-0.005
6326,-0.165,-0.015
6327,-0.160,-0.030
6328,-0.180,-0.030
6329,-0.185,-0.030
6330,-0.170,-0.020
6331,-0.170,-0.010
6332,-0.150,-0.035
6333,-0.175,-0.045
6334,-0.190,-0.045
6335,-0.190,-0.055
6336,-0.185,-0.020
6337,-0.180,-0.015
6338,-0.175,-0.030
6339,-0.185,-0.045
6340,-0.190,-0.060
6341,-0.205,-0.060
6342,-0.195,-0.035
6343,-0.200,-0.025
6344,-0.175,-0.040
6345,-0.180,-0.045
6346,-0.185,-0.055
6347,-0.200,-0.055
6348,-0.180,-0.040
6349,-0.175,-0.025
6350,-0.185,-0.035
6351,-0.190,-0.050
6352,-0.210,-0.055
6353,-0.200,-0.045
6354,-0.185,-0.035
6355,-0.180,-0.020
6356,-0.175,-0.035
6357,-0.195,-0.050
6358,-0.205,-0.060
6359,-0.205,-0.055
6360,-0.185,-0.035
6361,-0.175,-0.025
6362,-0.170,-0.030
6363,-0.170,-0.055
6364,-0.195,-0.060
6365,-0.200,-0.060
6366,-0.200,-0.055
6367,-0.190,-0.035
6368,-0.175,-0.040
6369,-0.170,-0.055
6370,-0.180,-0.065
6371,-0.200,-0.070
6372,-0.195,-0.055
6373,-0.205,-0.030
6374,-0.205,-0.040
6375,-0.190,-0.060
6376,-0.205,-0.070
6377,-0.215,-0.055
6378,-0.200,-0.045
6379,-0.185,-0.040
6380,-0.175,-0.040
6381,-0.205,-0.060
6382,-0.195,-0.065
6383,-0.195,-0.065
6384,-0.195,-0.045
6385,-0.185,-0.035
6386,-0.175,-0.035
6387,-0.170,-0.050
6388,-0.195,-0.060
6389,-0.200,-0.050
6390,-0.190,-0.040
6391,-0.185,-0.035
6392,-0.170,-0.045
6393,-0.195,-0.050
6394,-0.200,-0.065
6395,-0.200,-0.060
6396,-0.200,-0.045
6397,-0.190,-0.030
6398,-0.190,-0.040
6399,-0.190,-0.055
6400,-0.205,-0.065
6401,-0.215,-0.050
6402,-0.200,-0.045
6403,-0.195,-0.035
6404,-0.195,-0.035
6405,-0.200,-0.040
6406,-0.205,-0.070
6407,-0.210,-0.060
6408,-0.210,-0.045
6409,-0.185,-0.030
6410,-0.175,-0.040
6411,-0.185,-0.050
6412,-0.200,-0.055
6413,-0.205,-0.055
6414,-0.200,-0.040
6415,-0.185,-0.025
6416,-0.180,-0.030
6417,-0.190,-0.045
6418,-0.210,-0.045
6419,-0.205,-0.030
6420,-0.195,-0.015
6421,-0.170,-0.015
