'sample interval','MLII','V1'
'0.00277778 sec','mV','mV'
0,0.220,0.185
1,0.220,0.185
2,0.220,0.185
3,0.220,0.185
4,0.220,0.185
5,0.220,0.185
6,0.220,0.185
7,0.220,0.185
8,0.220,0.185
9,0.190,0.165
10,0.170,0.185
11,0.140,0.195
12,0.145,0.225
13,0.125,0.215
14,0.110,0.190
15,0.070,0.200
16,0.025,0.205
17,0.010,0.220
18,0.005,0.235
19,0.000,0.240
20,-0.030,0.215
21,-0.050,0.205
22,-0.080,0.225
23,-0.080,0.240
24,-0.080,0.255
25,-0.085,0.245
26,-0.110,0.245
27,-0.145,0.230
28,-0.160,0.230
29,-0.140,0.250
30,-0.130,0.260
31,-0.130,0.250
32,-0.140,0.225
33,-0.155,0.220
34,-0.180,0.225
35,-0.175,0.235
36,-0.160,0.245
37,-0.155,0.245
38,-0.170,0.245
39,-0.165,0.225
40,-0.170,0.225
41,-0.160,0.250
42,-0.150,0.260
43,-0.165,0.270
44,-0.170,0.245
45,-0.185,0.230
46,-0.190,0.235
47,-0.165,0.250
48,-0.155,0.260
49,-0.155,0.260
50,-0.155,0.240
51,-0.155,0.245
52,-0.160,0.245
53,-0.145,0.275
54,-0.115,0.295
55,-0.110,0.280
56,-0.110,0.260
57,-0.130,0.250
58,-0.130,0.270
59,-0.125,0.275
60,-0.090,0.290
61,-0.070,0.265
62,-0.070,0.250
63,-0.070,0.250
64,-0.075,0.250
65,-0.070,0.255
66,-0.095,0.250
67,-0.120,0.225
68,-0.130,0.205
69,-0.130,0.220
70,-0.140,0.220
71,-0.130,0.225
72,-0.130,0.225
73,-0.150,0.225
74,-0.155,0.215
75,-0.160,0.205
76,-0.155,0.210
77,-0.130,0.245
78,-0.115,0.250
79,-0.155,0.250
80,-0.175,0.235
81,-0.200,0.220
82,-0.195,0.235
83,-0.175,0.235
84,-0.165,0.230
85,-0.190,0.235
86,-0.200,0.230
87,-0.205,0.210
88,-0.200,0.230
89,-0.180,0.235
90,-0.165,0.235
91,-0.165,0.250
92,-0.175,0.235
93,-0.190,0.225
94,-0.175,0.230
95,-0.175,0.260
96,-0.175,0.265
97,-0.180,0.260
98,-0.185,0.235
99,-0.185,0.220
100,-0.175,0.235
101,-0.180,0.240
102,-0.170,0.250
103,-0.165,0.240
104,-0.175,0.235
105,-0.175,0.235
106,-0.185,0.245
107,-0.180,0.245
108,-0.145,0.255
109,-0.170,0.235
110,-0.190,0.200
111,-0.215,0.205
112,-0.215,0.220
113,-0.200,0.255
114,-0.185,0.265
115,-0.190,0.280
116,-0.190,0.285
117,-0.150,0.270
118,-0.025,0.260
119,0.140,0.220
120,0.315,0.175
121,0.470,0.120
122,0.630,0.060
123,0.720,-0.010
124,0.800,-0.055
125,0.840,-0.120
126,0.800,-0.125
127,0.675,-0.155
128,0.515,-0.165
129,0.260,-0.155
130,-0.080,-0.115
131,-0.415,-0.055
132,-0.650,-0.015
133,-0.785,0.025
134,-0.755,0.065
135,-0.665,0.130
136,-0.555,0.190
137,-0.470,0.235
138,-0.375,0.260
139,-0.315,0.245
140,-0.265,0.235
141,-0.255,0.220
142,-0.225,0.220
143,-0.210,0.230
144,-0.175,0.250
145,-0.170,0.240
146,-0.170,0.220
147,-0.185,0.205
148,-0.185,0.240
149,-0.165,0.245
150,-0.130,0.270
151,-0.140,0.255
152,-0.135,0.215
153,-0.140,0.215
154,-0.155,0.215
155,-0.135,0.240
156,-0.115,0.240
157,-0.090,0.245
158,-0.075,0.240
159,-0.085,0.225
160,-0.085,0.245
161,-0.070,0.250
162,-0.060,0.260
163,-0.055,0.235
164,-0.060,0.220
165,-0.065,0.200
166,-0.060,0.210
167,-0.020,0.215
168,0.025,0.245
169,0.040,0.235
170,0.040,0.210
171,0.040,0.200
172,0.050,0.205
173,0.095,0.220
174,0.100,0.245
175,0.120,0.230
176,0.115,0.220
177,0.120,0.200
178,0.135,0.210
179,0.155,0.215
180,0.195,0.220
181,0.205,0.215
182,0.205,0.180
183,0.205,0.185
184,0.225,0.190
185,0.240,0.210
186,0.265,0.215
187,0.260,0.200
188,0.265,0.195
189,0.250,0.185
190,0.245,0.190
191,0.255,0.210
192,0.265,0.225
193,0.265,0.205
194,0.245,0.195
195,0.225,0.195
196,0.215,0.215
197,0.210,0.225
198,0.205,0.255
199,0.170,0.230
200,0.150,0.230
201,0.120,0.230
202,0.105,0.235
203,0.085,0.260
204,0.080,0.265
205,0.055,0.265
206,0.020,0.245
207,-0.010,0.255
208,-0.020,0.260
209,-0.025,0.280
210,-0.040,0.300
211,-0.055,0.290
212,-0.075,0.280
213,-0.110,0.260
214,-0.120,0.270
215,-0.125,0.305
216,-0.115,0.295
217,-0.120,0.305
218,-0.125,0.290
219,-0.150,0.285
220,-0.160,0.295
221,-0.155,0.320
222,-0.150,0.330
223,-0.165,0.310
224,-0.165,0.305
225,-0.195,0.290
226,-0.185,0.285
227,-0.180,0.300
228,-0.170,0.320
229,-0.190,0.310
230,-0.185,0.275
231,-0.200,0.280
232,-0.200,0.300
233,-0.190,0.310
234,-0.180,0.330
235,-0.180,0.325
236,-0.200,0.305
237,-0.190,0.315
238,-0.185,0.310
239,-0.165,0.345
240,-0.155,0.335
241,-0.145,0.335
242,-0.140,0.335
243,-0.165,0.325
244,-0.150,0.340
245,-0.150,0.355
246,-0.130,0.360
247,-0.125,0.370
248,-0.135,0.360
249,-0.125,0.350
250,-0.110,0.360
251,-0.090,0.370
252,-0.075,0.380
253,-0.080,0.355
254,-0.110,0.325
255,-0.115,0.310
256,-0.135,0.315
257,-0.140,0.325
258,-0.130,0.355
259,-0.130,0.335
260,-0.150,0.315
261,-0.180,0.310
262,-0.205,0.330
263,-0.200,0.345
264,-0.170,0.355
265,-0.160,0.365
266,-0.170,0.355
267,-0.195,0.355
268,-0.220,0.370
269,-0.230,0.390
270,-0.195,0.385
271,-0.200,0.400
272,-0.215,0.395
273,-0.230,0.370
274,-0.230,0.400
275,-0.205,0.410
276,-0.190,0.430
277,-0.210,0.435
278,-0.220,0.415
279,-0.210,0.425
280,-0.220,0.445
281,-0.210,0.450
282,-0.205,0.470
283,-0.205,0.450
284,-0.220,0.445
285,-0.220,0.450
286,-0.220,0.455
287,-0.200,0.470
288,-0.195,0.500
289,-0.195,0.490
290,-0.215,0.480
291,-0.235,0.490
292,-0.220,0.505
293,-0.200,0.510
294,-0.185,0.535
295,-0.195,0.525
296,-0.215,0.530
297,-0.210,0.515
298,-0.210,0.550
299,-0.190,0.560
300,-0.175,0.570
301,-0.190,0.570
302,-0.205,0.575
303,-0.225,0.590
304,-0.230,0.610
305,-0.220,0.655
306,-0.185,0.670
307,-0.105,0.665
308,0.015,0.625
309,0.160,0.585
310,0.315,0.550
311,0.485,0.535
312,0.645,0.510
313,0.765,0.445
314,0.815,0.380
315,0.800,0.320
316,0.675,0.310
317,0.545,0.320
318,0.365,0.355
319,0.060,0.380
320,-0.285,0.440
321,-0.575,0.465
322,-0.770,0.515
323,-0.800,0.585
324,-0.735,0.675
325,-0.645,0.745
326,-0.555,0.785
327,-0.480,0.790
328,-0.420,0.815
329,-0.345,0.825
330,-0.270,0.820
331,-0.245,0.825
332,-0.225,0.825
333,-0.230,0.810
334,-0.225,0.815
335,-0.205,0.845
336,-0.175,0.855
337,-0.175,0.860
338,-0.180,0.845
339,-0.190,0.830
340,-0.190,0.835
341,-0.170,0.850
342,-0.150,0.870
343,-0.140,0.865
344,-0.145,0.855
345,-0.145,0.845
346,-0.145,0.835
347,-0.130,0.845
348,-0.115,0.860
349,-0.105,0.855
350,-0.105,0.830
351,-0.100,0.830
352,-0.090,0.830
353,-0.070,0.855
354,-0.050,0.880
355,-0.030,0.850
356,-0.025,0.830
357,-0.040,0.815
358,-0.020,0.820
359,0.015,0.830
360,0.050,0.855
361,0.070,0.845
362,0.085,0.820
363,0.065,0.805
364,0.090,0.810
365,0.110,0.810
366,0.130,0.820
367,0.150,0.810
368,0.155,0.790
369,0.165,0.770
370,0.175,0.785
371,0.175,0.790
372,0.195,0.795
373,0.215,0.805
374,0.215,0.770
375,0.205,0.755
376,0.190,0.775
377,0.220,0.790
378,0.250,0.800
379,0.250,0.780
380,0.210,0.765
381,0.195,0.760
382,0.175,0.785
383,0.185,0.780
384,0.210,0.775
385,0.195,0.770
386,0.185,0.750
387,0.140,0.765
388,0.125,0.765
389,0.110,0.795
390,0.100,0.795
391,0.080,0.785
392,0.060,0.785
393,0.025,0.775
394,-0.020,0.775
395,-0.030,0.785
396,-0.045,0.795
397,-0.065,0.795
398,-0.090,0.795
399,-0.110,0.775
400,-0.110,0.770
401,-0.115,0.790
402,-0.125,0.805
403,-0.140,0.795
404,-0.160,0.785
405,-0.180,0.765
406,-0.185,0.775
407,-0.185,0.785
408,-0.175,0.800
409,-0.185,0.780
410,-0.210,0.760
411,-0.225,0.755
412,-0.210,0.775
413,-0.205,0.785
414,-0.200,0.800
415,-0.225,0.790
416,-0.220,0.750
417,-0.235,0.730
418,-0.235,0.740
419,-0.230,0.760
420,-0.210,0.770
421,-0.195,0.765
422,-0.200,0.740
423,-0.230,0.740
424,-0.225,0.740
425,-0.200,0.750
426,-0.185,0.765
427,-0.190,0.760
428,-0.195,0.750
429,-0.210,0.730
430,-0.185,0.745
431,-0.175,0.770
432,-0.160,0.780
433,-0.165,0.750
434,-0.195,0.745
435,-0.185,0.730
436,-0.170,0.750
437,-0.150,0.755
438,-0.120,0.755
439,-0.105,0.750
440,-0.105,0.740
441,-0.110,0.725
442,-0.120,0.730
443,-0.125,0.720
444,-0.145,0.700
445,-0.155,0.705
446,-0.180,0.675
447,-0.200,0.665
448,-0.205,0.680
449,-0.200,0.690
450,-0.200,0.695
451,-0.215,0.675
452,-0.225,0.660
453,-0.230,0.660
454,-0.230,0.675
455,-0.205,0.690
456,-0.195,0.715
457,-0.215,0.715
458,-0.240,0.690
459,-0.270,0.670
460,-0.280,0.665
461,-0.265,0.680
462,-0.240,0.685
463,-0.250,0.675
464,-0.250,0.665
465,-0.270,0.670
466,-0.275,0.665
467,-0.260,0.680
468,-0.230,0.695
469,-0.220,0.680
470,-0.240,0.660
471,-0.260,0.655
472,-0.260,0.665
473,-0.250,0.690
474,-0.240,0.685
475,-0.245,0.675
476,-0.250,0.655
477,-0.255,0.645
478,-0.250,0.650
479,-0.255,0.665
480,-0.235,0.665
481,-0.235,0.655
482,-0.250,0.640
483,-0.255,0.625
484,-0.255,0.625
485,-0.240,0.640
486,-0.220,0.650
487,-0.210,0.645
488,-0.220,0.620
489,-0.240,0.615
490,-0.240,0.635
491,-0.245,0.645
492,-0.260,0.635
493,-0.285,0.650
494,-0.285,0.655
495,-0.260,0.645
496,-0.180,0.655
497,-0.035,0.635
498,0.125,0.590
499,0.260,0.530
500,0.370,0.485
501,0.500,0.415
502,0.605,0.370
503,0.680,0.320
504,0.725,0.260
505,0.675,0.210
506,0.535,0.165
507,0.365,0.150
508,0.180,0.175
509,-0.070,0.230
510,-0.350,0.275
511,-0.610,0.315
512,-0.795,0.330
513,-0.860,0.380
514,-0.800,0.450
515,-0.685,0.540
516,-0.590,0.585
517,-0.520,0.615
518,-0.465,0.595
519,-0.430,0.600
520,-0.360,0.600
521,-0.310,0.590
522,-0.270,0.595
523,-0.255,0.575
524,-0.270,0.570
525,-0.240,0.570
526,-0.240,0.580
527,-0.225,0.590
528,-0.215,0.605
529,-0.210,0.575
530,-0.205,0.560
531,-0.225,0.540
532,-0.215,0.555
533,-0.200,0.570
534,-0.180,0.585
535,-0.170,0.575
536,-0.165,0.540
537,-0.180,0.540
538,-0.165,0.545
539,-0.150,0.565
540,-0.130,0.580
541,-0.135,0.560
542,-0.140,0.540
543,-0.130,0.530
544,-0.120,0.530
545,-0.095,0.545
546,-0.075,0.560
547,-0.060,0.530
548,-0.055,0.525
549,-0.070,0.515
550,-0.055,0.505
551,-0.045,0.520
552,-0.010,0.520
553,-0.010,0.500
554,0.000,0.500
555,0.015,0.500
556,0.030,0.505
557,0.055,0.505
558,0.095,0.485
559,0.115,0.450
560,0.125,0.440
561,0.120,0.440
562,0.125,0.435
563,0.140,0.455
564,0.170,0.460
565,0.180,0.430
566,0.185,0.430
567,0.185,0.420
568,0.180,0.420
569,0.185,0.435
570,0.200,0.440
571,0.195,0.425
572,0.200,0.430
573,0.190,0.415
574,0.190,0.430
575,0.205,0.435
576,0.215,0.440
577,0.205,0.435
578,0.180,0.420
579,0.160,0.420
580,0.140,0.430
581,0.130,0.445
582,0.135,0.460
583,0.125,0.440
584,0.105,0.435
585,0.075,0.430
586,0.030,0.440
587,0.025,0.460
588,0.005,0.465
589,-0.010,0.480
590,-0.025,0.440
591,-0.065,0.460
592,-0.085,0.465
593,-0.085,0.475
594,-0.080,0.475
595,-0.095,0.460
596,-0.120,0.460
597,-0.140,0.450
598,-0.160,0.445
599,-0.160,0.460
600,-0.150,0.465
601,-0.170,0.465
602,-0.185,0.445
603,-0.195,0.450
604,-0.195,0.460
605,-0.200,0.460
606,-0.200,0.480
607,-0.205,0.470
608,-0.210,0.455
609,-0.230,0.455
610,-0.230,0.450
611,-0.225,0.460
612,-0.205,0.485
613,-0.205,0.445
614,-0.215,0.435
615,-0.230,0.430
616,-0.230,0.445
617,-0.225,0.440
618,-0.220,0.445
619,-0.220,0.430
620,-0.230,0.405
621,-0.245,0.400
622,-0.245,0.395
623,-0.235,0.430
624,-0.215,0.445
625,-0.200,0.445
626,-0.200,0.445
627,-0.225,0.425
628,-0.210,0.430
629,-0.200,0.455
630,-0.200,0.475
631,-0.175,0.455
632,-0.180,0.450
633,-0.185,0.430
634,-0.180,0.430
635,-0.155,0.440
636,-0.145,0.440
637,-0.130,0.440
638,-0.135,0.435
639,-0.120,0.420
640,-0.130,0.420
641,-0.120,0.420
642,-0.125,0.430
643,-0.140,0.410
644,-0.165,0.400
645,-0.190,0.390
646,-0.215,0.385
647,-0.210,0.400
648,-0.205,0.395
649,-0.200,0.380
650,-0.220,0.355
651,-0.245,0.345
652,-0.245,0.345
653,-0.245,0.360
654,-0.240,0.380
655,-0.230,0.370
656,-0.230,0.370
657,-0.240,0.375
658,-0.255,0.375
659,-0.250,0.385
660,-0.245,0.385
661,-0.240,0.375
662,-0.255,0.360
663,-0.270,0.330
664,-0.270,0.350
665,-0.260,0.370
666,-0.265,0.365
667,-0.255,0.335
668,-0.245,0.320
669,-0.275,0.325
670,-0.285,0.340
671,-0.285,0.355
672,-0.275,0.355
673,-0.285,0.350
674,-0.290,0.350
675,-0.315,0.345
676,-0.325,0.355
677,-0.295,0.380
678,-0.265,0.380
679,-0.270,0.350
680,-0.285,0.335
681,-0.305,0.300
682,-0.300,0.315
683,-0.270,0.345
684,-0.250,0.345
685,-0.245,0.330
686,-0.265,0.310
687,-0.285,0.305
688,-0.285,0.310
689,-0.260,0.325
690,-0.235,0.325
691,-0.235,0.300
692,-0.265,0.300
693,-0.300,0.300
694,-0.300,0.315
695,-0.300,0.335
696,-0.285,0.370
697,-0.285,0.370
698,-0.235,0.385
699,-0.170,0.345
700,-0.040,0.305
701,0.115,0.230
702,0.255,0.165
703,0.400,0.075
704,0.495,0.005
705,0.550,-0.065
706,0.530,-0.110
707,0.430,-0.110
708,0.315,-0.100
709,0.120,-0.090
710,-0.160,-0.080
711,-0.450,-0.040
712,-0.695,0.025
713,-0.850,0.090
714,-0.905,0.140
715,-0.840,0.185
716,-0.750,0.220
717,-0.670,0.230
718,-0.590,0.245
719,-0.505,0.285
720,-0.410,0.280
721,-0.345,0.265
722,-0.320,0.250
723,-0.300,0.245
724,-0.305,0.260
725,-0.285,0.260
726,-0.260,0.260
727,-0.250,0.260
728,-0.260,0.260
729,-0.270,0.255
730,-0.260,0.275
731,-0.260,0.295
732,-0.240,0.315
733,-0.215,0.290
734,-0.230,0.255
735,-0.225,0.250
736,-0.215,0.250
737,-0.180,0.265
738,-0.145,0.265
739,-0.165,0.245
740,-0.190,0.225
741,-0.195,0.235
742,-0.160,0.235
743,-0.125,0.250
744,-0.100,0.255
745,-0.110,0.240
746,-0.115,0.230
747,-0.120,0.215
748,-0.110,0.240
749,-0.075,0.255
750,-0.050,0.240
751,-0.040,0.240
752,-0.050,0.210
753,-0.025,0.195
754,-0.010,0.190
755,0.025,0.225
756,0.055,0.220
757,0.055,0.200
758,0.070,0.165
759,0.055,0.170
760,0.055,0.190
761,0.080,0.210
762,0.105,0.215
763,0.120,0.190
764,0.125,0.160
765,0.115,0.165
766,0.115,0.175
767,0.130,0.185
768,0.140,0.205
769,0.145,0.175
770,0.130,0.170
771,0.125,0.165
772,0.140,0.160
773,0.150,0.185
774,0.145,0.190
775,0.135,0.185
776,0.120,0.170
777,0.100,0.165
778,0.095,0.180
779,0.095,0.210
780,0.090,0.225
781,0.075,0.215
782,0.040,0.205
783,0.010,0.195
784,-0.020,0.215
785,-0.035,0.230
786,-0.040,0.240
787,-0.070,0.215
788,-0.100,0.195
789,-0.140,0.200
790,-0.150,0.205
791,-0.150,0.240
792,-0.135,0.245
793,-0.135,0.220
794,-0.165,0.205
795,-0.215,0.200
796,-0.225,0.220
797,-0.205,0.230
798,-0.190,0.260
799,-0.195,0.240
800,-0.205,0.215
801,-0.230,0.200
802,-0.245,0.215
803,-0.245,0.225
804,-0.255,0.255
805,-0.255,0.250
806,-0.255,0.230
807,-0.265,0.210
808,-0.255,0.205
809,-0.240,0.215
810,-0.230,0.235
811,-0.235,0.235
812,-0.245,0.210
813,-0.270,0.220
814,-0.280,0.220
815,-0.260,0.240
816,-0.250,0.240
817,-0.250,0.215
818,-0.255,0.195
819,-0.265,0.205
820,-0.260,0.220
821,-0.240,0.230
822,-0.220,0.240
823,-0.210,0.210
824,-0.230,0.200
825,-0.235,0.215
826,-0.245,0.225
827,-0.220,0.240
828,-0.195,0.235
829,-0.195,0.235
830,-0.195,0.215
831,-0.190,0.220
832,-0.185,0.225
833,-0.195,0.230
834,-0.175,0.250
835,-0.170,0.255
836,-0.160,0.230
837,-0.150,0.215
838,-0.145,0.210
839,-0.155,0.195
840,-0.150,0.180
841,-0.185,0.170
842,-0.220,0.150
843,-0.245,0.140
844,-0.245,0.160
845,-0.230,0.160
846,-0.205,0.195
847,-0.215,0.190
848,-0.230,0.165
849,-0.235,0.145
850,-0.245,0.150
851,-0.240,0.175
852,-0.215,0.200
853,-0.250,0.165
854,-0.300,0.145
855,-0.350,0.130
856,-0.350,0.160
857,-0.320,0.175
858,-0.300,0.185
859,-0.290,0.180
860,-0.300,0.170
861,-0.305,0.160
862,-0.305,0.170
863,-0.290,0.185
864,-0.260,0.195
865,-0.250,0.185
866,-0.270,0.170
867,-0.295,0.160
868,-0.280,0.170
869,-0.285,0.180
870,-0.275,0.200
871,-0.280,0.190
872,-0.285,0.165
873,-0.290,0.160
874,-0.270,0.155
875,-0.275,0.165
876,-0.280,0.175
877,-0.285,0.165
878,-0.300,0.145
879,-0.295,0.130
880,-0.275,0.155
881,-0.265,0.160
882,-0.280,0.175
883,-0.280,0.150
884,-0.295,0.160
885,-0.285,0.135
886,-0.265,0.165
887,-0.250,0.165
888,-0.250,0.185
889,-0.255,0.185
890,-0.290,0.165
891,-0.320,0.170
892,-0.300,0.205
893,-0.255,0.235
894,-0.195,0.215
895,-0.110,0.165
896,-0.010,0.110
897,0.090,0.060
898,0.200,0.030
899,0.330,-0.010
900,0.440,-0.065
901,0.510,-0.120
902,0.525,-0.175
903,0.480,-0.205
904,0.395,-0.190
905,0.285,-0.150
906,0.115,-0.145
907,-0.130,-0.135
908,-0.400,-0.110
909,-0.650,-0.085
910,-0.825,-0.025
911,-0.900,0.025
912,-0.835,0.065
913,-0.725,0.105
914,-0.630,0.125
915,-0.585,0.140
916,-0.520,0.150
917,-0.435,0.150
918,-0.345,0.160
919,-0.300,0.135
920,-0.285,0.125
921,-0.275,0.105
922,-0.265,0.140
923,-0.265,0.150
924,-0.255,0.160
925,-0.245,0.155
926,-0.250,0.145
927,-0.275,0.130
928,-0.280,0.120
929,-0.245,0.160
930,-0.220,0.165
931,-0.215,0.160
932,-0.215,0.145
933,-0.200,0.135
934,-0.210,0.145
935,-0.205,0.145
936,-0.195,0.170
937,-0.165,0.140
938,-0.170,0.155
939,-0.175,0.125
940,-0.165,0.125
941,-0.140,0.125
942,-0.110,0.140
943,-0.105,0.120
944,-0.100,0.130
945,-0.095,0.115
946,-0.075,0.115
947,-0.075,0.125
948,-0.045,0.135
949,-0.025,0.125
950,-0.005,0.110
951,0.005,0.090
952,0.005,0.090
953,0.000,0.100
954,0.025,0.120
955,0.030,0.110
956,0.035,0.090
957,0.050,0.090
958,0.070,0.095
959,0.095,0.090
960,0.120,0.085
961,0.120,0.055
962,0.115,0.025
963,0.100,0.040
964,0.100,0.060
965,0.135,0.075
966,0.165,0.095
967,0.165,0.070
968,0.175,0.050
969,0.165,0.045
970,0.175,0.045
971,0.175,0.055
972,0.165,0.065
973,0.160,0.050
974,0.175,0.040
975,0.190,0.025
976,0.180,0.050
977,0.170,0.065
978,0.135,0.110
979,0.095,0.110
980,0.035,0.095
981,-0.015,0.095
982,-0.045,0.095
983,-0.045,0.120
984,-0.010,0.135
985,-0.020,0.125
986,-0.065,0.100
987,-0.125,0.065
988,-0.150,0.100
989,-0.150,0.140
990,-0.135,0.150
991,-0.140,0.140
992,-0.170,0.105
993,-0.215,0.085
994,-0.225,0.105
995,-0.230,0.135
996,-0.215,0.135
997,-0.215,0.125
998,-0.235,0.115
999,-0.235,0.095
1000,-0.205,0.110
1001,-0.215,0.115
1002,-0.245,0.110
1003,-0.260,0.095
1004,-0.290,0.100
1005,-0.295,0.105
1006,-0.275,0.115
1007,-0.245,0.120
1008,-0.235,0.115
1009,-0.260,0.100
1010,-0.265,0.100
1011,-0.260,0.120
1012,-0.250,0.135
1013,-0.255,0.155
1014,-0.265,0.115
1015,-0.265,0.085
1016,-0.280,0.060
1017,-0.280,0.080
1018,-0.275,0.100
1019,-0.255,0.140
1020,-0.250,0.130
1021,-0.250,0.115
1022,-0.275,0.100
1023,-0.260,0.085
1024,-0.250,0.105
1025,-0.225,0.110
1026,-0.220,0.130
1027,-0.225,0.105
1028,-0.215,0.095
1029,-0.200,0.105
1030,-0.210,0.120
1031,-0.205,0.135
1032,-0.185,0.125
1033,-0.180,0.120
1034,-0.175,0.105
1035,-0.170,0.125
1036,-0.155,0.115
1037,-0.145,0.110
1038,-0.150,0.105
1039,-0.180,0.095
1040,-0.205,0.080
1041,-0.210,0.075
1042,-0.200,0.090
1043,-0.215,0.075
1044,-0.240,0.050
1045,-0.270,0.055
1046,-0.270,0.045
1047,-0.260,0.055
1048,-0.235,0.075
1049,-0.200,0.100
1050,-0.195,0.085
1051,-0.205,0.085
1052,-0.225,0.075
1053,-0.250,0.070
1054,-0.255,0.075
1055,-0.230,0.080
1056,-0.235,0.090
1057,-0.255,0.065
1058,-0.295,0.060
1059,-0.305,0.065
1060,-0.300,0.095
1061,-0.285,0.090
1062,-0.280,0.095
1063,-0.270,0.080
1064,-0.290,0.075
1065,-0.285,0.075
1066,-0.285,0.085
1067,-0.275,0.095
1068,-0.280,0.100
1069,-0.270,0.100
1070,-0.265,0.095
1071,-0.250,0.110
1072,-0.245,0.115
1073,-0.245,0.135
1074,-0.250,0.110
1075,-0.275,0.075
1076,-0.300,0.055
1077,-0.310,0.060
1078,-0.300,0.055
1079,-0.280,0.070
1080,-0.275,0.065
1081,-0.265,0.075
1082,-0.280,0.055
1083,-0.285,0.075
1084,-0.260,0.090
1085,-0.245,0.080
1086,-0.275,0.090
1087,-0.290,0.085
1088,-0.305,0.105
1089,-0.305,0.115
1090,-0.270,0.140
1091,-0.205,0.145
1092,-0.110,0.105
1093,0.010,0.060
1094,0.110,0.010
1095,0.210,-0.030
1096,0.355,-0.055
1097,0.495,-0.115
1098,0.590,-0.165
1099,0.630,-0.245
1100,0.610,-0.280
1101,0.490,-0.285
1102,0.340,-0.255
1103,0.115,-0.225
1104,-0.205,-0.185
1105,-0.530,-0.140
1106,-0.790,-0.110
1107,-0.880,-0.075
1108,-0.835,-0.030
1109,-0.720,0.045
1110,-0.610,0.050
1111,-0.535,0.070
1112,-0.485,0.085
1113,-0.430,0.105
1114,-0.360,0.120
1115,-0.300,0.115
1116,-0.285,0.085
1117,-0.275,0.050
1118,-0.280,0.050
1119,-0.270,0.065
1120,-0.245,0.085
1121,-0.220,0.100
1122,-0.215,0.090
1123,-0.230,0.075
1124,-0.230,0.065
1125,-0.235,0.080
1126,-0.215,0.105
1127,-0.190,0.100
1128,-0.180,0.080
1129,-0.175,0.080
1130,-0.195,0.070
1131,-0.190,0.100
1132,-0.170,0.115
1133,-0.135,0.105
1134,-0.130,0.100
1135,-0.150,0.075
1136,-0.145,0.075
1137,-0.140,0.080
1138,-0.110,0.095
1139,-0.075,0.095
1140,-0.065,0.090
1141,-0.060,0.080
1142,-0.055,0.070
1143,-0.040,0.075
1144,-0.025,0.080
1145,0.015,0.100
1146,0.035,0.100
1147,0.030,0.080
1148,0.015,0.070
1149,0.050,0.070
1150,0.075,0.080
1151,0.090,0.070
1152,0.105,0.055
1153,0.115,0.045
1154,0.105,0.050
1155,0.130,0.055
1156,0.155,0.070
1157,0.175,0.090
1158,0.175,0.065
1159,0.165,0.035
1160,0.150,0.035
1161,0.150,0.045
1162,0.180,0.075
1163,0.195,0.080
1164,0.205,0.065
1165,0.205,0.045
1166,0.185,0.045
1167,0.185,0.065
1168,0.165,0.070
1169,0.175,0.090
1170,0.175,0.075
1171,0.140,0.060
1172,0.130,0.060
1173,0.120,0.085
1174,0.120,0.110
1175,0.110,0.115
1176,0.065,0.105
1177,0.015,0.110
1178,-0.005,0.105
1179,-0.030,0.110
1180,-0.035,0.135
1181,-0.050,0.140
1182,-0.055,0.130
1183,-0.100,0.115
1184,-0.135,0.110
1185,-0.150,0.145
1186,-0.135,0.165
1187,-0.120,0.170
1188,-0.140,0.165
1189,-0.160,0.155
1190,-0.180,0.120
1191,-0.185,0.110
1192,-0.175,0.140
1193,-0.175,0.145
1194,-0.180,0.135
1195,-0.200,0.130
1196,-0.215,0.125
1197,-0.210,0.130
1198,-0.200,0.150
1199,-0.190,0.145
1200,-0.195,0.140
1201,-0.215,0.125
1202,-0.230,0.120
1203,-0.245,0.135
1204,-0.245,0.165
1205,-0.220,0.155
1206,-0.200,0.155
1207,-0.195,0.115
1208,-0.195,0.120
1209,-0.215,0.145
1210,-0.240,0.160
1211,-0.235,0.160
1212,-0.230,0.155
1213,-0.225,0.150
1214,-0.220,0.145
1215,-0.215,0.155
1216,-0.195,0.185
1217,-0.185,0.175
1218,-0.200,0.185
1219,-0.185,0.160
1220,-0.200,0.160
1221,-0.205,0.165
1222,-0.185,0.195
1223,-0.150,0.190
1224,-0.145,0.180
1225,-0.160,0.155
1226,-0.160,0.155
1227,-0.155,0.165
1228,-0.145,0.175
1229,-0.125,0.180
1230,-0.130,0.160
1231,-0.160,0.125
1232,-0.175,0.125
1233,-0.175,0.135
1234,-0.165,0.155
1235,-0.170,0.160
1236,-0.175,0.135
1237,-0.190,0.115
1238,-0.205,0.100
1239,-0.225,0.110
1240,-0.220,0.120
1241,-0.215,0.145
1242,-0.215,0.145
1243,-0.215,0.130
1244,-0.205,0.140
1245,-0.220,0.145
1246,-0.225,0.160
1247,-0.225,0.160
1248,-0.240,0.155
1249,-0.245,0.135
1250,-0.255,0.140
1251,-0.265,0.145
1252,-0.250,0.160
1253,-0.230,0.165
1254,-0.235,0.155
1255,-0.250,0.160
1256,-0.260,0.140
1257,-0.250,0.160
1258,-0.250,0.170
1259,-0.235,0.180
1260,-0.235,0.155
1261,-0.240,0.130
1262,-0.250,0.135
1263,-0.255,0.155
1264,-0.240,0.165
1265,-0.240,0.180
1266,-0.235,0.180
1267,-0.245,0.155
1268,-0.250,0.145
1269,-0.250,0.150
1270,-0.230,0.165
1271,-0.225,0.155
1272,-0.230,0.155
1273,-0.230,0.150
1274,-0.240,0.145
1275,-0.250,0.155
1276,-0.230,0.160
1277,-0.205,0.165
1278,-0.205,0.150
1279,-0.205,0.125
1280,-0.240,0.140
1281,-0.260,0.155
1282,-0.280,0.180
1283,-0.265,0.180
1284,-0.265,0.185
1285,-0.265,0.180
1286,-0.230,0.190
1287,-0.115,0.155
1288,0.035,0.160
1289,0.185,0.125
1290,0.310,0.090
1291,0.410,0.045
1292,0.520,-0.020
1293,0.630,-0.080
1294,0.730,-0.125
1295,0.795,-0.180
1296,0.750,-0.225
1297,0.625,-0.245
1298,0.480,-0.245
1299,0.285,-0.240
1300,-0.010,-0.190
1301,-0.295,-0.150
1302,-0.560,-0.130
1303,-0.760,-0.115
1304,-0.840,-0.085
1305,-0.825,-0.005
1306,-0.710,0.095
1307,-0.615,0.145
1308,-0.545,0.145
1309,-0.480,0.135
1310,-0.420,0.135
1311,-0.360,0.155
1312,-0.310,0.160
1313,-0.270,0.155
1314,-0.250,0.165
1315,-0.235,0.145
1316,-0.255,0.135
1317,-0.245,0.150
1318,-0.235,0.165
1319,-0.200,0.170
1320,-0.195,0.170
1321,-0.200,0.165
1322,-0.215,0.145
1323,-0.215,0.155
1324,-0.185,0.160
1325,-0.170,0.155
1326,-0.165,0.155
1327,-0.185,0.140
1328,-0.230,0.135
1329,-0.205,0.165
1330,-0.190,0.170
1331,-0.155,0.160
1332,-0.130,0.145
1333,-0.130,0.115
1334,-0.115,0.105
1335,-0.110,0.130
1336,-0.100,0.155
1337,-0.090,0.160
1338,-0.065,0.135
1339,-0.060,0.115
1340,-0.050,0.100
1341,-0.040,0.105
1342,-0.030,0.115
1343,-0.010,0.140
1344,0.000,0.125
1345,0.030,0.110
1346,0.045,0.090
1347,0.055,0.100
1348,0.090,0.105
1349,0.090,0.115
1350,0.080,0.105
1351,0.080,0.085
1352,0.080,0.085
1353,0.095,0.100
1354,0.105,0.120
1355,0.140,0.115
1356,0.150,0.100
1357,0.175,0.050
1358,0.175,0.045
1359,0.185,0.060
1360,0.195,0.075
1361,0.220,0.100
1362,0.215,0.090
1363,0.210,0.080
1364,0.205,0.055
1365,0.195,0.060
1366,0.195,0.100
1367,0.195,0.100
1368,0.175,0.095
1369,0.160,0.075
1370,0.145,0.080
1371,0.095,0.095
1372,0.080,0.140
1373,0.060,0.170
1374,0.020,0.150
1375,0.005,0.115
1376,-0.005,0.080
1377,-0.040,0.100
1378,-0.050,0.130
1379,-0.065,0.160
1380,-0.110,0.145
1381,-0.130,0.135
1382,-0.165,0.130
1383,-0.175,0.135
1384,-0.185,0.145
1385,-0.180,0.135
1386,-0.180,0.145
1387,-0.200,0.140
1388,-0.230,0.130
1389,-0.250,0.135
1390,-0.265,0.160
1391,-0.240,0.160
1392,-0.235,0.145
1393,-0.250,0.130
1394,-0.265,0.100
1395,-0.255,0.135
1396,-0.245,0.160
1397,-0.235,0.155
1398,-0.245,0.140
1399,-0.260,0.125
1400,-0.270,0.115
1401,-0.275,0.140
1402,-0.270,0.165
1403,-0.265,0.155
1404,-0.275,0.160
1405,-0.285,0.130
1406,-0.290,0.130
1407,-0.270,0.140
1408,-0.245,0.150
1409,-0.225,0.155
1410,-0.235,0.165
1411,-0.260,0.145
1412,-0.275,0.155
1413,-0.270,0.180
1414,-0.250,0.185
1415,-0.230,0.185
1416,-0.220,0.165
1417,-0.220,0.150
1418,-0.215,0.160
1419,-0.190,0.165
1420,-0.155,0.175
1421,-0.145,0.180
1422,-0.170,0.175
1423,-0.195,0.155
1424,-0.205,0.145
1425,-0.210,0.160
1426,-0.215,0.150
1427,-0.215,0.130
1428,-0.220,0.120
1429,-0.235,0.100
1430,-0.250,0.095
1431,-0.275,0.125
1432,-0.270,0.120
1433,-0.260,0.135
1434,-0.265,0.120
1435,-0.265,0.115
1436,-0.280,0.130
1437,-0.290,0.145
1438,-0.290,0.145
1439,-0.295,0.140
1440,-0.305,0.135
1441,-0.305,0.120
1442,-0.320,0.110
1443,-0.320,0.115
1444,-0.285,0.135
1445,-0.270,0.145
1446,-0.295,0.145
1447,-0.320,0.125
1448,-0.360,0.125
1449,-0.355,0.140
1450,-0.325,0.150
1451,-0.290,0.155
1452,-0.290,0.135
1453,-0.315,0.130
1454,-0.330,0.110
1455,-0.335,0.135
1456,-0.315,0.125
1457,-0.285,0.155
1458,-0.275,0.130
1459,-0.295,0.135
1460,-0.300,0.120
1461,-0.315,0.135
1462,-0.305,0.150
1463,-0.285,0.155
1464,-0.285,0.135
1465,-0.300,0.115
1466,-0.295,0.115
1467,-0.300,0.105
1468,-0.280,0.125
1469,-0.265,0.115
1470,-0.295,0.110
1471,-0.320,0.115
1472,-0.345,0.140
1473,-0.335,0.155
1474,-0.275,0.180
1475,-0.180,0.160
1476,-0.045,0.105
1477,0.095,0.040
1478,0.235,0.000
1479,0.370,-0.045
1480,0.515,-0.085
1481,0.630,-0.135
1482,0.690,-0.205
1483,0.685,-0.290
1484,0.560,-0.325
1485,0.420,-0.320
1486,0.230,-0.290
1487,-0.040,-0.240
1488,-0.380,-0.210
1489,-0.680,-0.175
1490,-0.895,-0.145
1491,-0.940,-0.065
1492,-0.840,0.045
1493,-0.685,0.100
1494,-0.585,0.135
1495,-0.525,0.130
1496,-0.480,0.120
1497,-0.425,0.130
1498,-0.345,0.145
1499,-0.285,0.150
1500,-0.270,0.135
1501,-0.290,0.120
1502,-0.305,0.100
1503,-0.310,0.105
1504,-0.290,0.140
1505,-0.255,0.145
1506,-0.245,0.110
1507,-0.230,0.085
1508,-0.220,0.085
1509,-0.205,0.100
1510,-0.195,0.130
1511,-0.205,0.140
1512,-0.225,0.120
1513,-0.225,0.115
1514,-0.225,0.115
1515,-0.225,0.100
1516,-0.205,0.120
1517,-0.170,0.130
1518,-0.160,0.110
1519,-0.130,0.095
1520,-0.115,0.085
1521,-0.115,0.080
1522,-0.110,0.090
1523,-0.100,0.110
1524,-0.095,0.100
1525,-0.095,0.095
1526,-0.075,0.080
1527,-0.055,0.055
1528,-0.030,0.070
1529,-0.020,0.075
1530,0.000,0.070
1531,0.000,0.065
1532,0.010,0.060
1533,0.040,0.070
1534,0.080,0.055
1535,0.100,0.060
1536,0.095,0.040
1537,0.120,0.040
1538,0.120,0.030
1539,0.150,0.040
1540,0.165,0.055
1541,0.180,0.055
1542,0.170,0.040
1543,0.155,0.025
1544,0.125,0.020
1545,0.130,0.015
1546,0.135,0.045
1547,0.145,0.060
1548,0.155,0.035
1549,0.150,0.015
1550,0.135,0.015
1551,0.095,0.045
1552,0.095,0.080
1553,0.100,0.090
1554,0.065,0.080
1555,0.030,0.060
1556,0.000,0.040
1557,-0.005,0.060
1558,-0.010,0.085
1559,-0.025,0.080
1560,-0.055,0.095
1561,-0.070,0.075
1562,-0.090,0.080
1563,-0.110,0.090
1564,-0.125,0.105
1565,-0.145,0.100
1566,-0.170,0.105
1567,-0.195,0.095
1568,-0.225,0.090
1569,-0.225,0.100
1570,-0.250,0.115
1571,-0.235,0.135
1572,-0.230,0.110
1573,-0.200,0.090
1574,-0.210,0.080
1575,-0.240,0.095
1576,-0.280,0.100
1577,-0.270,0.105
1578,-0.240,0.105
1579,-0.220,0.090
1580,-0.220,0.070
1581,-0.230,0.100
1582,-0.270,0.130
1583,-0.305,0.165
1584,-0.330,0.185
1585,-0.335,0.165
1586,-0.320,0.130
1587,-0.300,0.090
1588,-0.280,0.095
1589,-0.300,0.085
1590,-0.315,0.070
1591,-0.325,0.070
1592,-0.335,0.065
1593,-0.315,0.085
1594,-0.280,0.105
1595,-0.260,0.120
1596,-0.250,0.120
1597,-0.260,0.100
1598,-0.270,0.115
1599,-0.275,0.120
1600,-0.245,0.130
1601,-0.230,0.130
1602,-0.225,0.120
1603,-0.205,0.100
1604,-0.200,0.110
1605,-0.195,0.120
1606,-0.180,0.130
1607,-0.185,0.135
1608,-0.210,0.105
1609,-0.230,0.090
1610,-0.255,0.070
1611,-0.250,0.080
1612,-0.235,0.105
1613,-0.220,0.105
1614,-0.240,0.100
1615,-0.285,0.095
1616,-0.315,0.080
1617,-0.330,0.100
1618,-0.325,0.105
1619,-0.305,0.095
1620,-0.310,0.095
1621,-0.315,0.075
1622,-0.305,0.080
1623,-0.320,0.085
1624,-0.330,0.105
1625,-0.325,0.120
1626,-0.325,0.100
1627,-0.335,0.100
1628,-0.335,0.095
1629,-0.330,0.075
1630,-0.320,0.095
1631,-0.305,0.105
1632,-0.305,0.090
1633,-0.310,0.075
1634,-0.330,0.090
1635,-0.330,0.085
1636,-0.310,0.095
1637,-0.300,0.090
1638,-0.325,0.095
1639,-0.335,0.105
1640,-0.335,0.110
1641,-0.345,0.105
1642,-0.345,0.120
1643,-0.345,0.130
1644,-0.345,0.115
1645,-0.345,0.110
1646,-0.350,0.110
1647,-0.350,0.110
1648,-0.345,0.115
1649,-0.315,0.110
1650,-0.320,0.105
1651,-0.320,0.095
1652,-0.330,0.095
1653,-0.315,0.120
1654,-0.300,0.110
1655,-0.275,0.115
1656,-0.290,0.110
1657,-0.320,0.095
1658,-0.345,0.110
1659,-0.375,0.140
1660,-0.370,0.165
1661,-0.325,0.170
1662,-0.245,0.170
1663,-0.130,0.095
1664,-0.015,0.040
1665,0.120,0.000
1666,0.295,-0.045
1667,0.460,-0.095
1668,0.565,-0.165
1669,0.625,-0.235
1670,0.630,-0.305
1671,0.540,-0.340
1672,0.395,-0.310
1673,0.205,-0.290
1674,-0.070,-0.255
1675,-0.430,-0.205
1676,-0.725,-0.175
1677,-0.915,-0.125
1678,-0.970,-0.065
1679,-0.890,0.020
1680,-0.760,0.060
1681,-0.680,0.090
1682,-0.615,0.105
1683,-0.540,0.120
1684,-0.455,0.135
1685,-0.370,0.130
1686,-0.340,0.105
1687,-0.335,0.075
1688,-0.340,0.080
1689,-0.340,0.095
1690,-0.315,0.120
1691,-0.285,0.130
1692,-0.285,0.135
1693,-0.285,0.120
1694,-0.280,0.115
1695,-0.275,0.135
1696,-0.245,0.125
1697,-0.240,0.120
1698,-0.240,0.100
1699,-0.240,0.070
1700,-0.245,0.075
1701,-0.230,0.085
1702,-0.215,0.100
1703,-0.190,0.085
1704,-0.195,0.105
1705,-0.190,0.095
1706,-0.200,0.105
1707,-0.185,0.100
1708,-0.165,0.110
1709,-0.135,0.095
1710,-0.115,0.090
1711,-0.100,0.055
1712,-0.120,0.075
1713,-0.125,0.080
1714,-0.100,0.100
1715,-0.060,0.085
1716,-0.055,0.055
1717,-0.040,0.035
1718,-0.030,0.055
1719,-0.020,0.060
1720,0.025,0.050
1721,0.065,0.045
1722,0.090,0.045
1723,0.070,0.045
1724,0.070,0.025
1725,0.080,0.030
1726,0.105,0.035
1727,0.135,0.025
1728,0.145,0.030
1729,0.115,0.015
1730,0.120,0.025
1731,0.115,0.045
1732,0.120,0.050
1733,0.145,0.055
1734,0.150,0.035
1735,0.145,0.020
1736,0.120,0.035
1737,0.115,0.055
1738,0.125,0.065
1739,0.125,0.075
1740,0.115,0.065
1741,0.075,0.055
1742,0.050,0.035
1743,0.025,0.045
1744,0.010,0.070
1745,0.010,0.090
1746,-0.010,0.085
1747,-0.040,0.075
1748,-0.075,0.070
1749,-0.100,0.100
1750,-0.130,0.130
1751,-0.155,0.120
1752,-0.165,0.080
1753,-0.185,0.080
1754,-0.205,0.110
1755,-0.215,0.125
1756,-0.225,0.120
1757,-0.230,0.115
1758,-0.225,0.110
1759,-0.245,0.115
1760,-0.280,0.125
1761,-0.285,0.120
1762,-0.275,0.125
1763,-0.250,0.115
1764,-0.250,0.120
1765,-0.260,0.095
1766,-0.295,0.110
1767,-0.290,0.120
1768,-0.280,0.135
1769,-0.275,0.145
1770,-0.270,0.140
1771,-0.285,0.100
1772,-0.300,0.090
1773,-0.295,0.100
1774,-0.280,0.110
1775,-0.260,0.130
1776,-0.260,0.115
1777,-0.265,0.100
1778,-0.270,0.100
1779,-0.265,0.120
1780,-0.250,0.145
1781,-0.250,0.140
1782,-0.260,0.125
1783,-0.305,0.110
1784,-0.325,0.135
1785,-0.315,0.155
1786,-0.270,0.180
1787,-0.230,0.170
1788,-0.230,0.155
1789,-0.230,0.155
1790,-0.210,0.135
1791,-0.210,0.140
1792,-0.185,0.155
1793,-0.150,0.150
1794,-0.150,0.125
1795,-0.170,0.105
1796,-0.205,0.110
1797,-0.240,0.120
1798,-0.255,0.125
1799,-0.240,0.115
1800,-0.250,0.095
1801,-0.265,0.095
1802,-0.320,0.115
1803,-0.340,0.130
1804,-0.330,0.140
1805,-0.310,0.135
1806,-0.300,0.125
1807,-0.290,0.085
1808,-0.295,0.095
1809,-0.315,0.110
1810,-0.315,0.135
1811,-0.335,0.125
1812,-0.315,0.135
1813,-0.335,0.140
1814,-0.340,0.130
1815,-0.350,0.130
1816,-0.355,0.135
1817,-0.350,0.140
1818,-0.340,0.125
1819,-0.355,0.100
1820,-0.375,0.125
1821,-0.345,0.120
1822,-0.340,0.120
1823,-0.325,0.110
1824,-0.330,0.105
1825,-0.330,0.080
1826,-0.355,0.085
1827,-0.360,0.095
1828,-0.345,0.120
1829,-0.330,0.115
1830,-0.325,0.120
1831,-0.325,0.100
1832,-0.325,0.110
1833,-0.310,0.105
1834,-0.310,0.115
1835,-0.305,0.135
1836,-0.310,0.115
1837,-0.325,0.105
1838,-0.355,0.120
1839,-0.365,0.130
1840,-0.355,0.145
1841,-0.330,0.130
1842,-0.320,0.110
1843,-0.335,0.100
1844,-0.360,0.135
1845,-0.375,0.150
1846,-0.370,0.185
1847,-0.305,0.185
1848,-0.230,0.160
1849,-0.135,0.100
1850,-0.030,0.045
1851,0.095,-0.015
1852,0.230,-0.040
1853,0.360,-0.100
1854,0.425,-0.160
1855,0.490,-0.205
1856,0.520,-0.255
1857,0.465,-0.255
1858,0.370,-0.240
1859,0.190,-0.210
1860,-0.115,-0.195
1861,-0.470,-0.150
1862,-0.775,-0.130
1863,-0.960,-0.080
1864,-0.980,-0.005
1865,-0.890,0.070
1866,-0.775,0.125
1867,-0.665,0.105
1868,-0.565,0.105
1869,-0.450,0.115
1870,-0.390,0.115
1871,-0.370,0.120
1872,-0.360,0.090
1873,-0.365,0.085
1874,-0.345,0.070
1875,-0.330,0.080
1876,-0.320,0.125
1877,-0.305,0.135
1878,-0.290,0.115
1879,-0.295,0.080
1880,-0.295,0.065
1881,-0.290,0.100
1882,-0.285,0.115
1883,-0.260,0.105
1884,-0.255,0.105
1885,-0.250,0.100
1886,-0.260,0.095
1887,-0.260,0.105
1888,-0.235,0.110
1889,-0.210,0.105
1890,-0.210,0.095
1891,-0.215,0.085
1892,-0.225,0.070
1893,-0.205,0.070
1894,-0.170,0.085
1895,-0.135,0.075
1896,-0.115,0.060
1897,-0.120,0.045
1898,-0.120,0.045
1899,-0.120,0.065
1900,-0.090,0.085
1901,-0.055,0.060
1902,-0.040,0.040
1903,-0.035,0.035
1904,-0.050,0.035
1905,-0.045,0.085
1906,-0.025,0.090
1907,0.015,0.090
1908,0.045,0.070
1909,0.050,0.070
1910,0.050,0.035
1911,0.065,0.025
1912,0.090,0.030
1913,0.130,0.030
1914,0.135,0.010
1915,0.115,0.020
1916,0.085,0.005
1917,0.085,0.030
1918,0.105,0.035
1919,0.115,0.035
1920,0.115,0.010
1921,0.095,0.005
1922,0.070,-0.005
1923,0.055,0.025
1924,0.070,0.030
1925,0.080,0.035
1926,0.075,0.040
1927,0.050,0.035
1928,0.025,0.035
1929,0.025,0.060
1930,0.015,0.090
1931,0.010,0.085
1932,-0.015,0.080
1933,-0.050,0.070
1934,-0.080,0.070
1935,-0.075,0.060
1936,-0.070,0.060
1937,-0.105,0.075
1938,-0.195,0.085
1939,-0.295,0.105
1940,-0.315,0.105
1941,-0.290,0.125
1942,-0.275,0.120
1943,-0.265,0.140
1944,-0.270,0.135
1945,-0.270,0.120
1946,-0.285,0.105
1947,-0.295,0.100
1948,-0.305,0.110
1949,-0.300,0.115
1950,-0.300,0.120
1951,-0.315,0.115
1952,-0.320,0.110
1953,-0.320,0.130
1954,-0.315,0.135
1955,-0.280,0.150
1956,-0.265,0.140
1957,-0.250,0.110
1958,-0.280,0.075
1959,-0.325,0.075
1960,-0.345,0.110
1961,-0.340,0.125
1962,-0.345,0.135
1963,-0.340,0.115
1964,-0.355,0.105
1965,-0.335,0.115
1966,-0.305,0.115
1967,-0.290,0.130
1968,-0.295,0.115
1969,-0.295,0.120
1970,-0.295,0.135
1971,-0.280,0.150
1972,-0.260,0.165
1973,-0.265,0.160
1974,-0.285,0.150
1975,-0.295,0.145
1976,-0.300,0.140
1977,-0.280,0.145
1978,-0.240,0.165
1979,-0.215,0.170
1980,-0.225,0.155
1981,-0.220,0.135
1982,-0.235,0.110
1983,-0.235,0.120
1984,-0.235,0.100
1985,-0.240,0.095
1986,-0.255,0.085
1987,-0.265,0.065
1988,-0.295,0.070
1989,-0.300,0.060
1990,-0.300,0.070
1991,-0.290,0.080
1992,-0.275,0.085
1993,-0.280,0.070
1994,-0.275,0.070
1995,-0.285,0.090
1996,-0.305,0.110
1997,-0.320,0.140
1998,-0.330,0.125
1999,-0.345,0.090
2000,-0.340,0.070
2001,-0.350,0.080
2002,-0.340,0.120
2003,-0.325,0.125
2004,-0.325,0.105
2005,-0.340,0.075
2006,-0.345,0.075
2007,-0.335,0.085
2008,-0.315,0.110
2009,-0.305,0.110
2010,-0.305,0.095
2011,-0.325,0.100
2012,-0.355,0.090
2013,-0.335,0.100
2014,-0.320,0.110
2015,-0.295,0.090
2016,-0.295,0.110
2017,-0.335,0.095
2018,-0.365,0.080
2019,-0.370,0.105
2020,-0.350,0.145
2021,-0.335,0.140
2022,-0.335,0.115
2023,-0.320,0.080
2024,-0.355,0.060
2025,-0.355,0.090
2026,-0.340,0.100
2027,-0.325,0.110
2028,-0.335,0.090
2029,-0.345,0.080
2030,-0.340,0.080
2031,-0.330,0.105
2032,-0.335,0.100
2033,-0.345,0.120
2034,-0.355,0.115
2035,-0.345,0.110
2036,-0.260,0.105
2037,-0.135,0.080
2038,0.005,0.050
2039,0.180,-0.025
2040,0.325,-0.090
2041,0.470,-0.190
2042,0.540,-0.220
2043,0.550,-0.255
2044,0.460,-0.260
2045,0.340,-0.255
2046,0.145,-0.240
2047,-0.130,-0.230
2048,-0.445,-0.180
2049,-0.740,-0.125
2050,-0.920,-0.070
2051,-0.950,-0.035
2052,-0.865,0.015
2053,-0.755,0.065
2054,-0.675,0.085
2055,-0.595,0.100
2056,-0.515,0.100
2057,-0.435,0.105
2058,-0.415,0.110
2059,-0.400,0.105
2060,-0.385,0.095
2061,-0.365,0.090
2062,-0.355,0.105
2063,-0.315,0.105
2064,-0.310,0.095
2065,-0.305,0.075
2066,-0.305,0.065
2067,-0.300,0.100
2068,-0.290,0.115
2069,-0.275,0.125
2070,-0.260,0.105
2071,-0.260,0.065
2072,-0.255,0.070
2073,-0.255,0.075
2074,-0.225,0.075
2075,-0.210,0.070
2076,-0.225,0.060
2077,-0.245,0.050
2078,-0.250,0.050
2079,-0.235,0.095
2080,-0.225,0.090
2081,-0.195,0.095
2082,-0.190,0.075
2083,-0.185,0.065
2084,-0.170,0.075
2085,-0.150,0.080
2086,-0.125,0.100
2087,-0.100,0.080
2088,-0.080,0.045
2089,-0.065,0.045
2090,-0.060,0.045
2091,-0.035,0.055
2092,0.000,0.055
2093,0.030,0.050
2094,0.050,0.020
2095,0.065,0.025
2096,0.070,0.015
2097,0.085,0.020
2098,0.115,0.040
2099,0.135,0.015
2100,0.130,-0.010
2101,0.110,-0.015
2102,0.080,0.000
2103,0.060,0.005
2104,0.075,0.050
2105,0.090,0.045
2106,0.090,0.040
2107,0.095,0.040
2108,0.085,0.055
2109,0.070,0.085
2110,0.080,0.085
2111,0.070,0.040
2112,0.060,0.005
2113,0.030,0.015
2114,-0.010,0.030
2115,-0.035,0.040
2116,-0.040,0.065
2117,-0.045,0.075
2118,-0.075,0.090
2119,-0.115,0.065
2120,-0.160,0.070
2121,-0.185,0.075
2122,-0.185,0.090
2123,-0.195,0.100
2124,-0.200,0.085
2125,-0.205,0.075
2126,-0.215,0.050
2127,-0.240,0.070
2128,-0.240,0.090
2129,-0.240,0.095
2130,-0.255,0.090
2131,-0.270,0.075
2132,-0.290,0.080
2133,-0.275,0.090
2134,-0.280,0.115
2135,-0.275,0.130
2136,-0.280,0.120
2137,-0.280,0.090
2138,-0.310,0.075
2139,-0.350,0.115
2140,-0.365,0.120
2141,-0.330,0.115
2142,-0.310,0.080
2143,-0.310,0.055
2144,-0.335,0.060
2145,-0.325,0.095
2146,-0.325,0.120
2147,-0.320,0.115
2148,-0.330,0.085
2149,-0.345,0.085
2150,-0.350,0.095
2151,-0.325,0.105
2152,-0.300,0.120
2153,-0.270,0.120
2154,-0.275,0.130
2155,-0.285,0.135
2156,-0.310,0.105
2157,-0.275,0.115
2158,-0.245,0.145
2159,-0.235,0.130
2160,-0.235,0.125
2161,-0.230,0.080
2162,-0.210,0.075
2163,-0.200,0.090
2164,-0.215,0.090
2165,-0.240,0.085
2166,-0.285,0.075
2167,-0.295,0.055
2168,-0.290,0.040
2169,-0.280,0.055
2170,-0.270,0.065
2171,-0.250,0.075
2172,-0.270,0.065
2173,-0.305,0.055
2174,-0.255,0.080
2175,-0.235,0.095
2176,-0.235,0.095
2177,-0.300,0.100
2178,-0.365,0.055
2179,-0.395,0.045
2180,-0.415,0.075
2181,-0.435,0.095
2182,-0.425,0.115
2183,-0.385,0.125
2184,-0.365,0.100
2185,-0.370,0.070
2186,-0.385,0.080
2187,-0.370,0.110
2188,-0.350,0.110
2189,-0.340,0.070
2190,-0.325,0.050
2191,-0.320,0.030
2192,-0.320,0.045
2193,-0.310,0.060
2194,-0.295,0.085
2195,-0.290,0.105
2196,-0.325,0.095
2197,-0.360,0.095
2198,-0.365,0.075
2199,-0.345,0.080
2200,-0.360,0.105
2201,-0.365,0.135
2202,-0.380,0.145
2203,-0.390,0.115
2204,-0.390,0.070
2205,-0.385,0.060
2206,-0.355,0.065
2207,-0.345,0.100
2208,-0.365,0.110
2209,-0.390,0.075
2210,-0.380,0.060
2211,-0.375,0.055
2212,-0.380,0.080
2213,-0.360,0.115
2214,-0.340,0.130
2215,-0.290,0.080
2216,-0.170,0.020
2217,-0.020,-0.025
2218,0.145,-0.060
2219,0.310,-0.080
2220,0.455,-0.140
2221,0.565,-0.210
2222,0.635,-0.295
2223,0.645,-0.335
2224,0.565,-0.350
2225,0.410,-0.345
2226,0.200,-0.345
2227,-0.100,-0.335
2228,-0.445,-0.280
2229,-0.770,-0.215
2230,-0.960,-0.140
2231,-0.945,-0.055
2232,-0.830,0.020
2233,-0.705,0.075
2234,-0.605,0.100
2235,-0.505,0.115
2236,-0.435,0.100
2237,-0.395,0.065
2238,-0.360,0.020
2239,-0.365,0.020
2240,-0.350,0.035
2241,-0.325,0.045
2242,-0.290,0.070
2243,-0.310,0.080
2244,-0.340,0.090
2245,-0.365,0.080
2246,-0.360,0.085
2247,-0.345,0.090
2248,-0.340,0.080
2249,-0.325,0.080
2250,-0.310,0.060
2251,-0.280,0.015
2252,-0.260,-0.020
2253,-0.255,0.000
2254,-0.265,0.015
2255,-0.255,0.035
2256,-0.280,0.025
2257,-0.290,0.030
2258,-0.275,0.050
2259,-0.245,0.085
2260,-0.245,0.060
2261,-0.220,0.045
2262,-0.200,0.020
2263,-0.160,0.020
2264,-0.130,0.020
2265,-0.120,0.015
2266,-0.110,0.030
2267,-0.085,0.040
2268,-0.070,0.030
2269,-0.050,-0.010
2270,-0.065,-0.020
2271,-0.045,0.000
2272,-0.030,0.035
2273,0.020,0.035
2274,0.040,0.025
2275,0.035,-0.010
2276,0.025,-0.040
2277,0.055,-0.035
2278,0.080,0.015
2279,0.085,0.015
2280,0.055,-0.010
2281,0.000,-0.030
2282,-0.005,-0.030
2283,0.030,0.010
2284,0.050,0.050
2285,0.050,0.030
2286,0.075,-0.015
2287,0.090,-0.045
2288,0.060,-0.030
2289,0.025,0.000
2290,0.015,0.035
2291,0.030,0.045
2292,0.010,0.010
2293,-0.030,0.005
2294,-0.095,0.010
2295,-0.110,0.015
2296,-0.110,0.060
2297,-0.110,0.050
2298,-0.125,0.020
2299,-0.155,0.005
2300,-0.170,0.020
2301,-0.215,0.070
2302,-0.225,0.080
2303,-0.255,0.060
2304,-0.275,0.035
2305,-0.300,0.025
2306,-0.310,0.015
2307,-0.310,0.040
2308,-0.315,0.080
2309,-0.310,0.085
2310,-0.335,0.085
2311,-0.370,0.055
2312,-0.375,0.025
2313,-0.350,0.035
2314,-0.335,0.050
2315,-0.335,0.060
2316,-0.360,0.050
2317,-0.390,0.060
2318,-0.415,0.065
2319,-0.395,0.075
2320,-0.385,0.080
2321,-0.345,0.065
2322,-0.380,0.025
2323,-0.390,0.030
2324,-0.405,0.050
2325,-0.395,0.090
2326,-0.390,0.085
2327,-0.340,0.060
2328,-0.360,0.040
2329,-0.360,0.025
2330,-0.365,0.035
2331,-0.345,0.070
2332,-0.335,0.080
2333,-0.320,0.065
2334,-0.325,0.055
2335,-0.320,0.045
2336,-0.310,0.065
2337,-0.300,0.110
2338,-0.295,0.135
2339,-0.305,0.140
2340,-0.315,0.095
2341,-0.315,0.070
2342,-0.295,0.050
2343,-0.280,0.045
2344,-0.260,0.065
2345,-0.235,0.065
2346,-0.240,0.050
2347,-0.255,0.020
2348,-0.270,0.000
2349,-0.290,0.000
2350,-0.300,0.020
2351,-0.290,0.020
2352,-0.300,0.010
2353,-0.295,0.015
2354,-0.335,0.010
2355,-0.325,0.015
2356,-0.315,0.045
2357,-0.320,0.035
2358,-0.335,0.045
2359,-0.335,0.055
2360,-0.335,0.090
2361,-0.335,0.080
2362,-0.330,0.065
2363,-0.325,0.020
2364,-0.330,-0.010
2365,-0.360,-0.010
2366,-0.400,0.005
2367,-0.410,0.050
2368,-0.400,0.070
2369,-0.370,0.065
2370,-0.380,0.055
2371,-0.395,0.060
2372,-0.425,0.055
2373,-0.390,0.040
2374,-0.385,0.045
2375,-0.360,0.065
2376,-0.350,0.080
2377,-0.340,0.075
2378,-0.355,0.065
2379,-0.380,0.075
2380,-0.385,0.070
2381,-0.385,0.080
2382,-0.390,0.080
2383,-0.385,0.055
2384,-0.380,0.015
2385,-0.370,0.020
2386,-0.345,0.055
2387,-0.345,0.070
2388,-0.375,0.060
2389,-0.380,0.035
2390,-0.395,0.005
2391,-0.365,0.025
2392,-0.350,0.035
2393,-0.335,0.055
2394,-0.345,0.040
2395,-0.370,0.035
2396,-0.395,0.035
2397,-0.400,0.050
2398,-0.370,0.075
2399,-0.315,0.065
2400,-0.270,0.065
2401,-0.200,0.030
2402,-0.080,-0.015
2403,0.060,-0.050
2404,0.225,-0.075
2405,0.385,-0.125
2406,0.545,-0.180
2407,0.625,-0.280
2408,0.615,-0.345
2409,0.500,-0.380
2410,0.365,-0.350
2411,0.200,-0.330
2412,-0.055,-0.320
2413,-0.415,-0.325
2414,-0.760,-0.275
2415,-0.980,-0.170
2416,-0.985,-0.080
2417,-0.855,-0.010
2418,-0.705,0.005
2419,-0.605,0.015
2420,-0.565,0.030
2421,-0.530,0.070
2422,-0.485,0.070
2423,-0.415,0.025
2424,-0.355,0.005
2425,-0.335,-0.025
2426,-0.325,-0.020
2427,-0.335,-0.015
2428,-0.320,0.005
2429,-0.320,0.015
2430,-0.295,-0.005
2431,-0.295,0.015
2432,-0.285,0.010
2433,-0.285,0.030
2434,-0.285,0.035
2435,-0.265,0.030
2436,-0.260,0.005
2437,-0.260,0.000
2438,-0.285,0.000
2439,-0.275,0.015
2440,-0.265,0.035
2441,-0.240,0.030
2442,-0.235,0.030
2443,-0.245,0.015
2444,-0.250,0.010
2445,-0.250,0.015
2446,-0.225,0.045
2447,-0.205,0.040
2448,-0.180,0.005
2449,-0.190,-0.010
2450,-0.180,-0.005
2451,-0.140,0.000
2452,-0.090,0.010
2453,-0.060,-0.005
2454,-0.060,-0.005
2455,-0.065,-0.015
2456,-0.060,-0.010
2457,-0.020,-0.010
2458,0.015,-0.010
2459,0.035,-0.010
2460,0.035,-0.035
2461,0.030,-0.050
2462,0.025,-0.050
2463,0.045,-0.035
2464,0.085,0.000
2465,0.100,0.000
2466,0.110,-0.020
2467,0.085,-0.045
2468,0.080,-0.050
2469,0.085,-0.045
2470,0.110,-0.010
2471,0.125,-0.005
2472,0.130,-0.015
2473,0.105,-0.035
2474,0.075,-0.040
2475,0.070,-0.020
2476,0.070,-0.015
2477,0.070,-0.025
2478,0.040,0.000
2479,0.010,0.000
2480,-0.010,0.015
2481,-0.025,0.045
2482,-0.035,0.090
2483,-0.050,0.095
2484,-0.095,0.100
2485,-0.120,0.065
2486,-0.120,0.045
2487,-0.120,0.055
2488,-0.120,0.045
2489,-0.175,0.030
2490,-0.250,0.035
2491,-0.290,0.020
2492,-0.300,0.045
2493,-0.280,0.060
2494,-0.265,0.055
2495,-0.250,0.055
2496,-0.270,0.045
2497,-0.295,0.035
2498,-0.305,0.025
2499,-0.310,0.045
2500,-0.285,0.080
2501,-0.275,0.090
2502,-0.280,0.085
2503,-0.280,0.050
2504,-0.305,0.030
2505,-0.320,0.035
2506,-0.320,0.045
2507,-0.315,0.055
2508,-0.290,0.035
2509,-0.305,0.020
2510,-0.310,0.010
2511,-0.325,0.050
2512,-0.325,0.070
2513,-0.315,0.050
2514,-0.325,0.045
2515,-0.340,0.040
2516,-0.340,0.045
2517,-0.325,0.050
2518,-0.305,0.075
2519,-0.265,0.080
2520,-0.265,0.065
2521,-0.280,0.075
2522,-0.295,0.075
2523,-0.275,0.080
2524,-0.265,0.095
2525,-0.255,0.115
2526,-0.255,0.115
2527,-0.260,0.090
2528,-0.260,0.060
2529,-0.255,0.055
2530,-0.215,0.060
2531,-0.190,0.090
2532,-0.190,0.065
2533,-0.225,0.045
2534,-0.250,0.030
2535,-0.255,0.035
2536,-0.250,0.055
2537,-0.250,0.035
2538,-0.275,0.010
2539,-0.305,-0.025
2540,-0.330,-0.010
2541,-0.330,-0.005
2542,-0.315,0.015
2543,-0.295,0.010
2544,-0.285,0.015
2545,-0.280,-0.010
2546,-0.285,0.005
2547,-0.310,0.015
2548,-0.330,0.045
2549,-0.340,0.055
2550,-0.335,0.065
2551,-0.360,0.030
2552,-0.340,0.025
2553,-0.325,0.015
2554,-0.315,0.000
2555,-0.295,-0.005
2556,-0.295,0.000
2557,-0.340,0.015
2558,-0.350,0.030
2559,-0.345,0.045
2560,-0.320,0.060
2561,-0.315,0.040
2562,-0.300,0.025
2563,-0.315,0.015
2564,-0.325,0.025
2565,-0.325,0.060
2566,-0.315,0.060
2567,-0.315,0.060
2568,-0.335,0.030
2569,-0.345,0.030
2570,-0.345,0.025
2571,-0.345,0.035
2572,-0.330,0.055
2573,-0.300,0.050
2574,-0.305,0.030
2575,-0.300,0.020
2576,-0.310,0.015
2577,-0.320,0.035
2578,-0.310,0.060
2579,-0.315,0.050
2580,-0.295,0.025
2581,-0.295,0.005
2582,-0.305,0.035
2583,-0.325,0.040
2584,-0.320,0.075
2585,-0.315,0.080
2586,-0.315,0.080
2587,-0.290,0.075
2588,-0.245,0.060
2589,-0.135,0.070
2590,0.010,0.035
2591,0.155,-0.035
2592,0.310,-0.150
2593,0.440,-0.225
2594,0.535,-0.265
2595,0.585,-0.315
2596,0.560,-0.350
2597,0.435,-0.350
2598,0.270,-0.325
2599,-0.030,-0.285
2600,-0.395,-0.255
2601,-0.720,-0.235
2602,-0.915,-0.185
2603,-0.945,-0.125
2604,-0.840,-0.070
2605,-0.735,-0.030
2606,-0.645,0.000
2607,-0.575,0.010
2608,-0.495,0.025
2609,-0.415,0.040
2610,-0.355,0.035
2611,-0.330,0.010
2612,-0.320,-0.015
2613,-0.300,-0.015
2614,-0.275,0.005
2615,-0.260,0.020
2616,-0.260,0.010
2617,-0.265,0.010
2618,-0.280,0.010
2619,-0.255,0.030
2620,-0.245,0.040
2621,-0.225,0.055
2622,-0.230,0.040
2623,-0.230,0.020
2624,-0.230,0.020
2625,-0.235,0.035
2626,-0.210,0.035
2627,-0.205,0.030
2628,-0.200,-0.010
2629,-0.200,-0.005
2630,-0.190,0.015
2631,-0.180,0.020
2632,-0.160,0.015
2633,-0.120,-0.010
2634,-0.125,-0.025
2635,-0.115,-0.020
2636,-0.110,-0.010
2637,-0.080,0.005
2638,-0.050,0.010
2639,-0.030,-0.010
2640,-0.025,-0.045
2641,-0.030,-0.065
2642,-0.020,-0.030
2643,0.005,-0.025
2644,0.030,-0.035
2645,0.070,-0.060
2646,0.080,-0.065
2647,0.090,-0.085
2648,0.080,-0.070
2649,0.115,-0.070
2650,0.130,-0.040
2651,0.145,-0.055
2652,0.110,-0.060
2653,0.080,-0.070
2654,0.105,-0.060
2655,0.120,-0.060
2656,0.145,-0.055
2657,0.165,-0.060
2658,0.170,-0.055
2659,0.145,-0.070
2660,0.145,-0.040
2661,0.150,-0.030
2662,0.150,-0.020
2663,0.170,-0.020
2664,0.160,-0.060
2665,0.110,-0.075
2666,0.095,-0.070
2667,0.070,-0.025
2668,0.070,-0.025
2669,0.055,-0.035
2670,0.035,-0.025
2671,0.000,-0.040
2672,-0.040,-0.010
2673,-0.075,0.025
2674,-0.080,0.060
2675,-0.085,0.055
2676,-0.120,0.030
2677,-0.140,0.010
2678,-0.160,0.000
2679,-0.180,-0.015
2680,-0.185,0.015
2681,-0.180,-0.010
2682,-0.180,-0.005
2683,-0.200,-0.025
2684,-0.225,-0.025
2685,-0.235,-0.015
2686,-0.215,0.000
2687,-0.190,0.000
2688,-0.220,0.000
2689,-0.260,-0.025
2690,-0.260,-0.005
2691,-0.255,0.035
2692,-0.250,0.055
2693,-0.235,0.030
2694,-0.240,0.005
2695,-0.255,-0.010
2696,-0.250,-0.005
2697,-0.255,0.015
2698,-0.240,0.025
2699,-0.230,0.010
2700,-0.225,-0.010
2701,-0.235,-0.015
2702,-0.260,0.000
2703,-0.280,0.000
2704,-0.280,0.040
2705,-0.285,0.075
2706,-0.275,0.095
2707,-0.275,0.080
2708,-0.260,0.030
2709,-0.230,0.025
2710,-0.225,0.030
2711,-0.210,0.020
2712,-0.200,0.005
2713,-0.205,-0.035
2714,-0.215,-0.025
2715,-0.215,0.000
2716,-0.195,0.020
2717,-0.175,0.065
2718,-0.155,0.045
2719,-0.170,0.025
2720,-0.165,0.015
2721,-0.155,0.025
2722,-0.125,0.030
2723,-0.125,0.000
2724,-0.140,-0.005
2725,-0.180,-0.030
2726,-0.210,-0.020
2727,-0.235,-0.040
2728,-0.230,-0.035
2729,-0.215,-0.040
2730,-0.225,-0.035
2731,-0.245,-0.040
2732,-0.255,-0.030
2733,-0.260,-0.020
2734,-0.260,0.010
2735,-0.235,-0.005
2736,-0.220,-0.015
2737,-0.255,-0.025
2738,-0.270,-0.010
2739,-0.270,0.020
2740,-0.275,0.020
2741,-0.280,0.015
2742,-0.260,0.000
2743,-0.275,-0.005
2744,-0.280,-0.010
2745,-0.265,0.010
2746,-0.270,0.010
2747,-0.255,0.020
2748,-0.260,0.005
2749,-0.275,-0.015
2750,-0.295,-0.015
2751,-0.285,-0.005
2752,-0.280,0.020
2753,-0.265,0.030
2754,-0.275,0.020
2755,-0.275,0.000
2756,-0.285,0.000
2757,-0.280,0.020
2758,-0.260,0.030
2759,-0.255,0.020
2760,-0.245,0.005
2761,-0.265,-0.020
2762,-0.285,-0.010
2763,-0.295,0.005
2764,-0.295,0.020
2765,-0.285,0.030
2766,-0.285,0.005
2767,-0.275,-0.010
2768,-0.290,-0.015
2769,-0.285,0.000
2770,-0.265,0.030
2771,-0.250,0.035
2772,-0.260,0.055
2773,-0.270,0.030
2774,-0.275,0.025
2775,-0.295,0.040
2776,-0.285,0.050
2777,-0.275,0.065
2778,-0.250,0.055
2779,-0.200,0.025
2780,-0.120,-0.020
2781,-0.010,-0.045
2782,0.115,-0.075
2783,0.235,-0.120
2784,0.375,-0.195
2785,0.480,-0.250
2786,0.535,-0.285
2787,0.570,-0.315
2788,0.580,-0.345
2789,0.520,-0.350
2790,0.385,-0.355
2791,0.175,-0.355
2792,-0.120,-0.310
2793,-0.425,-0.235
2794,-0.700,-0.185
2795,-0.840,-0.130
2796,-0.900,-0.085
2797,-0.830,-0.050
2798,-0.720,0.005
2799,-0.640,0.040
2800,-0.545,0.040
2801,-0.470,0.010
2802,-0.400,-0.025
2803,-0.350,-0.045
2804,-0.330,-0.035
2805,-0.300,-0.025
2806,-0.280,-0.010
2807,-0.265,-0.005
2808,-0.250,-0.025
2809,-0.250,-0.015
2810,-0.240,-0.015
2811,-0.240,0.020
2812,-0.215,0.010
2813,-0.190,-0.005
2814,-0.205,0.000
2815,-0.210,0.005
2816,-0.220,0.005
2817,-0.220,0.035
2818,-0.210,0.045
2819,-0.200,0.030
2820,-0.185,0.000
2821,-0.185,-0.030
2822,-0.180,-0.025
2823,-0.185,-0.005
2824,-0.150,0.015
2825,-0.130,0.010
2826,-0.115,-0.030
2827,-0.125,-0.040
2828,-0.130,-0.035
2829,-0.125,-0.020
2830,-0.095,-0.005
2831,-0.075,-0.005
2832,-0.055,-0.035
2833,-0.045,-0.055
2834,-0.035,-0.060
2835,-0.020,-0.030
2836,0.005,-0.040
2837,0.035,-0.045
2838,0.040,-0.050
2839,0.055,-0.050
2840,0.060,-0.030
2841,0.070,-0.040
2842,0.095,-0.045
2843,0.115,-0.070
2844,0.120,-0.075
2845,0.115,-0.065
2846,0.105,-0.050
2847,0.120,-0.035
2848,0.140,-0.025
2849,0.170,-0.060
2850,0.170,-0.080
2851,0.170,-0.085
2852,0.165,-0.085
2853,0.190,-0.055
2854,0.190,-0.045
2855,0.190,-0.060
2856,0.180,-0.080
2857,0.160,-0.095
2858,0.145,-0.085
2859,0.155,-0.060
2860,0.160,-0.035
2861,0.140,-0.020
2862,0.125,0.000
2863,0.090,-0.025
2864,0.065,-0.005
2865,0.045,-0.010
2866,0.030,-0.005
2867,0.035,-0.025
2868,0.025,-0.025
2869,-0.005,-0.025
2870,-0.055,-0.020
2871,-0.065,0.015
2872,-0.065,0.025
2873,-0.115,0.030
2874,-0.130,0.000
2875,-0.160,-0.010
2876,-0.170,0.000
2877,-0.170,0.020
2878,-0.160,0.045
2879,-0.160,0.045
2880,-0.175,0.030
2881,-0.210,0.005
2882,-0.220,0.010
2883,-0.225,0.015
2884,-0.220,0.015
2885,-0.220,0.010
2886,-0.225,0.005
2887,-0.245,-0.005
2888,-0.245,0.015
2889,-0.230,0.020
2890,-0.225,0.050
2891,-0.220,0.060
2892,-0.230,0.075
2893,-0.240,0.060
2894,-0.255,0.040
2895,-0.240,0.015
2896,-0.235,0.020
2897,-0.225,0.020
2898,-0.250,0.010
2899,-0.255,0.000
2900,-0.250,-0.005
2901,-0.240,0.010
2902,-0.225,0.025
2903,-0.210,0.035
2904,-0.215,0.065
2905,-0.220,0.055
2906,-0.225,0.045
2907,-0.215,0.050
2908,-0.195,0.060
2909,-0.180,0.070
2910,-0.180,0.055
2911,-0.185,0.035
2912,-0.210,0.060
2913,-0.205,0.075
2914,-0.195,0.080
2915,-0.185,0.055
2916,-0.155,0.055
2917,-0.145,0.030
2918,-0.145,0.020
2919,-0.135,0.050
2920,-0.135,0.045
2921,-0.100,0.055
2922,-0.120,0.025
2923,-0.150,0.010
2924,-0.175,0.025
2925,-0.190,0.015
2926,-0.180,0.025
2927,-0.155,-0.010
2928,-0.170,-0.040
2929,-0.185,-0.040
2930,-0.215,-0.035
2931,-0.215,-0.015
2932,-0.200,0.010
2933,-0.195,-0.005
2934,-0.200,-0.005
2935,-0.215,-0.030
2936,-0.210,-0.025
2937,-0.205,0.010
2938,-0.195,0.010
2939,-0.200,0.015
2940,-0.225,-0.010
2941,-0.255,-0.010
2942,-0.270,-0.010
2943,-0.265,0.010
2944,-0.245,0.050
2945,-0.235,0.060
2946,-0.255,0.035
2947,-0.255,-0.010
2948,-0.260,0.000
2949,-0.255,0.035
2950,-0.250,0.045
2951,-0.235,0.060
2952,-0.245,0.020
2953,-0.235,-0.010
2954,-0.240,-0.025
2955,-0.255,-0.030
2956,-0.240,-0.015
2957,-0.230,-0.015
2958,-0.235,-0.015
2959,-0.250,-0.020
2960,-0.255,-0.010
2961,-0.245,0.020
2962,-0.235,0.065
2963,-0.210,0.060
2964,-0.220,0.030
2965,-0.235,-0.010
2966,-0.250,-0.030
2967,-0.235,0.000
2968,-0.220,0.020
2969,-0.230,0.035
2970,-0.225,0.010
2971,-0.240,0.005
2972,-0.240,0.005
2973,-0.235,0.015
2974,-0.245,0.035
2975,-0.230,0.050
2976,-0.245,0.035
2977,-0.275,0.015
2978,-0.295,0.010
2979,-0.290,0.030
2980,-0.265,0.070
2981,-0.220,0.050
2982,-0.185,0.015
2983,-0.130,-0.045
2984,-0.045,-0.065
2985,0.055,-0.065
2986,0.175,-0.060
2987,0.305,-0.120
2988,0.420,-0.180
2989,0.485,-0.250
2990,0.535,-0.285
2991,0.585,-0.300
2992,0.600,-0.310
2993,0.555,-0.315
2994,0.425,-0.310
2995,0.225,-0.305
2996,-0.060,-0.270
2997,-0.345,-0.245
2998,-0.585,-0.195
2999,-0.760,-0.155
3000,-0.845,-0.125
3001,-0.830,-0.110
3002,-0.735,-0.055
3003,-0.625,-0.015
3004,-0.535,0.025
3005,-0.460,0.025
3006,-0.390,0.020
3007,-0.350,-0.005
3008,-0.315,-0.035
3009,-0.285,-0.030
3010,-0.250,0.000
3011,-0.240,-0.005
3012,-0.225,-0.020
3013,-0.240,-0.035
3014,-0.235,-0.025
3015,-0.220,0.005
3016,-0.190,0.010
3017,-0.175,0.000
3018,-0.190,-0.005
3019,-0.190,-0.015
3020,-0.195,-0.020
3021,-0.180,-0.010
3022,-0.155,-0.025
3023,-0.150,-0.030
3024,-0.160,-0.035
3025,-0.165,-0.025
3026,-0.170,0.005
3027,-0.150,0.035
3028,-0.130,0.055
3029,-0.110,0.050
3030,-0.105,0.005
3031,-0.105,-0.050
3032,-0.100,-0.075
3033,-0.090,-0.070
3034,-0.075,-0.045
3035,-0.050,-0.040
3036,-0.040,-0.030
3037,-0.050,-0.055
3038,-0.030,-0.040
3039,-0.010,-0.035
3040,0.015,-0.035
3041,0.040,-0.065
3042,0.050,-0.080
3043,0.050,-0.075
3044,0.065,-0.060
3045,0.085,-0.045
3046,0.115,-0.030
3047,0.135,-0.065
3048,0.140,-0.115
3049,0.145,-0.140
3050,0.145,-0.115
3051,0.160,-0.110
3052,0.180,-0.090
3053,0.195,-0.100
3054,0.210,-0.105
3055,0.200,-0.105
3056,0.185,-0.105
3057,0.200,-0.105
3058,0.225,-0.080
3059,0.230,-0.070
3060,0.220,-0.080
3061,0.210,-0.100
3062,0.195,-0.105
3063,0.195,-0.080
3064,0.215,-0.075
3065,0.225,-0.085
3066,0.215,-0.085
3067,0.195,-0.085
3068,0.175,-0.070
3069,0.160,-0.055
3070,0.160,-0.025
3071,0.135,-0.040
3072,0.120,-0.050
3073,0.085,-0.065
3074,0.065,-0.065
3075,0.050,-0.040
3076,0.050,-0.035
3077,0.020,-0.055
3078,0.000,-0.055
3079,-0.040,-0.040
3080,-0.070,-0.030
3081,-0.090,-0.005
3082,-0.100,0.025
3083,-0.090,0.030
3084,-0.110,0.020
3085,-0.130,-0.015
3086,-0.155,-0.030
3087,-0.150,-0.015
3088,-0.140,0.015
3089,-0.140,-0.005
3090,-0.155,-0.045
3091,-0.165,-0.050
3092,-0.190,-0.025
3093,-0.190,-0.005
3094,-0.165,0.005
3095,-0.165,-0.015
3096,-0.175,-0.025
3097,-0.205,-0.035
3098,-0.200,-0.015
3099,-0.195,-0.010
3100,-0.175,0.000
3101,-0.170,-0.020
3102,-0.165,-0.030
3103,-0.190,-0.025
3104,-0.215,-0.020
3105,-0.205,0.010
3106,-0.180,-0.010
3107,-0.155,-0.015
3108,-0.165,-0.020
3109,-0.180,-0.025
3110,-0.195,-0.020
3111,-0.195,0.005
3112,-0.175,0.010
3113,-0.170,0.010
3114,-0.160,0.000
3115,-0.165,-0.035
3116,-0.170,-0.050
3117,-0.145,-0.005
3118,-0.125,0.020
3119,-0.145,0.005
3120,-0.140,-0.015
3121,-0.160,-0.030
3122,-0.150,-0.005
3123,-0.140,0.010
3124,-0.105,0.035
3125,-0.075,0.060
3126,-0.070,0.035
3127,-0.090,0.010
3128,-0.100,-0.005
3129,-0.095,0.010
3130,-0.090,0.000
3131,-0.085,-0.030
3132,-0.095,-0.050
3133,-0.120,-0.090
3134,-0.150,-0.070
3135,-0.145,-0.045
3136,-0.130,-0.020
3137,-0.140,-0.025
3138,-0.140,-0.030
3139,-0.155,-0.030
3140,-0.175,-0.020
3141,-0.180,0.015
3142,-0.165,0.030
3143,-0.150,0.005
3144,-0.150,-0.045
3145,-0.150,-0.080
3146,-0.160,-0.060
3147,-0.185,-0.030
3148,-0.160,-0.010
3149,-0.150,-0.010
3150,-0.155,-0.025
3151,-0.160,-0.060
3152,-0.185,-0.055
3153,-0.170,-0.050
3154,-0.175,-0.015
3155,-0.155,-0.015
3156,-0.160,-0.030
3157,-0.180,-0.060
3158,-0.180,-0.070
3159,-0.175,-0.065
3160,-0.160,-0.050
3161,-0.130,-0.040
3162,-0.145,-0.060
3163,-0.165,-0.055
3164,-0.165,-0.035
3165,-0.150,-0.005
3166,-0.140,-0.005
3167,-0.140,0.010
3168,-0.145,-0.025
3169,-0.155,-0.060
3170,-0.175,-0.065
3171,-0.160,-0.090
3172,-0.145,-0.055
3173,-0.130,-0.040
3174,-0.135,-0.045
3175,-0.155,-0.035
3176,-0.160,-0.045
3177,-0.150,-0.030
3178,-0.130,-0.035
3179,-0.125,-0.050
3180,-0.140,-0.065
3181,-0.150,-0.060
3182,-0.170,-0.050
3183,-0.160,-0.045
3184,-0.130,-0.025
3185,-0.135,-0.015
3186,-0.160,-0.040
3187,-0.190,-0.020
3188,-0.220,0.010
3189,-0.190,0.065
3190,-0.105,0.075
3191,0.020,0.045
3192,0.160,-0.035
3193,0.280,-0.145
3194,0.410,-0.195
3195,0.555,-0.220
3196,0.695,-0.215
3197,0.795,-0.250
3198,0.875,-0.330
3199,0.925,-0.420
3200,0.925,-0.470
3201,0.865,-0.490
3202,0.755,-0.465
3203,0.595,-0.475
3204,0.315,-0.455
3205,-0.010,-0.415
3206,-0.315,-0.370
3207,-0.555,-0.320
3208,-0.700,-0.245
3209,-0.730,-0.185
3210,-0.680,-0.105
3211,-0.610,-0.060
3212,-0.525,-0.030
3213,-0.430,-0.015
3214,-0.330,-0.005
3215,-0.255,-0.035
3216,-0.225,-0.050
3217,-0.205,-0.050
3218,-0.195,-0.045
3219,-0.175,-0.020
3220,-0.140,-0.010
3221,-0.120,-0.010
3222,-0.115,-0.015
3223,-0.130,-0.025
3224,-0.125,-0.025
3225,-0.115,-0.015
3226,-0.095,-0.005
3227,-0.090,0.000
3228,-0.085,-0.015
3229,-0.095,-0.050
3230,-0.105,-0.040
3231,-0.100,-0.010
3232,-0.100,0.035
3233,-0.080,0.025
3234,-0.080,0.010
3235,-0.080,-0.035
3236,-0.085,-0.055
3237,-0.055,-0.045
3238,-0.045,-0.020
3239,-0.025,-0.030
3240,-0.025,-0.065
3241,-0.020,-0.060
3242,-0.010,-0.065
3243,-0.005,-0.055
3244,0.020,-0.030
3245,0.035,-0.040
3246,0.040,-0.035
3247,0.035,-0.060
3248,0.030,-0.070
3249,0.060,-0.070
3250,0.090,-0.045
3251,0.110,-0.050
3252,0.120,-0.065
3253,0.125,-0.080
3254,0.135,-0.075
3255,0.155,-0.060
3256,0.185,-0.040
3257,0.210,-0.050
3258,0.215,-0.035
3259,0.200,-0.050
3260,0.215,-0.060
3261,0.235,-0.090
3262,0.250,-0.080
3263,0.280,-0.075
3264,0.285,-0.100
3265,0.285,-0.125
3266,0.275,-0.135
3267,0.280,-0.125
3268,0.310,-0.110
3269,0.325,-0.110
3270,0.325,-0.110
3271,0.305,-0.130
3272,0.285,-0.125
3273,0.295,-0.100
3274,0.295,-0.080
3275,0.300,-0.075
3276,0.285,-0.090
3277,0.250,-0.105
3278,0.235,-0.110
3279,0.230,-0.105
3280,0.210,-0.065
3281,0.190,-0.035
3282,0.165,-0.050
3283,0.130,-0.035
3284,0.100,-0.045
3285,0.090,-0.040
3286,0.075,-0.025
3287,0.070,-0.015
3288,0.040,-0.030
3289,0.025,-0.025
3290,-0.005,-0.005
3291,-0.020,0.010
3292,-0.015,0.015
3293,-0.025,0.015
3294,-0.050,-0.010
3295,-0.055,-0.015
3296,-0.070,-0.005
3297,-0.070,-0.015
3298,-0.055,-0.010
3299,-0.050,-0.005
3300,-0.065,-0.030
3301,-0.085,-0.035
3302,-0.120,-0.005
3303,-0.110,0.000
3304,-0.105,0.025
3305,-0.090,0.015
3306,-0.105,0.000
3307,-0.130,-0.010
3308,-0.115,0.005
3309,-0.120,0.015
3310,-0.100,0.055
3311,-0.100,0.050
3312,-0.105,0.010
3313,-0.125,-0.035
3314,-0.120,-0.045
3315,-0.110,-0.010
3316,-0.085,0.030
3317,-0.070,0.025
3318,-0.070,0.005
3319,-0.075,-0.005
3320,-0.075,0.005
3321,-0.085,0.050
3322,-0.070,0.110
3323,-0.055,0.090
3324,-0.050,0.060
3325,-0.070,0.040
3326,-0.075,0.045
3327,-0.055,0.045
3328,-0.020,0.060
3329,0.005,0.065
3330,0.005,0.050
3331,-0.015,0.030
3332,-0.020,0.015
3333,-0.020,-0.005
3334,-0.040,-0.005
3335,-0.050,-0.020
3336,-0.065,-0.035
3337,-0.075,-0.025
3338,-0.105,-0.045
3339,-0.105,-0.005
3340,-0.085,0.025
3341,-0.070,-0.005
3342,-0.080,-0.020
3343,-0.110,-0.040
3344,-0.140,-0.035
3345,-0.130,-0.005
3346,-0.115,0.025
3347,-0.095,0.035
3348,-0.110,0.030
3349,-0.145,0.020
3350,-0.175,0.020
3351,-0.190,0.005
3352,-0.195,0.020
3353,-0.185,0.040
3354,-0.180,0.045
3355,-0.180,0.025
3356,-0.190,0.000
3357,-0.180,0.000
3358,-0.150,0.005
3359,-0.135,-0.025
3360,-0.135,-0.035
3361,-0.150,-0.035
3362,-0.170,-0.030
3363,-0.180,-0.010
3364,-0.160,0.005
3365,-0.155,-0.005
3366,-0.160,0.015
3367,-0.180,0.035
3368,-0.210,0.055
3369,-0.205,0.075
3370,-0.180,0.060
3371,-0.160,0.030
3372,-0.155,-0.015
3373,-0.165,-0.005
3374,-0.155,-0.015
3375,-0.155,-0.030
3376,-0.150,-0.055
3377,-0.155,-0.080
3378,-0.155,-0.065
3379,-0.180,-0.040
3380,-0.170,-0.005
3381,-0.165,0.025
3382,-0.150,0.020
3383,-0.135,0.015
3384,-0.160,0.025
3385,-0.190,0.020
3386,-0.190,0.025
3387,-0.190,0.030
3388,-0.170,0.035
3389,-0.165,0.050
3390,-0.155,0.060
3391,-0.135,0.040
3392,-0.075,0.015
3393,0.050,0.015
3394,0.190,-0.025
3395,0.315,-0.045
3396,0.440,-0.095
3397,0.580,-0.170
3398,0.685,-0.245
3399,0.750,-0.300
3400,0.795,-0.355
3401,0.770,-0.395
3402,0.640,-0.405
3403,0.475,-0.430
3404,0.225,-0.455
3405,-0.105,-0.390
3406,-0.450,-0.260
3407,-0.715,-0.180
3408,-0.825,-0.115
3409,-0.780,-0.070
3410,-0.655,-0.060
3411,-0.540,-0.065
3412,-0.460,-0.075
3413,-0.375,-0.040
3414,-0.315,-0.030
3415,-0.265,-0.035
3416,-0.210,-0.055
3417,-0.185,-0.045
3418,-0.165,0.010
3419,-0.175,0.030
3420,-0.160,0.040
3421,-0.140,0.000
3422,-0.160,0.010
3423,-0.150,-0.005
3424,-0.155,-0.015
3425,-0.145,-0.015
3426,-0.150,-0.020
3427,-0.145,0.010
3428,-0.155,0.000
3429,-0.135,0.025
3430,-0.110,0.030
3431,-0.085,0.030
3432,-0.070,0.025
3433,-0.085,0.010
3434,-0.070,-0.025
3435,-0.060,-0.065
3436,-0.050,-0.045
3437,-0.050,-0.025
3438,-0.070,-0.015
3439,-0.080,-0.035
3440,-0.080,-0.055
3441,-0.060,-0.050
3442,-0.020,-0.030
3443,0.010,-0.025
3444,0.005,-0.015
3445,0.005,-0.025
3446,0.010,-0.040
3447,0.050,-0.030
3448,0.070,-0.010
3449,0.105,-0.025
3450,0.110,-0.045
3451,0.105,-0.075
3452,0.105,-0.055
3453,0.115,0.000
3454,0.130,0.035
3455,0.165,-0.020
3456,0.200,-0.115
3457,0.200,-0.155
3458,0.185,-0.135
3459,0.195,-0.080
3460,0.215,-0.045
3461,0.210,-0.060
3462,0.225,-0.065
3463,0.230,-0.060
3464,0.225,-0.060
3465,0.235,-0.075
3466,0.265,-0.110
3467,0.280,-0.135
3468,0.260,-0.145
3469,0.235,-0.110
3470,0.220,-0.065
3471,0.220,-0.030
3472,0.225,0.000
3473,0.260,-0.015
3474,0.250,-0.085
3475,0.220,-0.160
3476,0.210,-0.155
3477,0.200,-0.105
3478,0.185,-0.070
3479,0.140,-0.040
3480,0.100,-0.025
3481,0.070,-0.040
3482,0.040,-0.045
3483,0.005,-0.040
3484,0.015,-0.030
3485,0.005,-0.040
3486,-0.020,-0.050
3487,-0.050,-0.060
3488,-0.065,-0.045
3489,-0.075,-0.015
3490,-0.080,0.000
3491,-0.085,0.000
3492,-0.090,0.025
3493,-0.140,0.040
3494,-0.180,0.095
3495,-0.180,0.125
3496,-0.160,0.125
3497,-0.130,0.045
3498,-0.120,-0.035
3499,-0.125,-0.080
3500,-0.160,-0.075
3501,-0.180,-0.035
3502,-0.180,0.000
3503,-0.175,0.035
3504,-0.180,0.040
3505,-0.195,0.025
3506,-0.190,0.020
3507,-0.220,0.030
3508,-0.200,0.050
3509,-0.195,0.030
3510,-0.190,-0.025
3511,-0.180,-0.060
3512,-0.190,-0.055
3513,-0.200,-0.040
3514,-0.190,-0.010
3515,-0.190,-0.035
3516,-0.195,-0.035
3517,-0.205,-0.040
3518,-0.215,-0.015
3519,-0.215,-0.010
3520,-0.190,0.020
3521,-0.180,0.010
3522,-0.170,-0.025
3523,-0.190,-0.020
3524,-0.210,-0.005
3525,-0.190,0.020
3526,-0.160,0.015
3527,-0.160,-0.010
3528,-0.155,-0.005
3529,-0.175,0.005
3530,-0.180,0.020
3531,-0.180,0.050
3532,-0.185,0.060
3533,-0.165,0.050
3534,-0.150,0.015
3535,-0.145,-0.030
3536,-0.135,-0.035
3537,-0.115,-0.010
3538,-0.095,0.010
3539,-0.105,-0.010
3540,-0.105,0.005
3541,-0.130,0.010
3542,-0.155,-0.010
3543,-0.175,-0.020
3544,-0.160,-0.030
3545,-0.165,-0.060
3546,-0.180,-0.070
3547,-0.205,-0.070
3548,-0.240,-0.065
3549,-0.225,-0.060
3550,-0.200,-0.035
3551,-0.175,-0.005
3552,-0.210,0.005
3553,-0.230,-0.005
3554,-0.220,-0.005
3555,-0.185,0.000
3556,-0.205,0.035
3557,-0.220,0.030
3558,-0.235,-0.015
3559,-0.255,-0.060
3560,-0.260,-0.065
3561,-0.250,-0.035
3562,-0.240,-0.020
3563,-0.215,-0.030
3564,-0.220,-0.045
3565,-0.240,-0.050
3566,-0.245,-0.025
3567,-0.245,-0.030
3568,-0.235,-0.020
3569,-0.215,-0.035
3570,-0.225,-0.030
3571,-0.240,-0.020
3572,-0.250,-0.020
3573,-0.250,-0.005
3574,-0.250,0.035
3575,-0.245,0.045
3576,-0.260,0.030
3577,-0.280,-0.015
3578,-0.260,-0.070
3579,-0.230,-0.080
3580,-0.225,-0.045
3581,-0.240,0.010
3582,-0.245,-0.005
3583,-0.250,-0.020
3584,-0.265,-0.040
3585,-0.240,-0.020
3586,-0.230,0.005
3587,-0.255,-0.005
3588,-0.255,-0.015
3589,-0.265,-0.035
3590,-0.280,-0.045
3591,-0.270,-0.040
3592,-0.245,0.005
3593,-0.255,0.025
3594,-0.275,0.040
3595,-0.285,0.030
3596,-0.280,0.040
3597,-0.245,0.040
3598,-0.175,0.030
3599,-0.070,-0.025
3600,0.045,-0.070
3601,0.145,-0.170
3602,0.275,-0.225
3603,0.405,-0.255
3604,0.530,-0.260
3605,0.620,-0.310
3606,0.680,-0.370
3607,0.660,-0.430
3608,0.545,-0.435
3609,0.360,-0.415
3610,0.115,-0.355
3611,-0.180,-0.305
3612,-0.500,-0.285
3613,-0.755,-0.285
3614,-0.890,-0.230
3615,-0.880,-0.165
3616,-0.760,-0.085
3617,-0.635,-0.040
3618,-0.550,-0.025
3619,-0.490,-0.025
3620,-0.440,-0.030
3621,-0.380,-0.025
3622,-0.340,-0.010
3623,-0.305,-0.015
3624,-0.275,-0.030
3625,-0.255,-0.050
3626,-0.230,-0.060
3627,-0.230,-0.035
3628,-0.210,-0.015
3629,-0.215,-0.035
3630,-0.220,-0.070
3631,-0.240,-0.080
3632,-0.245,-0.045
3633,-0.235,-0.005
3634,-0.200,0.035
3635,-0.175,-0.005
3636,-0.175,-0.020
3637,-0.185,-0.035
3638,-0.185,-0.030
3639,-0.155,-0.030
3640,-0.140,-0.035
3641,-0.130,-0.080
3642,-0.125,-0.105
3643,-0.150,-0.110
3644,-0.115,-0.085
3645,-0.085,-0.045
3646,-0.055,-0.030
3647,-0.055,-0.045
3648,-0.050,-0.060
3649,-0.035,-0.070
3650,-0.020,-0.055
3651,-0.010,-0.050
3652,0.030,-0.030
3653,0.030,-0.055
3654,0.040,-0.075
3655,0.040,-0.090
3656,0.050,-0.095
3657,0.080,-0.080
3658,0.115,-0.055
3659,0.135,-0.025
3660,0.140,-0.025
3661,0.145,-0.055
3662,0.150,-0.080
3663,0.175,-0.085
3664,0.185,-0.065
3665,0.200,-0.045
3666,0.185,-0.045
3667,0.185,-0.090
3668,0.195,-0.130
3669,0.220,-0.100
3670,0.230,-0.070
3671,0.215,-0.080
3672,0.200,-0.080
3673,0.190,-0.080
3674,0.170,-0.040
3675,0.165,-0.010
3676,0.165,0.020
3677,0.165,-0.020
3678,0.160,-0.075
3679,0.140,-0.140
3680,0.115,-0.130
3681,0.100,-0.075
3682,0.085,-0.020
3683,0.055,-0.010
3684,0.030,-0.015
3685,-0.025,-0.030
3686,-0.055,-0.015
3687,-0.060,0.005
3688,-0.040,0.050
3689,-0.060,0.025
3690,-0.090,-0.010
3691,-0.105,-0.035
3692,-0.125,-0.040
3693,-0.140,-0.015
3694,-0.130,-0.015
3695,-0.140,-0.005
3696,-0.155,0.000
3697,-0.185,0.000
3698,-0.185,0.005
3699,-0.185,0.035
3700,-0.185,0.035
3701,-0.180,0.010
3702,-0.180,-0.020
3703,-0.185,-0.015
3704,-0.200,-0.025
3705,-0.210,-0.005
3706,-0.185,0.030
3707,-0.180,0.030
3708,-0.195,0.020
3709,-0.215,0.015
3710,-0.215,0.025
3711,-0.210,0.060
3712,-0.195,0.075
3713,-0.190,0.045
3714,-0.200,0.035
3715,-0.215,0.040
3716,-0.220,0.050
3717,-0.200,0.070
3718,-0.170,0.055
3719,-0.155,0.040
3720,-0.155,0.025
3721,-0.180,0.040
3722,-0.185,0.050
3723,-0.185,0.085
3724,-0.155,0.115
3725,-0.130,0.115
3726,-0.130,0.090
3727,-0.125,0.075
3728,-0.135,0.050
3729,-0.115,0.010
3730,-0.090,-0.020
3731,-0.085,-0.015
3732,-0.115,0.000
3733,-0.160,-0.005
3734,-0.185,0.005
3735,-0.190,0.040
3736,-0.180,0.080
3737,-0.185,0.085
3738,-0.195,0.065
3739,-0.210,0.080
3740,-0.210,0.085
3741,-0.205,0.060
3742,-0.190,0.020
3743,-0.190,0.010
3744,-0.195,0.030
3745,-0.230,0.070
3746,-0.250,0.075
3747,-0.250,0.045
3748,-0.220,0.020
3749,-0.205,0.030
3750,-0.225,0.025
3751,-0.230,0.030
3752,-0.245,0.055
3753,-0.245,0.095
3754,-0.225,0.090
3755,-0.220,0.075
3756,-0.220,0.005
3757,-0.230,-0.020
3758,-0.240,0.005
3759,-0.235,0.050
3760,-0.210,0.075
3761,-0.190,0.060
3762,-0.185,0.045
3763,-0.180,0.020
3764,-0.195,0.015
3765,-0.215,0.035
3766,-0.210,0.050
3767,-0.220,0.030
3768,-0.225,0.020
3769,-0.240,0.035
3770,-0.260,0.050
3771,-0.245,0.075
3772,-0.230,0.110
3773,-0.220,0.105
3774,-0.220,0.050
3775,-0.220,0.025
3776,-0.230,0.035
3777,-0.215,0.095
3778,-0.210,0.110
3779,-0.210,0.070
3780,-0.230,0.060
3781,-0.245,0.090
3782,-0.200,0.140
3783,-0.095,0.140
3784,0.070,0.070
3785,0.215,-0.025
3786,0.360,-0.090
3787,0.495,-0.130
3788,0.615,-0.180
3789,0.710,-0.235
3790,0.775,-0.285
3791,0.750,-0.345
3792,0.610,-0.390
3793,0.410,-0.405
3794,0.125,-0.370
3795,-0.240,-0.275
3796,-0.575,-0.195
3797,-0.810,-0.135
3798,-0.880,-0.095
3799,-0.810,-0.020
3800,-0.675,0.060
3801,-0.545,0.090
3802,-0.440,0.095
3803,-0.355,0.070
3804,-0.300,0.030
3805,-0.260,0.005
3806,-0.260,0.000
3807,-0.240,0.035
3808,-0.200,0.060
3809,-0.195,0.065
3810,-0.190,0.040
3811,-0.195,0.025
3812,-0.195,0.040
3813,-0.175,0.070
3814,-0.155,0.090
3815,-0.145,0.105
3816,-0.155,0.100
3817,-0.170,0.080
3818,-0.160,0.085
3819,-0.150,0.100
3820,-0.120,0.125
3821,-0.095,0.130
3822,-0.110,0.110
3823,-0.110,0.080
3824,-0.095,0.065
3825,-0.095,0.100
3826,-0.075,0.135
3827,-0.055,0.130
3828,-0.030,0.085
3829,-0.030,0.045
3830,-0.020,0.005
3831,0.015,0.015
3832,0.040,0.035
3833,0.050,0.030
3834,0.040,0.050
3835,0.040,0.045
3836,0.055,0.050
3837,0.100,0.065
3838,0.125,0.070
3839,0.150,0.045
3840,0.165,0.015
3841,0.185,0.005
3842,0.170,0.000
3843,0.175,0.030
3844,0.195,0.030
3845,0.215,0.015
3846,0.235,-0.005
3847,0.230,-0.015
3848,0.220,0.005
3849,0.230,0.020
3850,0.255,0.035
3851,0.270,0.035
3852,0.240,0.040
3853,0.195,0.035
3854,0.190,0.020
3855,0.215,0.035
3856,0.225,0.035
3857,0.215,0.010
3858,0.180,0.010
3859,0.145,0.020
3860,0.145,0.035
3861,0.140,0.045
3862,0.125,0.065
3863,0.095,0.075
3864,0.050,0.075
3865,0.005,0.065
3866,-0.005,0.055
3867,-0.015,0.050
3868,-0.025,0.070
3869,-0.030,0.065
3870,-0.070,0.075
3871,-0.110,0.075
3872,-0.125,0.100
3873,-0.115,0.125
3874,-0.115,0.125
3875,-0.125,0.135
3876,-0.140,0.085
3877,-0.170,0.090
3878,-0.165,0.095
3879,-0.160,0.085
3880,-0.170,0.125
3881,-0.185,0.120
3882,-0.190,0.115
3883,-0.185,0.100
3884,-0.185,0.100
3885,-0.180,0.115
3886,-0.160,0.135
3887,-0.155,0.105
3888,-0.165,0.080
3889,-0.190,0.065
3890,-0.180,0.090
3891,-0.180,0.100
3892,-0.190,0.115
3893,-0.195,0.110
3894,-0.190,0.095
3895,-0.200,0.100
3896,-0.205,0.115
3897,-0.190,0.130
3898,-0.160,0.135
3899,-0.155,0.115
3900,-0.165,0.135
3901,-0.170,0.150
3902,-0.165,0.140
3903,-0.155,0.145
3904,-0.125,0.145
3905,-0.115,0.150
3906,-0.135,0.155
3907,-0.135,0.160
3908,-0.125,0.165
3909,-0.100,0.170
3910,-0.070,0.180
3911,-0.050,0.155
3912,-0.055,0.135
3913,-0.090,0.120
3914,-0.120,0.110
3915,-0.130,0.115
3916,-0.145,0.140
3917,-0.150,0.125
3918,-0.190,0.085
3919,-0.210,0.065
3920,-0.205,0.060
3921,-0.195,0.105
3922,-0.170,0.105
3923,-0.160,0.095
3924,-0.160,0.090
3925,-0.165,0.085
3926,-0.180,0.075
3927,-0.195,0.075
3928,-0.185,0.095
3929,-0.190,0.105
3930,-0.210,0.075
3931,-0.225,0.050
3932,-0.230,0.060
3933,-0.235,0.085
3934,-0.225,0.120
3935,-0.235,0.115
3936,-0.240,0.110
3937,-0.250,0.065
3938,-0.235,0.090
3939,-0.210,0.110
3940,-0.210,0.125
3941,-0.210,0.100
3942,-0.215,0.070
3943,-0.230,0.070
3944,-0.235,0.090
3945,-0.225,0.115
3946,-0.200,0.145
3947,-0.175,0.135
3948,-0.190,0.115
3949,-0.210,0.075
3950,-0.205,0.065
3951,-0.180,0.090
3952,-0.180,0.095
3953,-0.190,0.135
3954,-0.210,0.140
3955,-0.240,0.110
3956,-0.245,0.070
3957,-0.255,0.045
3958,-0.240,0.080
3959,-0.230,0.095
3960,-0.240,0.100
3961,-0.250,0.100
3962,-0.260,0.100
3963,-0.265,0.165
3964,-0.245,0.205
3965,-0.190,0.170
3966,-0.085,0.105
3967,0.025,0.030
3968,0.155,-0.005
3969,0.310,-0.075
3970,0.470,-0.120
3971,0.595,-0.190
3972,0.650,-0.270
3973,0.645,-0.315
3974,0.570,-0.330
3975,0.435,-0.305
3976,0.260,-0.275
3977,-0.020,-0.240
3978,-0.365,-0.165
3979,-0.685,-0.140
3980,-0.870,-0.115
3981,-0.885,-0.060
3982,-0.750,0.050
3983,-0.610,0.130
3984,-0.515,0.130
3985,-0.455,0.065
3986,-0.390,0.075
3987,-0.300,0.045
3988,-0.240,0.055
3989,-0.225,0.065
3990,-0.220,0.075
3991,-0.220,0.055
3992,-0.210,0.060
3993,-0.190,0.070
3994,-0.175,0.110
3995,-0.160,0.110
3996,-0.180,0.085
3997,-0.185,0.055
3998,-0.190,0.035
3999,-0.175,0.060
4000,-0.150,0.075
4001,-0.115,0.080
4002,-0.115,0.060
4003,-0.125,0.035
4004,-0.130,0.020
4005,-0.105,0.025
4006,-0.090,0.060
4007,-0.070,0.075
4008,-0.065,0.060
4009,-0.080,0.045
4010,-0.075,0.050
4011,-0.055,0.090
4012,-0.040,0.105
4013,-0.015,0.100
4014,-0.005,0.065
4015,0.005,0.030
4016,0.015,-0.010
4017,0.050,0.015
4018,0.080,0.035
4019,0.105,0.025
4020,0.120,0.015
4021,0.120,-0.005
4022,0.130,0.010
4023,0.155,-0.005
4024,0.190,0.015
4025,0.190,0.050
4026,0.175,0.055
4027,0.185,0.010
4028,0.190,-0.050
4029,0.215,-0.065
4030,0.245,-0.035
4031,0.235,-0.005
4032,0.230,-0.005
4033,0.205,-0.015
4034,0.205,-0.030
4035,0.225,-0.025
4036,0.235,0.005
4037,0.235,-0.015
4038,0.200,-0.050
4039,0.155,-0.015
4040,0.115,0.020
4041,0.095,0.045
4042,0.095,0.040
4043,0.090,0.050
4044,0.075,0.045
4045,0.035,0.070
4046,0.010,0.095
4047,-0.020,0.085
4048,-0.035,0.055
4049,-0.050,0.045
4050,-0.080,0.060
4051,-0.105,0.080
4052,-0.115,0.075
4053,-0.125,0.070
4054,-0.135,0.075
4055,-0.145,0.075
4056,-0.150,0.070
4057,-0.200,0.080
4058,-0.235,0.105
4059,-0.225,0.125
4060,-0.205,0.145
4061,-0.185,0.090
4062,-0.185,0.025
4063,-0.195,-0.010
4064,-0.205,0.035
4065,-0.205,0.055
4066,-0.180,0.070
4067,-0.180,0.070
4068,-0.185,0.095
4069,-0.215,0.095
4070,-0.220,0.070
4071,-0.210,0.035
4072,-0.165,0.025
4073,-0.160,0.040
4074,-0.170,0.035
4075,-0.185,0.025
4076,-0.185,0.030
4077,-0.190,0.055
4078,-0.190,0.075
4079,-0.200,0.065
4080,-0.190,0.045
4081,-0.190,0.045
4082,-0.195,0.075
4083,-0.175,0.110
4084,-0.160,0.135
4085,-0.170,0.160
4086,-0.185,0.180
4087,-0.175,0.160
4088,-0.155,0.105
4089,-0.125,0.055
4090,-0.090,0.035
4091,-0.110,0.050
4092,-0.110,0.080
4093,-0.125,0.085
4094,-0.135,0.095
4095,-0.135,0.075
4096,-0.140,0.055
4097,-0.140,0.035
4098,-0.135,-0.025
4099,-0.125,-0.075
4100,-0.155,-0.100
4101,-0.195,-0.055
4102,-0.215,-0.010
4103,-0.215,0.020
4104,-0.195,0.030
4105,-0.200,0.020
4106,-0.185,-0.015
4107,-0.175,-0.025
4108,-0.185,-0.020
4109,-0.205,-0.020
4110,-0.215,-0.005
4111,-0.235,-0.030
4112,-0.235,-0.035
4113,-0.220,-0.025
4114,-0.225,-0.015
4115,-0.230,0.000
4116,-0.245,-0.020
4117,-0.255,-0.025
4118,-0.260,-0.025
4119,-0.265,0.015
4120,-0.255,0.025
4121,-0.235,0.010
4122,-0.240,0.000
4123,-0.270,-0.030
4124,-0.270,-0.060
4125,-0.250,-0.070
4126,-0.235,-0.025
4127,-0.230,0.015
4128,-0.250,0.015
4129,-0.270,-0.010
4130,-0.270,-0.035
4131,-0.250,-0.055
4132,-0.240,-0.050
4133,-0.225,-0.030
4134,-0.225,-0.045
4135,-0.240,-0.080
4136,-0.235,-0.110
4137,-0.235,-0.070
4138,-0.235,-0.050
4139,-0.225,-0.080
4140,-0.235,-0.095
4141,-0.250,-0.115
4142,-0.260,-0.085
4143,-0.250,-0.070
4144,-0.235,-0.040
4145,-0.230,-0.015
4146,-0.220,0.000
4147,-0.150,-0.030
4148,-0.040,-0.075
4149,0.080,-0.110
4150,0.205,-0.140
4151,0.335,-0.210
4152,0.440,-0.315
4153,0.510,-0.425
4154,0.545,-0.505
4155,0.525,-0.535
4156,0.450,-0.495
4157,0.325,-0.445
4158,0.070,-0.430
4159,-0.225,-0.420
4160,-0.515,-0.350
4161,-0.735,-0.265
4162,-0.830,-0.190
4163,-0.775,-0.120
4164,-0.660,-0.100
4165,-0.565,-0.095
4166,-0.490,-0.075
4167,-0.415,-0.075
4168,-0.355,-0.135
4169,-0.320,-0.160
4170,-0.275,-0.145
4171,-0.270,-0.115
4172,-0.245,-0.110
4173,-0.230,-0.085
4174,-0.215,-0.090
4175,-0.225,-0.110
4176,-0.230,-0.125
4177,-0.235,-0.125
4178,-0.225,-0.110
4179,-0.200,-0.100
4180,-0.165,-0.105
4181,-0.160,-0.130
4182,-0.145,-0.135
4183,-0.165,-0.145
4184,-0.165,-0.120
4185,-0.165,-0.135
4186,-0.145,-0.115
4187,-0.135,-0.100
4188,-0.130,-0.090
4189,-0.110,-0.110
4190,-0.110,-0.140
4191,-0.080,-0.180
4192,-0.065,-0.155
4193,-0.050,-0.170
4194,-0.050,-0.165
4195,-0.045,-0.195
4196,-0.045,-0.210
4197,0.000,-0.220
4198,0.035,-0.185
4199,0.070,-0.140
4200,0.065,-0.100
4201,0.065,-0.100
4202,0.095,-0.125
4203,0.120,-0.205
4204,0.125,-0.230
4205,0.090,-0.210
4206,0.075,-0.200
4207,0.075,-0.205
4208,0.120,-0.210
4209,0.130,-0.220
4210,0.160,-0.230
4211,0.175,-0.210
4212,0.160,-0.205
4213,0.135,-0.205
4214,0.155,-0.205
4215,0.170,-0.200
4216,0.200,-0.200
4217,0.215,-0.225
4218,0.200,-0.225
4219,0.175,-0.245
4220,0.140,-0.230
4221,0.120,-0.215
4222,0.145,-0.190
4223,0.160,-0.190
4224,0.155,-0.225
4225,0.105,-0.240
4226,0.070,-0.260
4227,0.055,-0.235
4228,0.055,-0.195
4229,0.020,-0.170
4230,-0.005,-0.185
4231,-0.030,-0.205
4232,-0.050,-0.200
4233,-0.070,-0.155
4234,-0.080,-0.120
4235,-0.105,-0.125
4236,-0.125,-0.160
4237,-0.140,-0.215
4238,-0.135,-0.245
4239,-0.135,-0.200
4240,-0.150,-0.120
4241,-0.165,-0.070
4242,-0.175,-0.115
4243,-0.180,-0.215
4244,-0.185,-0.240
4245,-0.180,-0.220
4246,-0.175,-0.190
4247,-0.170,-0.190
4248,-0.175,-0.215
4249,-0.195,-0.225
4250,-0.210,-0.205
4251,-0.210,-0.200
4252,-0.215,-0.190
4253,-0.215,-0.195
4254,-0.220,-0.200
4255,-0.220,-0.165
4256,-0.235,-0.115
4257,-0.205,-0.050
4258,-0.190,-0.075
4259,-0.185,-0.140
4260,-0.205,-0.195
4261,-0.230,-0.240
4262,-0.225,-0.245
4263,-0.205,-0.225
4264,-0.210,-0.195
4265,-0.190,-0.185
4266,-0.200,-0.170
4267,-0.200,-0.175
4268,-0.200,-0.185
4269,-0.190,-0.170
4270,-0.180,-0.140
4271,-0.200,-0.155
4272,-0.205,-0.160
4273,-0.210,-0.155
4274,-0.180,-0.150
4275,-0.160,-0.140
4276,-0.130,-0.120
4277,-0.135,-0.120
4278,-0.150,-0.110
4279,-0.155,-0.115
4280,-0.140,-0.140
4281,-0.125,-0.185
4282,-0.090,-0.210
4283,-0.085,-0.235
4284,-0.105,-0.270
4285,-0.140,-0.275
4286,-0.150,-0.255
4287,-0.155,-0.245
4288,-0.160,-0.235
4289,-0.170,-0.230
4290,-0.170,-0.255
4291,-0.175,-0.235
4292,-0.160,-0.190
4293,-0.150,-0.140
4294,-0.140,-0.110
4295,-0.155,-0.120
4296,-0.180,-0.150
4297,-0.200,-0.175
4298,-0.205,-0.215
4299,-0.185,-0.260
4300,-0.170,-0.265
4301,-0.175,-0.250
4302,-0.205,-0.275
4303,-0.205,-0.255
4304,-0.195,-0.235
4305,-0.200,-0.200
4306,-0.195,-0.160
4307,-0.175,-0.170
4308,-0.185,-0.155
4309,-0.200,-0.170
4310,-0.205,-0.160
4311,-0.210,-0.155
4312,-0.205,-0.135
4313,-0.190,-0.165
4314,-0.185,-0.205
4315,-0.200,-0.255
4316,-0.220,-0.260
4317,-0.210,-0.220
4318,-0.195,-0.185
4319,-0.180,-0.135
4320,-0.185,-0.130
4321,-0.205,-0.140
4322,-0.225,-0.185
4323,-0.195,-0.245
4324,-0.165,-0.270
4325,-0.155,-0.275
4326,-0.170,-0.270
4327,-0.195,-0.250
4328,-0.210,-0.190
4329,-0.220,-0.100
4330,-0.235,-0.050
4331,-0.230,-0.070
4332,-0.180,-0.160
4333,-0.095,-0.250
4334,0.020,-0.265
4335,0.170,-0.270
4336,0.305,-0.285
4337,0.460,-0.360
4338,0.585,-0.450
4339,0.665,-0.530
4340,0.705,-0.550
4341,0.665,-0.565
4342,0.550,-0.540
4343,0.355,-0.555
4344,0.035,-0.520
4345,-0.320,-0.485
4346,-0.610,-0.445
4347,-0.790,-0.395
4348,-0.770,-0.310
4349,-0.655,-0.215
4350,-0.530,-0.170
4351,-0.450,-0.195
4352,-0.380,-0.205
4353,-0.305,-0.200
4354,-0.250,-0.145
4355,-0.225,-0.125
4356,-0.225,-0.145
4357,-0.230,-0.175
4358,-0.225,-0.180
4359,-0.200,-0.175
4360,-0.170,-0.185
4361,-0.140,-0.265
4362,-0.130,-0.320
4363,-0.150,-0.295
4364,-0.170,-0.220
4365,-0.145,-0.175
4366,-0.135,-0.130
4367,-0.125,-0.095
4368,-0.120,-0.110
4369,-0.115,-0.170
4370,-0.095,-0.235
4371,-0.080,-0.260
4372,-0.050,-0.230
4373,-0.030,-0.235
4374,-0.030,-0.240
4375,-0.030,-0.260
4376,-0.055,-0.255
4377,-0.030,-0.220
4378,0.005,-0.170
4379,0.040,-0.200
4380,0.065,-0.250
4381,0.055,-0.275
4382,0.060,-0.235
4383,0.080,-0.150
4384,0.110,-0.110
4385,0.140,-0.120
4386,0.135,-0.160
4387,0.140,-0.200
4388,0.160,-0.210
4389,0.190,-0.260
4390,0.220,-0.305
4391,0.245,-0.330
4392,0.225,-0.295
4393,0.210,-0.255
4394,0.215,-0.220
4395,0.255,-0.220
4396,0.280,-0.220
4397,0.275,-0.230
4398,0.270,-0.225
4399,0.245,-0.230
4400,0.225,-0.225
4401,0.220,-0.175
4402,0.245,-0.140
4403,0.230,-0.125
4404,0.200,-0.180
4405,0.155,-0.215
4406,0.115,-0.205
4407,0.100,-0.175
4408,0.110,-0.210
4409,0.130,-0.260
4410,0.120,-0.280
4411,0.080,-0.240
4412,0.045,-0.170
4413,0.010,-0.105
4414,-0.010,-0.100
4415,-0.050,-0.080
4416,-0.060,-0.090
4417,-0.055,-0.145
4418,-0.060,-0.195
4419,-0.090,-0.190
4420,-0.100,-0.170
4421,-0.125,-0.160
4422,-0.125,-0.145
4423,-0.115,-0.105
4424,-0.135,-0.090
4425,-0.150,-0.130
4426,-0.160,-0.160
4427,-0.145,-0.170
4428,-0.135,-0.170
4429,-0.150,-0.175
4430,-0.165,-0.155
4431,-0.170,-0.105
4432,-0.160,-0.090
4433,-0.150,-0.110
4434,-0.175,-0.140
4435,-0.185,-0.190
4436,-0.180,-0.180
4437,-0.160,-0.140
4438,-0.140,-0.065
4439,-0.150,-0.020
4440,-0.180,-0.050
4441,-0.190,-0.160
4442,-0.185,-0.260
4443,-0.150,-0.270
4444,-0.140,-0.220
4445,-0.165,-0.155
4446,-0.195,-0.095
4447,-0.205,-0.060
4448,-0.180,-0.045
4449,-0.135,-0.075
4450,-0.095,-0.105
4451,-0.095,-0.125
4452,-0.110,-0.120
4453,-0.135,-0.100
4454,-0.130,-0.050
4455,-0.110,-0.065
4456,-0.080,-0.080
4457,-0.075,-0.105
4458,-0.075,-0.135
4459,-0.080,-0.160
4460,-0.095,-0.150
4461,-0.090,-0.085
4462,-0.095,-0.045
4463,-0.115,-0.060
4464,-0.135,-0.140
4465,-0.145,-0.235
4466,-0.125,-0.255
4467,-0.100,-0.235
4468,-0.105,-0.180
4469,-0.110,-0.170
4470,-0.140,-0.145
4471,-0.155,-0.120
4472,-0.160,-0.110
4473,-0.155,-0.090
4474,-0.150,-0.085
4475,-0.170,-0.070
4476,-0.210,-0.065
4477,-0.245,-0.085
4478,-0.230,-0.120
4479,-0.165,-0.145
4480,-0.155,-0.150
4481,-0.175,-0.145
4482,-0.220,-0.135
4483,-0.240,-0.130
4484,-0.235,-0.090
4485,-0.195,-0.110
4486,-0.170,-0.125
4487,-0.160,-0.110
4488,-0.175,-0.065
4489,-0.200,-0.065
4490,-0.195,-0.135
4491,-0.190,-0.230
4492,-0.180,-0.240
4493,-0.160,-0.200
4494,-0.190,-0.170
4495,-0.225,-0.165
4496,-0.235,-0.150
4497,-0.210,-0.085
4498,-0.210,-0.005
4499,-0.205,-0.005
4500,-0.220,-0.025
4501,-0.210,-0.095
4502,-0.195,-0.125
4503,-0.175,-0.140
4504,-0.170,-0.135
4505,-0.165,-0.145
4506,-0.175,-0.165
4507,-0.200,-0.165
4508,-0.200,-0.140
4509,-0.215,-0.095
4510,-0.200,-0.050
4511,-0.180,-0.050
4512,-0.175,-0.080
4513,-0.150,-0.090
4514,-0.090,-0.100
4515,0.055,-0.135
4516,0.205,-0.135
4517,0.335,-0.180
4518,0.460,-0.250
4519,0.565,-0.335
4520,0.660,-0.410
4521,0.770,-0.485
4522,0.810,-0.500
4523,0.715,-0.535
4524,0.530,-0.550
4525,0.275,-0.525
4526,-0.070,-0.460
4527,-0.385,-0.395
4528,-0.615,-0.345
4529,-0.735,-0.305
4530,-0.745,-0.250
4531,-0.660,-0.225
4532,-0.555,-0.205
4533,-0.460,-0.180
4534,-0.375,-0.155
4535,-0.335,-0.150
4536,-0.300,-0.130
4537,-0.270,-0.105
4538,-0.250,-0.060
4539,-0.220,-0.040
4540,-0.205,-0.005
4541,-0.210,-0.030
4542,-0.190,-0.065
4543,-0.170,-0.140
4544,-0.165,-0.210
4545,-0.165,-0.175
4546,-0.180,-0.130
4547,-0.185,-0.100
4548,-0.190,-0.110
4549,-0.185,-0.110
4550,-0.180,-0.080
4551,-0.165,-0.050
4552,-0.140,-0.040
4553,-0.125,-0.070
4554,-0.130,-0.080
4555,-0.145,-0.035
4556,-0.150,0.010
4557,-0.130,-0.005
4558,-0.075,-0.100
4559,-0.035,-0.205
4560,0.005,-0.245
4561,0.025,-0.230
4562,0.035,-0.185
4563,0.010,-0.175
4564,0.010,-0.180
4565,0.010,-0.195
4566,0.005,-0.165
4567,0.030,-0.130
4568,0.075,-0.110
4569,0.135,-0.085
4570,0.180,-0.055
4571,0.190,-0.030
4572,0.165,-0.070
4573,0.160,-0.110
4574,0.155,-0.120
4575,0.165,-0.090
4576,0.190,-0.115
4577,0.220,-0.165
4578,0.235,-0.225
4579,0.245,-0.260
4580,0.255,-0.250
4581,0.265,-0.155
4582,0.245,-0.065
4583,0.245,-0.030
4584,0.235,-0.060
4585,0.230,-0.100
4586,0.210,-0.070
4587,0.205,-0.060
4588,0.210,-0.105
4589,0.245,-0.185
4590,0.250,-0.215
4591,0.210,-0.170
4592,0.175,-0.135
4593,0.165,-0.145
4594,0.170,-0.190
4595,0.145,-0.190
4596,0.110,-0.165
4597,0.075,-0.105
4598,0.025,-0.065
4599,0.015,-0.030
4600,0.015,-0.035
4601,-0.015,-0.025
4602,-0.060,-0.055
4603,-0.105,-0.080
4604,-0.105,-0.100
4605,-0.080,-0.090
4606,-0.065,-0.075
4607,-0.080,-0.020
4608,-0.120,0.000
4609,-0.150,-0.030
4610,-0.140,-0.085
4611,-0.135,-0.100
4612,-0.125,-0.090
4613,-0.135,-0.070
4614,-0.135,-0.125
4615,-0.145,-0.155
4616,-0.175,-0.135
4617,-0.185,-0.105
4618,-0.180,-0.035
4619,-0.170,-0.020
4620,-0.145,0.000
4621,-0.150,-0.005
4622,-0.185,-0.030
4623,-0.195,-0.050
4624,-0.195,-0.055
4625,-0.180,-0.070
4626,-0.165,-0.110
4627,-0.165,-0.125
4628,-0.180,-0.075
4629,-0.190,-0.005
4630,-0.185,0.035
4631,-0.165,0.005
4632,-0.145,-0.035
4633,-0.150,-0.075
4634,-0.180,-0.075
4635,-0.195,-0.065
4636,-0.190,-0.040
4637,-0.160,-0.010
4638,-0.135,-0.015
4639,-0.130,-0.065
4640,-0.100,-0.080
4641,-0.100,-0.030
4642,-0.120,0.025
4643,-0.135,0.005
4644,-0.115,-0.055
4645,-0.110,-0.065
4646,-0.105,-0.060
4647,-0.080,-0.030
4648,-0.065,0.020
4649,-0.040,0.010
4650,-0.070,-0.035
4651,-0.100,-0.080
4652,-0.140,-0.080
4653,-0.140,-0.055
4654,-0.140,-0.020
4655,-0.130,-0.040
4656,-0.135,-0.045
4657,-0.165,-0.015
4658,-0.160,-0.015
4659,-0.150,-0.050
4660,-0.130,-0.085
4661,-0.115,-0.120
4662,-0.120,-0.110
4663,-0.140,-0.120
4664,-0.160,-0.085
4665,-0.170,-0.030
4666,-0.180,0.035
4667,-0.190,0.060
4668,-0.200,0.035
4669,-0.200,-0.065
4670,-0.205,-0.100
4671,-0.230,-0.095
4672,-0.230,-0.045
4673,-0.220,-0.055
4674,-0.215,-0.065
4675,-0.215,-0.080
4676,-0.210,-0.055
4677,-0.175,-0.010
4678,-0.160,0.000
4679,-0.160,-0.035
4680,-0.170,-0.095
4681,-0.195,-0.120
4682,-0.225,-0.095
4683,-0.220,-0.070
4684,-0.185,-0.040
4685,-0.180,-0.040
4686,-0.195,-0.045
4687,-0.220,-0.035
4688,-0.210,-0.015
4689,-0.185,0.010
4690,-0.185,0.020
4691,-0.215,-0.005
4692,-0.215,-0.015
4693,-0.235,0.005
4694,-0.235,-0.005
4695,-0.210,-0.020
4696,-0.195,-0.040
4697,-0.185,-0.065
4698,-0.210,-0.090
4699,-0.250,-0.085
4700,-0.260,-0.065
4701,-0.240,-0.035
4702,-0.205,-0.005
4703,-0.195,0.015
4704,-0.160,-0.020
4705,-0.080,-0.080
4706,0.065,-0.130
4707,0.200,-0.145
4708,0.355,-0.170
4709,0.480,-0.200
4710,0.585,-0.235
4711,0.680,-0.285
4712,0.730,-0.340
4713,0.705,-0.375
4714,0.590,-0.395
4715,0.345,-0.415
4716,-0.035,-0.390
4717,-0.385,-0.330
4718,-0.645,-0.275
4719,-0.795,-0.230
4720,-0.800,-0.165
4721,-0.705,-0.100
4722,-0.615,-0.095
4723,-0.525,-0.110
4724,-0.455,-0.095
4725,-0.385,-0.035
4726,-0.305,-0.025
4727,-0.270,-0.030
4728,-0.255,-0.060
4729,-0.255,-0.085
4730,-0.225,-0.100
4731,-0.190,-0.070
4732,-0.170,-0.020
4733,-0.195,-0.015
4734,-0.220,-0.025
4735,-0.220,-0.030
4736,-0.195,-0.030
4737,-0.195,-0.015
4738,-0.210,-0.025
4739,-0.210,-0.055
4740,-0.200,-0.070
4741,-0.190,-0.080
4742,-0.165,-0.045
4743,-0.145,-0.025
4744,-0.145,-0.035
4745,-0.125,-0.045
4746,-0.105,-0.060
4747,-0.105,-0.080
4748,-0.115,-0.065
4749,-0.125,-0.040
4750,-0.110,-0.015
4751,-0.105,-0.020
4752,-0.090,-0.005
4753,-0.095,-0.005
4754,-0.080,0.000
4755,-0.045,-0.010
4756,-0.005,-0.015
4757,0.005,0.005
4758,0.005,-0.010
4759,0.000,-0.035
4760,0.030,-0.070
4761,0.075,-0.110
4762,0.110,-0.130
4763,0.100,-0.125
4764,0.095,-0.105
4765,0.095,-0.090
4766,0.130,-0.085
4767,0.155,-0.100
4768,0.170,-0.080
4769,0.175,-0.095
4770,0.165,-0.095
4771,0.155,-0.085
4772,0.150,-0.040
4773,0.155,-0.040
4774,0.195,-0.040
4775,0.220,-0.075
4776,0.220,-0.090
4777,0.200,-0.070
4778,0.175,-0.045
4779,0.165,-0.020
4780,0.155,-0.025
4781,0.140,-0.065
4782,0.115,-0.065
4783,0.105,-0.065
4784,0.100,-0.060
4785,0.120,-0.045
4786,0.130,-0.035
4787,0.100,-0.025
4788,0.050,-0.035
4789,0.000,-0.020
4790,-0.030,-0.020
4791,-0.050,-0.005
4792,-0.075,0.045
4793,-0.105,0.045
4794,-0.150,0.020
4795,-0.170,0.000
4796,-0.190,-0.005
4797,-0.195,-0.005
4798,-0.195,0.035
4799,-0.210,0.040
4800,-0.225,0.025
4801,-0.235,0.010
4802,-0.255,-0.040
4803,-0.245,-0.050
4804,-0.215,-0.065
4805,-0.230,-0.050
4806,-0.250,-0.040
4807,-0.285,-0.020
4808,-0.290,0.000
4809,-0.300,0.030
4810,-0.300,0.085
4811,-0.315,0.130
4812,-0.340,0.165
4813,-0.335,0.145
4814,-0.315,0.125
4815,-0.300,0.050
4816,-0.285,-0.020
4817,-0.265,-0.070
4818,-0.280,-0.065
4819,-0.280,-0.020
4820,-0.280,0.005
4821,-0.290,0.020
4822,-0.275,0.020
4823,-0.285,0.010
4824,-0.300,0.000
4825,-0.320,0.005
4826,-0.335,0.025
4827,-0.325,0.050
4828,-0.320,0.075
4829,-0.295,0.070
4830,-0.305,0.100
4831,-0.315,0.120
4832,-0.320,0.145
4833,-0.315,0.150
4834,-0.285,0.120
4835,-0.280,0.115
4836,-0.270,0.095
4837,-0.280,0.070
4838,-0.280,0.065
4839,-0.240,0.070
4840,-0.205,0.075
4841,-0.205,0.095
4842,-0.215,0.095
4843,-0.225,0.070
4844,-0.230,0.085
4845,-0.230,0.070
4846,-0.220,0.065
4847,-0.230,0.060
4848,-0.245,0.035
4849,-0.260,-0.010
4850,-0.270,0.000
4851,-0.275,-0.005
4852,-0.280,0.025
4853,-0.275,0.065
4854,-0.295,0.070
4855,-0.315,0.075
4856,-0.320,0.075
4857,-0.305,0.065
4858,-0.270,0.065
4859,-0.255,0.030
4860,-0.280,0.045
4861,-0.310,0.030
4862,-0.325,0.035
4863,-0.330,0.060
4864,-0.310,0.040
4865,-0.315,0.040
4866,-0.320,0.050
4867,-0.375,0.065
4868,-0.410,0.090
4869,-0.400,0.105
4870,-0.360,0.110
4871,-0.330,0.075
4872,-0.340,0.060
4873,-0.375,0.035
4874,-0.385,0.065
4875,-0.365,0.095
4876,-0.360,0.100
4877,-0.365,0.075
4878,-0.355,0.045
4879,-0.340,0.025
4880,-0.325,0.035
4881,-0.310,0.055
4882,-0.305,0.075
4883,-0.310,0.065
4884,-0.340,0.045
4885,-0.350,0.030
4886,-0.370,0.060
4887,-0.350,0.095
4888,-0.360,0.115
4889,-0.370,0.105
4890,-0.385,0.085
4891,-0.405,0.085
4892,-0.390,0.090
4893,-0.360,0.145
4894,-0.320,0.145
4895,-0.300,0.110
4896,-0.310,0.065
4897,-0.355,0.050
4898,-0.385,0.070
4899,-0.395,0.090
4900,-0.395,0.105
4901,-0.395,0.100
4902,-0.380,0.125
4903,-0.320,0.120
4904,-0.235,0.095
4905,-0.090,0.060
4906,0.065,0.030
4907,0.230,-0.005
4908,0.360,-0.045
4909,0.450,-0.085
4910,0.510,-0.085
4911,0.560,-0.100
4912,0.545,-0.145
4913,0.460,-0.195
4914,0.285,-0.265
4915,0.005,-0.265
4916,-0.320,-0.195
4917,-0.590,-0.120
4918,-0.780,-0.090
4919,-0.875,-0.070
4920,-0.870,-0.055
4921,-0.810,0.005
4922,-0.745,0.065
4923,-0.675,0.090
4924,-0.600,0.115
4925,-0.520,0.085
4926,-0.470,0.075
4927,-0.445,0.065
4928,-0.430,0.080
4929,-0.380,0.095
4930,-0.340,0.130
4931,-0.300,0.125
4932,-0.300,0.085
4933,-0.310,0.025
4934,-0.295,0.030
4935,-0.290,0.045
4936,-0.285,0.110
4937,-0.285,0.155
4938,-0.290,0.170
4939,-0.300,0.160
4940,-0.310,0.145
4941,-0.310,0.145
4942,-0.295,0.150
4943,-0.290,0.150
4944,-0.280,0.120
4945,-0.280,0.080
4946,-0.265,0.055
4947,-0.230,0.060
4948,-0.185,0.075
4949,-0.165,0.070
4950,-0.160,0.050
4951,-0.175,0.045
4952,-0.175,0.075
4953,-0.155,0.100
4954,-0.145,0.110
4955,-0.155,0.115
4956,-0.175,0.120
4957,-0.185,0.115
4958,-0.180,0.135
4959,-0.150,0.145
4960,-0.105,0.165
4961,-0.055,0.130
4962,-0.035,0.080
4963,-0.030,0.060
4964,-0.025,0.075
4965,0.000,0.120
4966,0.030,0.100
4967,0.035,0.050
4968,0.020,0.010
4969,-0.005,0.050
4970,0.005,0.060
4971,0.055,0.115
4972,0.105,0.130
4973,0.130,0.115
4974,0.140,0.080
4975,0.125,0.050
4976,0.110,0.050
4977,0.120,0.060
4978,0.135,0.095
4979,0.120,0.085
4980,0.100,0.070
4981,0.090,0.075
4982,0.105,0.095
4983,0.150,0.125
4984,0.170,0.105
4985,0.120,0.080
4986,0.080,0.045
4987,0.035,0.040
4988,0.030,0.065
4989,0.025,0.110
4990,0.040,0.130
4991,0.030,0.110
4992,0.020,0.105
4993,0.015,0.085
4994,-0.020,0.075
4995,-0.050,0.090
4996,-0.090,0.120
4997,-0.125,0.145
4998,-0.160,0.150
4999,-0.195,0.140
5000,-0.215,0.130
5001,-0.210,0.150
5002,-0.190,0.155
5003,-0.190,0.185
5004,-0.230,0.180
5005,-0.245,0.190
5006,-0.265,0.205
5007,-0.270,0.205
5008,-0.285,0.185
5009,-0.290,0.145
5010,-0.290,0.100
5011,-0.300,0.085
5012,-0.300,0.085
5013,-0.290,0.125
5014,-0.285,0.145
5015,-0.270,0.135
5016,-0.270,0.155
5017,-0.290,0.145
5018,-0.280,0.165
5019,-0.255,0.175
5020,-0.235,0.195
5021,-0.295,0.175
5022,-0.350,0.170
5023,-0.365,0.145
5024,-0.340,0.170
5025,-0.305,0.225
5026,-0.270,0.220
5027,-0.245,0.170
5028,-0.225,0.070
5029,-0.225,0.035
5030,-0.235,0.060
5031,-0.245,0.115
5032,-0.250,0.160
5033,-0.240,0.155
5034,-0.255,0.150
5035,-0.280,0.170
5036,-0.300,0.175
5037,-0.325,0.205
5038,-0.330,0.240
5039,-0.310,0.225
5040,-0.300,0.210
5041,-0.275,0.220
5042,-0.265,0.245
5043,-0.225,0.240
5044,-0.205,0.230
5045,-0.210,0.195
5046,-0.205,0.155
5047,-0.210,0.150
5048,-0.205,0.160
5049,-0.215,0.170
5050,-0.205,0.175
5051,-0.220,0.165
5052,-0.255,0.140
5053,-0.255,0.155
5054,-0.260,0.150
5055,-0.245,0.135
5056,-0.235,0.105
5057,-0.255,0.075
5058,-0.275,0.075
5059,-0.290,0.110
5060,-0.275,0.135
5061,-0.285,0.170
5062,-0.275,0.165
5063,-0.275,0.150
5064,-0.280,0.145
5065,-0.305,0.140
5066,-0.305,0.175
5067,-0.295,0.185
5068,-0.295,0.190
5069,-0.320,0.155
5070,-0.340,0.145
5071,-0.325,0.130
5072,-0.325,0.130
5073,-0.290,0.145
5074,-0.280,0.155
5075,-0.290,0.175
5076,-0.305,0.170
5077,-0.335,0.150
5078,-0.325,0.155
5079,-0.305,0.185
5080,-0.280,0.200
5081,-0.285,0.170
5082,-0.295,0.120
5083,-0.300,0.090
5084,-0.305,0.090
5085,-0.310,0.125
5086,-0.275,0.140
5087,-0.270,0.130
5088,-0.275,0.125
5089,-0.270,0.125
5090,-0.280,0.135
5091,-0.290,0.145
5092,-0.305,0.170
5093,-0.335,0.185
5094,-0.340,0.155
5095,-0.330,0.150
5096,-0.320,0.130
5097,-0.290,0.145
5098,-0.260,0.160
5099,-0.265,0.180
5100,-0.295,0.165
5101,-0.335,0.175
5102,-0.375,0.215
5103,-0.365,0.235
5104,-0.320,0.220
5105,-0.245,0.170
5106,-0.160,0.105
5107,-0.040,0.045
5108,0.125,0.005
5109,0.305,0.005
5110,0.460,-0.005
5111,0.555,-0.045
5112,0.595,-0.075
5113,0.580,-0.120
5114,0.505,-0.100
5115,0.350,-0.105
5116,0.090,-0.065
5117,-0.235,-0.010
5118,-0.530,0.055
5119,-0.760,0.070
5120,-0.870,0.090
5121,-0.840,0.120
5122,-0.710,0.135
5123,-0.605,0.130
5124,-0.545,0.120
5125,-0.465,0.115
5126,-0.385,0.130
5127,-0.335,0.160
5128,-0.295,0.170
5129,-0.300,0.175
5130,-0.300,0.135
5131,-0.295,0.115
5132,-0.290,0.135
5133,-0.260,0.165
5134,-0.240,0.170
5135,-0.245,0.170
5136,-0.250,0.145
5137,-0.245,0.150
5138,-0.245,0.165
5139,-0.230,0.180
5140,-0.205,0.185
5141,-0.220,0.185
5142,-0.245,0.160
5143,-0.250,0.155
5144,-0.240,0.160
5145,-0.215,0.175
5146,-0.200,0.190
5147,-0.215,0.180
5148,-0.205,0.170
5149,-0.200,0.165
5150,-0.180,0.170
5151,-0.155,0.170
5152,-0.130,0.180
5153,-0.120,0.155
5154,-0.135,0.135
5155,-0.130,0.130
5156,-0.110,0.135
5157,-0.085,0.155
5158,-0.050,0.180
5159,-0.025,0.175
5160,-0.035,0.155
5161,-0.040,0.130
5162,-0.030,0.165
5163,0.015,0.160
5164,0.075,0.155
5165,0.095,0.140
5166,0.085,0.115
5167,0.045,0.110
5168,0.050,0.120
5169,0.085,0.170
5170,0.130,0.185
5171,0.140,0.155
5172,0.150,0.150
5173,0.130,0.145
5174,0.130,0.130
5175,0.160,0.125
5176,0.195,0.125
5177,0.200,0.125
5178,0.180,0.095
5179,0.140,0.085
5180,0.125,0.090
5181,0.130,0.115
5182,0.145,0.145
5183,0.135,0.150
5184,0.110,0.150
5185,0.070,0.150
5186,0.055,0.150
5187,0.030,0.155
5188,0.005,0.125
5189,-0.010,0.120
5190,-0.040,0.085
5191,-0.075,0.080
5192,-0.080,0.090
5193,-0.085,0.090
5194,-0.115,0.120
5195,-0.135,0.105
5196,-0.155,0.085
5197,-0.165,0.075
5198,-0.185,0.090
5199,-0.190,0.110
5200,-0.205,0.120
5201,-0.200,0.095
5202,-0.205,0.095
5203,-0.230,0.095
5204,-0.220,0.110
5205,-0.215,0.105
5206,-0.215,0.115
5207,-0.220,0.090
5208,-0.245,0.075
5209,-0.275,0.085
5210,-0.275,0.105
5211,-0.250,0.115
5212,-0.225,0.115
5213,-0.240,0.100
5214,-0.245,0.095
5215,-0.255,0.065
5216,-0.255,0.085
5217,-0.225,0.105
5218,-0.220,0.100
5219,-0.220,0.085
5220,-0.225,0.080
5221,-0.260,0.090
5222,-0.275,0.095
5223,-0.265,0.095
5224,-0.265,0.085
5225,-0.270,0.105
5226,-0.285,0.090
5227,-0.275,0.120
5228,-0.255,0.115
5229,-0.220,0.115
5230,-0.195,0.105
5231,-0.205,0.100
5232,-0.230,0.100
5233,-0.235,0.100
5234,-0.220,0.135
5235,-0.200,0.155
5236,-0.185,0.155
5237,-0.180,0.160
5238,-0.190,0.140
5239,-0.180,0.115
5240,-0.175,0.110
5241,-0.155,0.100
5242,-0.140,0.095
5243,-0.135,0.115
5244,-0.160,0.105
5245,-0.185,0.095
5246,-0.195,0.090
5247,-0.190,0.095
5248,-0.185,0.100
5249,-0.185,0.105
5250,-0.210,0.065
5251,-0.230,0.055
5252,-0.235,0.085
5253,-0.225,0.115
5254,-0.220,0.155
5255,-0.215,0.170
5256,-0.225,0.135
5257,-0.235,0.125
5258,-0.210,0.115
5259,-0.190,0.115
5260,-0.215,0.125
5261,-0.260,0.115
5262,-0.280,0.105
5263,-0.275,0.085
5264,-0.265,0.090
5265,-0.230,0.100
5266,-0.215,0.095
5267,-0.225,0.095
5268,-0.255,0.090
5269,-0.270,0.095
5270,-0.285,0.125
5271,-0.275,0.145
5272,-0.255,0.140
5273,-0.225,0.125
5274,-0.220,0.110
5275,-0.240,0.090
5276,-0.245,0.115
5277,-0.260,0.145
5278,-0.245,0.170
5279,-0.260,0.155
5280,-0.255,0.135
5281,-0.250,0.125
5282,-0.250,0.135
5283,-0.260,0.160
5284,-0.255,0.165
5285,-0.240,0.140
5286,-0.210,0.105
5287,-0.215,0.100
5288,-0.210,0.110
5289,-0.195,0.125
5290,-0.175,0.130
5291,-0.180,0.125
5292,-0.215,0.095
5293,-0.265,0.110
5294,-0.270,0.130
5295,-0.240,0.135
5296,-0.215,0.135
5297,-0.230,0.150
5298,-0.250,0.150
5299,-0.285,0.150
5300,-0.260,0.185
5301,-0.190,0.180
5302,-0.115,0.145
5303,-0.020,0.090
5304,0.100,0.050
5305,0.250,0.040
5306,0.420,0.025
5307,0.570,0.005
5308,0.685,-0.025
5309,0.765,-0.090
5310,0.790,-0.170
5311,0.715,-0.165
5312,0.565,-0.090
5313,0.300,-0.055
5314,-0.015,-0.010
5315,-0.335,-0.005
5316,-0.605,-0.005
5317,-0.720,-0.010
5318,-0.730,0.035
5319,-0.665,0.090
5320,-0.575,0.120
5321,-0.530,0.135
5322,-0.500,0.165
5323,-0.455,0.165
5324,-0.375,0.150
5325,-0.295,0.145
5326,-0.250,0.120
5327,-0.235,0.145
5328,-0.245,0.155
5329,-0.260,0.155
5330,-0.255,0.155
5331,-0.230,0.160
5332,-0.170,0.155
5333,-0.135,0.095
5334,-0.150,0.070
5335,-0.175,0.055
5336,-0.175,0.080
5337,-0.165,0.115
5338,-0.150,0.120
5339,-0.145,0.125
5340,-0.155,0.095
5341,-0.150,0.065
5342,-0.135,0.060
5343,-0.110,0.095
5344,-0.070,0.135
5345,-0.070,0.120
5346,-0.090,0.130
5347,-0.130,0.160
5348,-0.145,0.185
5349,-0.115,0.185
5350,-0.075,0.175
5351,-0.055,0.125
5352,-0.060,0.110
5353,-0.065,0.105
5354,-0.045,0.110
5355,-0.020,0.130
5356,0.010,0.130
5357,0.035,0.100
5358,0.065,0.080
5359,0.055,0.055
5360,0.070,0.050
5361,0.070,0.075
5362,0.095,0.080
5363,0.100,0.090
5364,0.120,0.080
5365,0.130,0.070
5366,0.155,0.075
5367,0.155,0.070
5368,0.190,0.085
5369,0.190,0.100
5370,0.165,0.090
5371,0.170,0.075
5372,0.195,0.080
5373,0.260,0.095
5374,0.300,0.105
5375,0.270,0.105
5376,0.205,0.065
5377,0.175,0.055
5378,0.190,0.060
5379,0.200,0.090
5380,0.180,0.105
5381,0.160,0.120
5382,0.140,0.090
5383,0.115,0.100
5384,0.115,0.100
5385,0.125,0.125
5386,0.110,0.130
5387,0.065,0.115
5388,0.030,0.090
5389,0.010,0.065
5390,0.000,0.080
5391,-0.005,0.085
5392,-0.030,0.105
5393,-0.060,0.145
5394,-0.080,0.160
5395,-0.080,0.175
5396,-0.105,0.190
5397,-0.125,0.195
5398,-0.160,0.185
5399,-0.190,0.170
5400,-0.205,0.140
5401,-0.200,0.160
5402,-0.185,0.170
5403,-0.150,0.175
5404,-0.115,0.145
5405,-0.120,0.110
5406,-0.145,0.095
5407,-0.175,0.080
5408,-0.200,0.105
5409,-0.195,0.155
5410,-0.205,0.175
5411,-0.230,0.185
5412,-0.255,0.145
5413,-0.280,0.120
5414,-0.260,0.140
5415,-0.250,0.160
5416,-0.240,0.155
5417,-0.240,0.150
5418,-0.230,0.120
5419,-0.235,0.095
5420,-0.240,0.120
5421,-0.255,0.170
5422,-0.250,0.195
5423,-0.240,0.205
5424,-0.235,0.185
5425,-0.220,0.150
5426,-0.225,0.155
5427,-0.225,0.135
5428,-0.220,0.135
5429,-0.215,0.120
5430,-0.205,0.145
5431,-0.195,0.175
5432,-0.185,0.200
5433,-0.160,0.180
5434,-0.135,0.170
5435,-0.135,0.150
5436,-0.140,0.150
5437,-0.145,0.180
5438,-0.150,0.205
5439,-0.120,0.200
5440,-0.125,0.175
5441,-0.145,0.155
5442,-0.180,0.155
5443,-0.180,0.145
5444,-0.180,0.140
5445,-0.190,0.130
5446,-0.170,0.105
5447,-0.180,0.130
5448,-0.215,0.115
5449,-0.240,0.135
5450,-0.245,0.145
5451,-0.230,0.130
5452,-0.225,0.120
5453,-0.235,0.095
5454,-0.255,0.070
5455,-0.260,0.080
5456,-0.270,0.120
5457,-0.260,0.165
5458,-0.270,0.230
5459,-0.280,0.250
5460,-0.265,0.240
5461,-0.285,0.195
5462,-0.275,0.155
5463,-0.255,0.145
5464,-0.215,0.145
5465,-0.220,0.160
5466,-0.250,0.150
5467,-0.270,0.140
5468,-0.275,0.130
5469,-0.265,0.105
5470,-0.225,0.085
5471,-0.205,0.090
5472,-0.225,0.080
5473,-0.250,0.110
5474,-0.275,0.170
5475,-0.270,0.210
5476,-0.265,0.245
5477,-0.270,0.235
5478,-0.285,0.175
5479,-0.305,0.115
5480,-0.295,0.085
5481,-0.265,0.125
5482,-0.265,0.190
5483,-0.280,0.210
5484,-0.290,0.185
5485,-0.290,0.145
5486,-0.285,0.130
5487,-0.255,0.155
5488,-0.215,0.170
5489,-0.190,0.185
5490,-0.215,0.190
5491,-0.260,0.220
5492,-0.285,0.240
5493,-0.305,0.220
5494,-0.295,0.245
5495,-0.255,0.235
5496,-0.200,0.185
5497,-0.100,0.150
5498,0.035,0.095
5499,0.205,0.040
5500,0.390,0.020
5501,0.540,0.005
5502,0.635,-0.010
5503,0.720,-0.055
5504,0.810,-0.125
5505,0.865,-0.120
5506,0.810,-0.100
5507,0.600,-0.080
5508,0.285,-0.075
5509,-0.070,-0.080
5510,-0.390,-0.030
5511,-0.625,-0.010
5512,-0.725,0.010
5513,-0.740,0.035
5514,-0.670,0.055
5515,-0.595,0.065
5516,-0.515,0.095
5517,-0.410,0.120
5518,-0.315,0.115
5519,-0.275,0.145
5520,-0.245,0.150
5521,-0.250,0.185
5522,-0.270,0.205
5523,-0.265,0.270
5524,-0.220,0.250
5525,-0.215,0.235
5526,-0.215,0.195
5527,-0.225,0.170
5528,-0.240,0.155
5529,-0.215,0.185
5530,-0.200,0.210
5531,-0.185,0.210
5532,-0.170,0.195
5533,-0.145,0.160
5534,-0.155,0.135
5535,-0.140,0.135
5536,-0.100,0.155
5537,-0.105,0.175
5538,-0.120,0.135
5539,-0.140,0.135
5540,-0.110,0.140
5541,-0.095,0.175
5542,-0.055,0.195
5543,-0.055,0.165
5544,-0.045,0.170
5545,-0.030,0.160
5546,-0.005,0.185
5547,0.000,0.210
5548,0.015,0.205
5549,0.020,0.180
5550,0.040,0.150
5551,0.055,0.115
5552,0.075,0.115
5553,0.095,0.145
5554,0.105,0.170
5555,0.120,0.150
5556,0.120,0.140
5557,0.120,0.145
5558,0.145,0.165
5559,0.175,0.185
5560,0.195,0.195
5561,0.220,0.155
5562,0.225,0.115
5563,0.235,0.095
5564,0.235,0.110
5565,0.255,0.155
5566,0.260,0.180
5567,0.250,0.190
5568,0.250,0.190
5569,0.255,0.200
5570,0.255,0.190
5571,0.245,0.180
5572,0.245,0.175
5573,0.210,0.140
5574,0.185,0.095
5575,0.165,0.095
5576,0.150,0.125
5577,0.130,0.195
5578,0.105,0.205
5579,0.080,0.160
5580,0.045,0.140
5581,0.020,0.125
5582,0.025,0.145
5583,0.010,0.190
5584,-0.005,0.180
5585,-0.050,0.155
5586,-0.090,0.160
5587,-0.115,0.160
5588,-0.110,0.185
5589,-0.105,0.210
5590,-0.140,0.220
5591,-0.175,0.225
5592,-0.180,0.210
5593,-0.165,0.190
5594,-0.150,0.175
5595,-0.110,0.165
5596,-0.105,0.175
5597,-0.105,0.185
5598,-0.145,0.195
5599,-0.180,0.205
5600,-0.185,0.205
5601,-0.185,0.195
5602,-0.190,0.155
5603,-0.230,0.150
5604,-0.215,0.155
5605,-0.205,0.160
5606,-0.200,0.165
5607,-0.245,0.170
5608,-0.235,0.215
5609,-0.245,0.250
5610,-0.235,0.250
5611,-0.205,0.235
5612,-0.190,0.245
5613,-0.150,0.255
5614,-0.130,0.255
5615,-0.145,0.205
5616,-0.180,0.175
5617,-0.200,0.185
5618,-0.190,0.210
5619,-0.165,0.210
5620,-0.115,0.215
5621,-0.125,0.210
5622,-0.140,0.195
5623,-0.125,0.175
5624,-0.090,0.180
5625,-0.050,0.180
5626,-0.020,0.180
5627,-0.030,0.155
5628,-0.070,0.125
5629,-0.105,0.120
5630,-0.135,0.140
5631,-0.150,0.150
5632,-0.140,0.190
5633,-0.175,0.205
5634,-0.190,0.210
5635,-0.190,0.205
5636,-0.185,0.215
5637,-0.175,0.220
5638,-0.145,0.210
5639,-0.150,0.170
5640,-0.170,0.130
5641,-0.195,0.135
5642,-0.225,0.175
5643,-0.230,0.210
5644,-0.200,0.225
5645,-0.205,0.230
5646,-0.225,0.200
5647,-0.245,0.175
5648,-0.235,0.190
5649,-0.230,0.235
5650,-0.225,0.245
5651,-0.240,0.210
5652,-0.250,0.160
5653,-0.255,0.150
5654,-0.235,0.180
5655,-0.200,0.225
5656,-0.170,0.255
5657,-0.175,0.235
5658,-0.230,0.185
5659,-0.255,0.140
5660,-0.255,0.165
5661,-0.240,0.205
5662,-0.210,0.235
5663,-0.220,0.210
5664,-0.225,0.185
5665,-0.230,0.175
5666,-0.235,0.180
5667,-0.220,0.190
5668,-0.195,0.205
5669,-0.185,0.185
5670,-0.225,0.175
5671,-0.230,0.155
5672,-0.230,0.175
5673,-0.225,0.185
5674,-0.185,0.195
5675,-0.185,0.205
5676,-0.215,0.165
5677,-0.245,0.180
5678,-0.265,0.215
5679,-0.285,0.290
5680,-0.305,0.345
5681,-0.290,0.325
5682,-0.205,0.250
5683,-0.070,0.160
5684,0.080,0.095
5685,0.250,0.120
5686,0.430,0.105
5687,0.620,0.095
5688,0.765,0.040
5689,0.890,-0.020
5690,1.010,-0.080
5691,1.040,-0.105
5692,0.960,-0.090
5693,0.730,-0.105
5694,0.390,-0.105
5695,-0.005,-0.080
5696,-0.355,-0.030
5697,-0.590,0.035
5698,-0.670,0.070
5699,-0.670,0.100
5700,-0.610,0.100
5701,-0.515,0.120
5702,-0.400,0.120
5703,-0.310,0.145
5704,-0.225,0.180
5705,-0.205,0.200
5706,-0.180,0.205
5707,-0.185,0.215
5708,-0.180,0.210
5709,-0.160,0.160
5710,-0.140,0.145
5711,-0.155,0.135
5712,-0.155,0.165
5713,-0.165,0.180
5714,-0.160,0.210
5715,-0.145,0.220
5716,-0.120,0.200
5717,-0.120,0.165
5718,-0.150,0.175
5719,-0.150,0.215
5720,-0.130,0.255
5721,-0.105,0.265
5722,-0.070,0.230
5723,-0.060,0.205
5724,-0.060,0.190
5725,-0.060,0.205
5726,-0.045,0.235
5727,-0.015,0.255
5728,0.000,0.235
5729,0.005,0.210
5730,0.005,0.205
5731,0.000,0.155
5732,0.020,0.185
5733,0.050,0.225
5734,0.095,0.225
5735,0.110,0.220
5736,0.105,0.215
5737,0.110,0.215
5738,0.130,0.230
5739,0.150,0.240
5740,0.180,0.200
5741,0.210,0.165
5742,0.225,0.160
5743,0.220,0.160
5744,0.225,0.195
5745,0.245,0.205
5746,0.280,0.210
5747,0.290,0.205
5748,0.275,0.215
5749,0.265,0.255
5750,0.275,0.285
5751,0.295,0.295
5752,0.335,0.265
5753,0.330,0.225
5754,0.320,0.185
5755,0.295,0.180
5756,0.275,0.225
5757,0.285,0.255
5758,0.310,0.275
5759,0.330,0.195
5760,0.295,0.125
5761,0.265,0.080
5762,0.245,0.075
5763,0.240,0.120
5764,0.220,0.160
5765,0.205,0.185
5766,0.150,0.160
5767,0.110,0.170
5768,0.075,0.220
5769,0.055,0.300
5770,0.055,0.320
5771,0.035,0.270
5772,0.020,0.190
5773,0.000,0.155
5774,-0.030,0.180
5775,-0.035,0.215
5776,-0.030,0.210
5777,-0.030,0.165
5778,-0.060,0.170
5779,-0.095,0.195
5780,-0.100,0.250
5781,-0.100,0.290
5782,-0.090,0.280
5783,-0.075,0.225
5784,-0.085,0.210
5785,-0.095,0.210
5786,-0.095,0.255
5787,-0.100,0.270
5788,-0.090,0.270
5789,-0.100,0.240
5790,-0.105,0.195
5791,-0.120,0.165
5792,-0.100,0.200
5793,-0.070,0.230
5794,-0.040,0.195
5795,-0.050,0.145
5796,-0.095,0.150
5797,-0.110,0.220
5798,-0.110,0.295
5799,-0.100,0.355
5800,-0.080,0.340
5801,-0.090,0.320
5802,-0.080,0.275
5803,-0.075,0.225
5804,-0.055,0.210
5805,-0.020,0.220
5806,0.015,0.240
5807,-0.005,0.255
5808,-0.025,0.260
5809,-0.025,0.200
5810,0.005,0.145
5811,0.020,0.145
5812,0.040,0.190
5813,0.025,0.220
5814,0.015,0.245
5815,-0.005,0.250
5816,-0.015,0.245
5817,-0.025,0.245
5818,-0.025,0.255
5819,-0.040,0.240
5820,-0.060,0.195
5821,-0.065,0.165
5822,-0.080,0.165
5823,-0.085,0.190
5824,-0.080,0.215
5825,-0.090,0.230
5826,-0.100,0.235
5827,-0.105,0.215
5828,-0.105,0.230
5829,-0.095,0.230
5830,-0.095,0.235
5831,-0.110,0.190
5832,-0.150,0.185
5833,-0.165,0.200
5834,-0.165,0.220
5835,-0.150,0.265
5836,-0.145,0.270
5837,-0.155,0.275
5838,-0.145,0.260
5839,-0.130,0.250
5840,-0.120,0.240
5841,-0.100,0.255
5842,-0.075,0.240
5843,-0.070,0.210
5844,-0.080,0.190
5845,-0.110,0.180
5846,-0.110,0.195
5847,-0.110,0.205
5848,-0.120,0.200
5849,-0.135,0.235
5850,-0.150,0.290
5851,-0.150,0.290
5852,-0.135,0.260
5853,-0.105,0.205
5854,-0.070,0.155
5855,-0.090,0.145
5856,-0.130,0.170
5857,-0.145,0.200
5858,-0.140,0.225
5859,-0.100,0.240
5860,-0.100,0.210
5861,-0.095,0.215
5862,-0.110,0.210
5863,-0.125,0.245
5864,-0.125,0.265
5865,-0.120,0.250
5866,-0.100,0.245
5867,-0.105,0.260
5868,-0.105,0.295
5869,-0.045,0.290
5870,0.100,0.250
5871,0.290,0.165
5872,0.465,0.115
5873,0.605,0.100
5874,0.755,0.080
5875,0.905,0.020
5876,1.025,-0.065
5877,1.105,-0.155
5878,1.085,-0.195
5879,0.970,-0.215
5880,0.775,-0.250
5881,0.495,-0.280
5882,0.120,-0.250
5883,-0.260,-0.160
5884,-0.535,-0.040
5885,-0.640,0.080
5886,-0.625,0.140
5887,-0.530,0.165
5888,-0.400,0.170
5889,-0.285,0.190
5890,-0.200,0.200
5891,-0.170,0.215
5892,-0.165,0.195
5893,-0.150,0.200
5894,-0.125,0.195
5895,-0.095,0.240
5896,-0.105,0.290
5897,-0.105,0.335
5898,-0.100,0.355
5899,-0.095,0.310
5900,-0.085,0.255
5901,-0.050,0.185
5902,-0.060,0.130
5903,-0.075,0.165
5904,-0.095,0.220
5905,-0.095,0.255
5906,-0.085,0.245
5907,-0.055,0.240
5908,-0.025,0.250
5909,-0.010,0.270
5910,-0.010,0.250
5911,-0.005,0.215
5912,-0.005,0.200
5913,0.005,0.190
5914,0.035,0.195
5915,0.045,0.205
5916,0.045,0.205
5917,0.040,0.175
5918,0.055,0.170
5919,0.075,0.190
5920,0.095,0.175
5921,0.105,0.170
5922,0.130,0.165
5923,0.130,0.215
5924,0.150,0.275
5925,0.185,0.330
5926,0.200,0.295
5927,0.215,0.220
5928,0.220,0.150
5929,0.215,0.160
5930,0.215,0.185
5931,0.245,0.180
5932,0.285,0.140
5933,0.285,0.090
5934,0.290,0.090
5935,0.290,0.100
5936,0.295,0.135
5937,0.320,0.155
5938,0.325,0.175
5939,0.305,0.170
5940,0.300,0.165
5941,0.295,0.140
5942,0.290,0.180
5943,0.305,0.230
5944,0.335,0.250
5945,0.335,0.205
5946,0.325,0.145
5947,0.290,0.095
5948,0.260,0.130
5949,0.255,0.165
5950,0.250,0.175
5951,0.230,0.160
5952,0.185,0.190
5953,0.155,0.225
5954,0.125,0.265
5955,0.120,0.245
5956,0.115,0.220
5957,0.075,0.205
5958,0.025,0.245
5959,-0.015,0.280
5960,-0.025,0.305
5961,-0.005,0.280
5962,0.000,0.270
5963,-0.020,0.260
5964,-0.055,0.245
5965,-0.075,0.250
5966,-0.065,0.235
5967,-0.050,0.200
5968,-0.030,0.170
5969,-0.045,0.180
5970,-0.080,0.180
5971,-0.130,0.220
5972,-0.145,0.255
5973,-0.145,0.240
5974,-0.145,0.200
5975,-0.140,0.185
5976,-0.145,0.170
5977,-0.135,0.160
5978,-0.135,0.215
5979,-0.105,0.275
5980,-0.100,0.295
5981,-0.120,0.245
5982,-0.150,0.205
5983,-0.185,0.240
5984,-0.175,0.290
5985,-0.160,0.290
5986,-0.155,0.250
5987,-0.145,0.210
5988,-0.165,0.195
5989,-0.190,0.185
5990,-0.225,0.220
5991,-0.210,0.280
5992,-0.165,0.285
5993,-0.165,0.245
5994,-0.155,0.185
5995,-0.155,0.195
5996,-0.160,0.260
5997,-0.120,0.340
5998,-0.120,0.385
5999,-0.115,0.365
6000,-0.130,0.275
6001,-0.135,0.180
6002,-0.120,0.145
6003,-0.115,0.120
6004,-0.090,0.140
6005,-0.110,0.155
6006,-0.115,0.170
6007,-0.135,0.200
6008,-0.140,0.285
6009,-0.150,0.345
6010,-0.145,0.350
6011,-0.165,0.290
6012,-0.170,0.225
6013,-0.175,0.165
6014,-0.165,0.170
6015,-0.160,0.200
6016,-0.165,0.230
6017,-0.200,0.250
6018,-0.245,0.275
6019,-0.255,0.320
6020,-0.235,0.335
6021,-0.175,0.295
6022,-0.155,0.225
6023,-0.160,0.155
6024,-0.220,0.160
6025,-0.260,0.210
6026,-0.285,0.225
6027,-0.265,0.200
6028,-0.225,0.160
6029,-0.235,0.175
6030,-0.245,0.205
6031,-0.265,0.235
6032,-0.250,0.230
6033,-0.245,0.210
6034,-0.230,0.215
6035,-0.230,0.195
6036,-0.240,0.185
6037,-0.250,0.165
6038,-0.245,0.160
6039,-0.255,0.195
6040,-0.265,0.225
6041,-0.275,0.275
6042,-0.295,0.345
6043,-0.295,0.355
6044,-0.275,0.295
6045,-0.240,0.195
6046,-0.235,0.115
6047,-0.245,0.110
6048,-0.275,0.120
6049,-0.260,0.105
6050,-0.250,0.145
6051,-0.225,0.195
6052,-0.210,0.190
6053,-0.225,0.195
6054,-0.255,0.210
6055,-0.280,0.225
6056,-0.315,0.250
6057,-0.305,0.275
6058,-0.295,0.270
6059,-0.290,0.235
6060,-0.280,0.210
6061,-0.275,0.250
6062,-0.205,0.280
6063,-0.090,0.235
6064,0.090,0.150
6065,0.245,0.080
6066,0.380,0.055
6067,0.510,0.035
6068,0.665,-0.005
6069,0.795,-0.055
6070,0.870,-0.120
6071,0.830,-0.190
6072,0.695,-0.235
6073,0.470,-0.250
6074,0.160,-0.230
6075,-0.175,-0.190
6076,-0.495,-0.155
6077,-0.755,-0.100
6078,-0.880,-0.020
6079,-0.850,0.090
6080,-0.755,0.220
6081,-0.620,0.265
6082,-0.495,0.230
6083,-0.415,0.170
6084,-0.370,0.105
6085,-0.335,0.095
6086,-0.305,0.130
6087,-0.285,0.150
6088,-0.255,0.185
6089,-0.255,0.230
6090,-0.260,0.215
6091,-0.280,0.225
6092,-0.295,0.250
6093,-0.275,0.285
6094,-0.270,0.300
6095,-0.270,0.280
6096,-0.240,0.220
6097,-0.225,0.185
6098,-0.220,0.175
6099,-0.205,0.200
6100,-0.185,0.210
6101,-0.180,0.190
6102,-0.185,0.185
6103,-0.210,0.210
6104,-0.210,0.270
6105,-0.205,0.305
6106,-0.180,0.300
6107,-0.160,0.255
6108,-0.160,0.205
6109,-0.175,0.160
6110,-0.150,0.130
6111,-0.120,0.140
6112,-0.095,0.160
6113,-0.085,0.175
6114,-0.065,0.170
6115,-0.060,0.155
6116,-0.040,0.175
6117,-0.025,0.210
6118,0.000,0.225
6119,0.010,0.215
6120,0.010,0.195
6121,0.015,0.170
6122,0.030,0.190
6123,0.060,0.200
6124,0.090,0.195
6125,0.100,0.165
6126,0.095,0.125
6127,0.075,0.140
6128,0.075,0.170
6129,0.100,0.225
6130,0.125,0.225
6131,0.140,0.175
6132,0.135,0.125
6133,0.125,0.120
6134,0.115,0.150
6135,0.120,0.185
6136,0.125,0.190
6137,0.115,0.140
6138,0.090,0.125
6139,0.070,0.145
6140,0.065,0.165
6141,0.065,0.205
6142,0.060,0.240
6143,0.040,0.230
6144,0.015,0.210
6145,-0.005,0.185
6146,-0.025,0.225
6147,-0.055,0.245
6148,-0.050,0.220
6149,-0.075,0.190
6150,-0.110,0.165
6151,-0.155,0.175
6152,-0.185,0.235
6153,-0.190,0.255
6154,-0.195,0.265
6155,-0.220,0.270
6156,-0.250,0.250
6157,-0.255,0.240
6158,-0.270,0.240
6159,-0.260,0.235
6160,-0.260,0.240
6161,-0.270,0.230
6162,-0.295,0.220
6163,-0.315,0.235
6164,-0.320,0.265
6165,-0.305,0.270
6166,-0.300,0.285
6167,-0.315,0.285
6168,-0.325,0.280
6169,-0.335,0.280
6170,-0.335,0.300
6171,-0.325,0.285
6172,-0.305,0.285
6173,-0.315,0.295
6174,-0.330,0.290
6175,-0.330,0.270
6176,-0.325,0.270
6177,-0.305,0.265
6178,-0.310,0.255
6179,-0.315,0.250
6180,-0.330,0.240
6181,-0.345,0.245
6182,-0.350,0.245
6183,-0.340,0.290
6184,-0.320,0.320
6185,-0.330,0.295
6186,-0.315,0.275
6187,-0.315,0.265
6188,-0.320,0.280
6189,-0.300,0.310
6190,-0.290,0.315
6191,-0.290,0.320
6192,-0.300,0.315
6193,-0.320,0.305
6194,-0.320,0.325
6195,-0.275,0.325
6196,-0.255,0.340
6197,-0.250,0.330
6198,-0.260,0.305
6199,-0.260,0.280
6200,-0.250,0.300
6201,-0.250,0.300
6202,-0.255,0.270
6203,-0.270,0.240
6204,-0.290,0.220
6205,-0.310,0.200
6206,-0.315,0.240
6207,-0.320,0.255
6208,-0.315,0.270
6209,-0.325,0.250
6210,-0.340,0.260
6211,-0.350,0.275
6212,-0.345,0.300
6213,-0.330,0.310
6214,-0.300,0.300
6215,-0.315,0.280
6216,-0.345,0.230
6217,-0.345,0.235
6218,-0.340,0.240
6219,-0.345,0.265
6220,-0.375,0.290
6221,-0.400,0.270
6222,-0.410,0.285
6223,-0.415,0.315
6224,-0.410,0.325
6225,-0.390,0.325
6226,-0.370,0.305
6227,-0.360,0.290
6228,-0.390,0.300
6229,-0.390,0.330
6230,-0.385,0.330
6231,-0.370,0.320
6232,-0.345,0.295
6233,-0.365,0.285
6234,-0.375,0.290
6235,-0.385,0.305
6236,-0.365,0.320
6237,-0.370,0.325
6238,-0.370,0.330
6239,-0.380,0.325
6240,-0.375,0.315
6241,-0.385,0.310
6242,-0.380,0.310
6243,-0.360,0.315
6244,-0.345,0.320
6245,-0.350,0.315
6246,-0.385,0.310
6247,-0.410,0.315
6248,-0.410,0.325
6249,-0.415,0.350
6250,-0.415,0.360
6251,-0.425,0.405
6252,-0.400,0.415
6253,-0.305,0.410
6254,-0.130,0.340
6255,0.075,0.255
6256,0.280,0.205
6257,0.455,0.145
6258,0.570,0.040
6259,0.610,-0.040
6260,0.530,-0.090
6261,0.385,-0.120
6262,0.140,-0.110
6263,-0.205,-0.055
6264,-0.565,-0.015
6265,-0.855,0.030
6266,-0.995,0.105
6267,-0.955,0.200
6268,-0.835,0.275
6269,-0.720,0.295
6270,-0.645,0.285
6271,-0.570,0.330
6272,-0.500,0.365
6273,-0.435,0.380
6274,-0.400,0.355
6275,-0.375,0.330
6276,-0.380,0.305
6277,-0.370,0.300
6278,-0.365,0.295
6279,-0.345,0.315
6280,-0.335,0.340
6281,-0.330,0.350
6282,-0.330,0.335
6283,-0.335,0.330
6284,-0.340,0.340
6285,-0.315,0.375
6286,-0.295,0.370
6287,-0.270,0.340
6288,-0.275,0.315
6289,-0.285,0.330
6290,-0.265,0.355
6291,-0.250,0.360
6292,-0.235,0.355
6293,-0.225,0.350
6294,-0.230,0.310
6295,-0.240,0.300
6296,-0.220,0.325
6297,-0.195,0.345
6298,-0.160,0.355
6299,-0.160,0.345
6300,-0.135,0.320
6301,-0.135,0.270
6302,-0.125,0.295
6303,-0.115,0.330
6304,-0.065,0.365
6305,-0.040,0.325
6306,-0.025,0.290
6307,-0.015,0.270
6308,-0.010,0.270
6309,0.010,0.305
6310,0.055,0.305
6311,0.055,0.275
6312,0.045,0.250
6313,0.035,0.260
6314,0.035,0.295
6315,0.065,0.320
6316,0.095,0.315
6317,0.095,0.295
6318,0.095,0.265
6319,0.080,0.305
6320,0.065,0.350
6321,0.065,0.385
6322,0.075,0.390
6323,0.080,0.340
6324,0.045,0.340
6325,0.015,0.350
6326,0.020,0.350
6327,0.015,0.325
6328,0.015,0.285
6329,-0.005,0.265
6330,-0.035,0.280
6331,-0.080,0.300
6332,-0.115,0.345
6333,-0.130,0.380
6334,-0.130,0.365
6335,-0.155,0.370
6336,-0.185,0.365
6337,-0.215,0.370
6338,-0.215,0.375
6339,-0.220,0.380
6340,-0.235,0.385
6341,-0.260,0.385
6342,-0.290,0.400
6343,-0.300,0.440
6344,-0.305,0.495
6345,-0.300,0.535
6346,-0.290,0.470
6347,-0.270,0.365
6348,-0.280,0.260
6349,-0.285,0.260
6350,-0.305,0.310
6351,-0.285,0.380
6352,-0.290,0.380
6353,-0.275,0.360
6354,-0.290,0.340
6355,-0.300,0.355
6356,-0.305,0.360
6357,-0.290,0.395
6358,-0.270,0.380
6359,-0.285,0.385
6360,-0.295,0.375
6361,-0.320,0.390
6362,-0.305,0.400
6363,-0.290,0.390
6364,-0.275,0.385
6365,-0.280,0.375
6366,-0.280,0.335
6367,-0.280,0.330
6368,-0.275,0.340
6369,-0.265,0.385
6370,-0.255,0.405
6371,-0.260,0.405
6372,-0.270,0.400
6373,-0.275,0.380
6374,-0.250,0.390
6375,-0.240,0.395
6376,-0.215,0.420
6377,-0.220,0.430
6378,-0.225,0.395
6379,-0.215,0.360
6380,-0.200,0.355
6381,-0.175,0.390
6382,-0.175,0.440
6383,-0.190,0.455
6384,-0.205,0.460
6385,-0.225,0.395
6386,-0.215,0.330
6387,-0.200,0.310
6388,-0.190,0.315
6389,-0.190,0.320
6390,-0.220,0.340
6391,-0.235,0.325
6392,-0.220,0.300
6393,-0.190,0.275
6394,-0.180,0.290
6395,-0.180,0.285
6396,-0.220,0.250
6397,-0.270,0.255
6398,-0.280,0.330
6399,-0.260,0.410
6400,-0.245,0.480
6401,-0.210,0.440
6402,-0.170,0.320
6403,-0.130,0.235
6404,-0.100,0.235
6405,-0.090,0.295
6406,-0.070,0.290
6407,-0.040,0.235
6408,0.025,0.175
6409,0.110,0.180
6410,0.240,0.210
6411,0.390,0.240
6412,0.550,0.210
6413,0.695,0.170
6414,0.815,0.080
6415,0.915,0.035
6416,1.015,0.035
6417,1.095,0.095
6418,1.160,0.145
6419,1.185,0.155
6420,1.190,0.135
6421,1.205,0.095
6422,1.205,0.070
6423,1.205,0.035
6424,1.185,-0.040
6425,1.150,-0.105
6426,1.155,-0.150
6427,1.185,-0.140
6428,1.245,-0.105
6429,1.325,-0.070
6430,1.360,-0.065
6431,1.320,-0.060
6432,1.195,-0.015
6433,0.990,0.025
6434,0.740,0.070
6435,0.385,0.105
6436,-0.040,0.180
6437,-0.370,0.255
6438,-0.510,0.295
6439,-0.535,0.310
6440,-0.520,0.335
6441,-0.515,0.370
6442,-0.530,0.360
6443,-0.550,0.350
6444,-0.590,0.325
6445,-0.605,0.320
6446,-0.625,0.335
6447,-0.640,0.370
6448,-0.655,0.385
6449,-0.665,0.375
6450,-0.685,0.380
6451,-0.700,0.380
6452,-0.700,0.390
6453,-0.700,0.390
6454,-0.710,0.400
6455,-0.715,0.400
6456,-0.720,0.405
6457,-0.745,0.410
6458,-0.750,0.415
6459,-0.745,0.430
6460,-0.735,0.435
6461,-0.730,0.425
6462,-0.750,0.405
6463,-0.750,0.425
6464,-0.765,0.445
6465,-0.765,0.455
6466,-0.760,0.445
6467,-0.760,0.425
6468,-0.775,0.425
6469,-0.775,0.460
6470,-0.780,0.465
6471,-0.750,0.470
6472,-0.740,0.480
6473,-0.760,0.465
6474,-0.755,0.415
6475,-0.775,0.390
6476,-0.765,0.410
6477,-0.760,0.460
6478,-0.755,0.500
6479,-0.735,0.530
6480,-0.745,0.510
6481,-0.740,0.475
6482,-0.705,0.470
6483,-0.685,0.470
6484,-0.640,0.430
6485,-0.635,0.420
6486,-0.625,0.410
6487,-0.630,0.410
6488,-0.595,0.440
6489,-0.570,0.435
6490,-0.535,0.425
6491,-0.530,0.435
6492,-0.525,0.435
6493,-0.535,0.410
6494,-0.505,0.425
6495,-0.470,0.420
6496,-0.445,0.380
6497,-0.435,0.380
6498,-0.445,0.360
6499,-0.445,0.355
6500,-0.425,0.365
6501,-0.420,0.395
6502,-0.390,0.415
6503,-0.370,0.395
6504,-0.365,0.360
6505,-0.375,0.320
6506,-0.380,0.340
6507,-0.380,0.360
6508,-0.375,0.385
6509,-0.375,0.395
6510,-0.385,0.350
6511,-0.385,0.325
6512,-0.390,0.330
6513,-0.395,0.370
6514,-0.380,0.405
6515,-0.375,0.405
6516,-0.395,0.380
6517,-0.400,0.380
6518,-0.390,0.385
6519,-0.380,0.390
6520,-0.360,0.370
6521,-0.365,0.390
6522,-0.370,0.385
6523,-0.375,0.350
6524,-0.360,0.310
6525,-0.345,0.305
6526,-0.335,0.320
6527,-0.340,0.335
6528,-0.365,0.330
6529,-0.380,0.310
6530,-0.375,0.320
6531,-0.355,0.340
6532,-0.340,0.350
6533,-0.325,0.335
6534,-0.325,0.315
6535,-0.345,0.305
6536,-0.345,0.305
6537,-0.340,0.320
6538,-0.340,0.335
6539,-0.335,0.335
6540,-0.350,0.310
6541,-0.350,0.320
6542,-0.340,0.375
6543,-0.340,0.420
6544,-0.305,0.405
6545,-0.305,0.360
6546,-0.310,0.300
6547,-0.320,0.290
6548,-0.315,0.330
6549,-0.285,0.325
6550,-0.265,0.310
6551,-0.260,0.300
6552,-0.265,0.305
6553,-0.265,0.335
6554,-0.305,0.360
6555,-0.325,0.405
6556,-0.325,0.395
6557,-0.300,0.355
6558,-0.280,0.300
6559,-0.275,0.265
6560,-0.255,0.285
6561,-0.240,0.310
6562,-0.230,0.315
6563,-0.250,0.310
6564,-0.250,0.300
6565,-0.255,0.320
6566,-0.235,0.340
6567,-0.205,0.360
6568,-0.180,0.345
6569,-0.170,0.310
6570,-0.190,0.300
6571,-0.205,0.320
6572,-0.210,0.340
6573,-0.180,0.355
6574,-0.170,0.365
6575,-0.180,0.345
6576,-0.200,0.325
6577,-0.235,0.350
6578,-0.240,0.410
6579,-0.215,0.435
6580,-0.205,0.365
6581,-0.200,0.225
6582,-0.215,0.145
6583,-0.245,0.155
6584,-0.265,0.205
6585,-0.260,0.235
6586,-0.245,0.260
6587,-0.235,0.275
6588,-0.250,0.280
6589,-0.265,0.300
6590,-0.275,0.310
6591,-0.265,0.285
6592,-0.245,0.295
6593,-0.260,0.280
6594,-0.280,0.285
6595,-0.285,0.275
6596,-0.290,0.275
6597,-0.275,0.290
6598,-0.255,0.325
6599,-0.260,0.325
6600,-0.270,0.325
6601,-0.270,0.315
6602,-0.270,0.305
6603,-0.255,0.330
6604,-0.245,0.375
6605,-0.250,0.405
6606,-0.240,0.340
6607,-0.240,0.235
6608,-0.225,0.190
6609,-0.230,0.205
6610,-0.230,0.250
6611,-0.230,0.270
6612,-0.250,0.275
6613,-0.260,0.295
6614,-0.245,0.325
6615,-0.230,0.320
6616,-0.210,0.295
6617,-0.200,0.275
6618,-0.225,0.280
6619,-0.245,0.325
6620,-0.265,0.390
6621,-0.245,0.415
6622,-0.230,0.385
6623,-0.205,0.260
6624,-0.185,0.205
6625,-0.100,0.225
6626,0.020,0.260
6627,0.190,0.215
6628,0.335,0.160
6629,0.470,0.115
6630,0.585,0.070
6631,0.665,0.005
6632,0.730,-0.065
6633,0.710,-0.115
6634,0.595,-0.125
6635,0.415,-0.160
6636,0.170,-0.155
6637,-0.140,-0.125
6638,-0.445,-0.080
6639,-0.685,-0.015
6640,-0.795,0.060
6641,-0.800,0.135
6642,-0.710,0.210
6643,-0.605,0.255
6644,-0.495,0.260
6645,-0.395,0.270
6646,-0.305,0.265
6647,-0.270,0.270
6648,-0.250,0.265
6649,-0.240,0.295
6650,-0.230,0.330
6651,-0.195,0.360
6652,-0.180,0.335
6653,-0.190,0.295
6654,-0.230,0.310
6655,-0.215,0.325
6656,-0.200,0.305
6657,-0.170,0.295
6658,-0.150,0.295
6659,-0.130,0.290
6660,-0.130,0.275
6661,-0.145,0.250
6662,-0.145,0.285
6663,-0.125,0.315
6664,-0.100,0.315
6665,-0.085,0.305
6666,-0.090,0.275
6667,-0.085,0.290
6668,-0.070,0.295
6669,-0.045,0.335
6670,-0.040,0.330
6671,-0.030,0.305
6672,-0.005,0.260
6673,0.000,0.235
6674,0.015,0.260
6675,0.035,0.320
6676,0.050,0.320
6677,0.070,0.260
6678,0.085,0.210
6679,0.100,0.200
6680,0.100,0.235
6681,0.130,0.260
6682,0.140,0.265
6683,0.155,0.260
6684,0.160,0.260
6685,0.160,0.265
6686,0.205,0.240
6687,0.210,0.225
6688,0.220,0.220
6689,0.210,0.230
6690,0.200,0.240
6691,0.205,0.250
6692,0.225,0.245
6693,0.235,0.255
6694,0.250,0.280
6695,0.275,0.260
6696,0.255,0.230
6697,0.235,0.200
6698,0.245,0.220
6699,0.240,0.260
6700,0.240,0.275
6701,0.225,0.260
6702,0.200,0.235
6703,0.170,0.230
6704,0.155,0.280
6705,0.150,0.330
6706,0.125,0.335
6707,0.125,0.275
6708,0.080,0.250
6709,0.050,0.270
6710,0.020,0.280
6711,0.005,0.295
