'sample interval','MLII','V1'
'0.00277778 sec','mV','mV'
0,-0.215,0.095
1,-0.215,0.095
2,-0.215,0.095
3,-0.215,0.095
4,-0.215,0.095
5,-0.215,0.095
6,-0.215,0.095
7,-0.215,0.095
8,-0.210,0.095
9,-0.200,0.110
10,-0.190,0.100
11,-0.195,0.085
12,-0.200,0.050
13,-0.200,0.060
14,-0.175,0.090
15,-0.160,0.095
16,-0.160,0.095
17,-0.155,0.070
18,-0.175,0.045
19,-0.160,0.055
20,-0.160,0.065
21,-0.170,0.090
22,-0.155,0.090
23,-0.170,0.065
24,-0.185,0.060
25,-0.165,0.055
26,-0.175,0.065
27,-0.160,0.085
28,-0.145,0.085
29,-0.165,0.035
30,-0.195,0.010
31,-0.235,-0.045
32,-0.255,-0.070
33,-0.260,-0.075
34,-0.250,-0.115
35,-0.260,-0.175
36,-0.270,-0.235
37,-0.240,-0.265
38,-0.145,-0.250
39,-0.035,-0.220
40,0.095,-0.190
41,0.235,-0.180
42,0.315,-0.180
43,0.340,-0.185
44,0.380,-0.150
45,0.410,-0.060
46,0.480,0.115
47,0.590,0.375
48,0.710,0.675
49,0.795,0.940
50,0.815,1.080
51,0.775,1.135
52,0.710,1.185
53,0.655,1.225
54,0.580,1.280
55,0.485,1.305
56,0.370,1.305
57,0.215,1.290
58,0.020,1.220
59,-0.145,1.135
60,-0.265,1.035
61,-0.315,0.965
62,-0.345,0.900
63,-0.350,0.895
64,-0.390,0.895
65,-0.405,0.895
66,-0.465,0.905
67,-0.510,0.910
68,-0.490,0.965
69,-0.445,1.010
70,-0.390,1.040
71,-0.375,1.070
72,-0.345,1.070
73,-0.295,1.075
74,-0.230,1.065
75,-0.180,1.025
76,-0.160,0.945
77,-0.160,0.845
78,-0.200,0.725
79,-0.240,0.590
80,-0.260,0.445
81,-0.275,0.365
82,-0.275,0.255
83,-0.270,0.195
84,-0.280,0.145
85,-0.270,0.145
86,-0.265,0.125
87,-0.265,0.105
88,-0.260,0.085
89,-0.275,0.060
90,-0.285,0.045
91,-0.285,0.060
92,-0.285,0.070
93,-0.280,0.070
94,-0.285,0.035
95,-0.280,0.010
96,-0.300,0.010
97,-0.290,0.025
98,-0.290,0.050
99,-0.290,0.040
100,-0.280,0.035
101,-0.285,0.000
102,-0.300,-0.005
103,-0.290,0.015
104,-0.280,0.045
105,-0.260,0.045
106,-0.265,0.035
107,-0.265,0.000
108,-0.280,-0.015
109,-0.280,0.000
110,-0.270,0.015
111,-0.260,0.040
112,-0.265,0.035
113,-0.270,0.020
114,-0.280,-0.010
115,-0.285,0.000
116,-0.270,0.015
117,-0.250,0.045
118,-0.250,0.055
119,-0.255,0.030
120,-0.260,0.000
121,-0.250,-0.005
122,-0.240,0.025
123,-0.235,0.050
124,-0.225,0.045
125,-0.225,0.030
126,-0.240,0.010
127,-0.230,0.010
128,-0.210,0.030
129,-0.190,0.035
130,-0.190,0.055
131,-0.205,0.055
132,-0.215,0.025
133,-0.215,0.020
134,-0.195,0.035
135,-0.195,0.075
136,-0.175,0.080
137,-0.175,0.075
138,-0.180,0.045
139,-0.175,0.045
140,-0.165,0.070
141,-0.165,0.100
142,-0.135,0.115
143,-0.135,0.090
144,-0.140,0.090
145,-0.135,0.085
146,-0.130,0.110
147,-0.110,0.125
148,-0.090,0.140
149,-0.085,0.140
150,-0.100,0.125
151,-0.095,0.130
152,-0.080,0.140
153,-0.065,0.165
154,-0.065,0.180
155,-0.085,0.185
156,-0.075,0.175
157,-0.070,0.180
158,-0.055,0.180
159,-0.035,0.195
160,-0.035,0.215
161,-0.035,0.220
162,-0.035,0.215
163,-0.030,0.215
164,-0.020,0.220
165,-0.015,0.230
166,0.000,0.245
167,0.005,0.255
168,-0.005,0.260
169,0.010,0.260
170,0.035,0.265
171,0.050,0.275
172,0.050,0.295
173,0.050,0.290
174,0.045,0.290
175,0.040,0.295
176,0.035,0.295
177,0.070,0.305
178,0.070,0.315
179,0.070,0.320
180,0.065,0.315
181,0.075,0.320
182,0.070,0.320
183,0.080,0.340
184,0.100,0.350
185,0.095,0.360
186,0.085,0.345
187,0.080,0.340
188,0.095,0.350
189,0.105,0.370
190,0.125,0.375
191,0.125,0.370
192,0.125,0.370
193,0.110,0.380
194,0.130,0.385
195,0.150,0.390
196,0.145,0.405
197,0.140,0.395
198,0.115,0.405
199,0.110,0.410
200,0.125,0.400
201,0.140,0.405
202,0.145,0.420
203,0.135,0.415
204,0.130,0.425
205,0.125,0.430
206,0.125,0.435
207,0.140,0.430
208,0.140,0.440
209,0.135,0.435
210,0.130,0.450
211,0.140,0.460
212,0.145,0.460
213,0.150,0.465
214,0.140,0.460
215,0.125,0.470
216,0.115,0.480
217,0.115,0.490
218,0.130,0.495
219,0.120,0.490
220,0.115,0.490
221,0.115,0.500
222,0.100,0.510
223,0.090,0.525
224,0.100,0.530
225,0.110,0.535
226,0.105,0.540
227,0.090,0.550
228,0.075,0.570
229,0.080,0.565
230,0.085,0.585
231,0.110,0.580
232,0.105,0.580
233,0.100,0.580
234,0.085,0.600
235,0.090,0.610
236,0.105,0.630
237,0.095,0.635
238,0.095,0.615
239,0.080,0.625
240,0.070,0.620
241,0.060,0.650
242,0.070,0.660
243,0.090,0.645
244,0.090,0.635
245,0.090,0.640
246,0.085,0.630
247,0.075,0.655
248,0.085,0.660
249,0.105,0.655
250,0.115,0.645
251,0.105,0.630
252,0.110,0.640
253,0.110,0.645
254,0.120,0.650
255,0.130,0.640
256,0.145,0.605
257,0.135,0.610
258,0.125,0.610
259,0.125,0.630
260,0.135,0.640
261,0.135,0.635
262,0.150,0.625
263,0.145,0.610
264,0.145,0.610
265,0.145,0.635
266,0.160,0.650
267,0.165,0.640
268,0.175,0.630
269,0.170,0.620
270,0.165,0.610
271,0.175,0.625
272,0.165,0.640
273,0.195,0.630
274,0.195,0.625
275,0.185,0.590
276,0.185,0.590
277,0.190,0.605
278,0.200,0.620
279,0.225,0.625
280,0.220,0.605
281,0.205,0.555
282,0.185,0.525
283,0.180,0.515
284,0.185,0.525
285,0.190,0.510
286,0.190,0.475
287,0.190,0.410
288,0.200,0.365
289,0.210,0.375
290,0.275,0.395
291,0.335,0.435
292,0.390,0.450
293,0.405,0.465
294,0.405,0.475
295,0.395,0.490
296,0.420,0.530
297,0.420,0.565
298,0.405,0.565
299,0.355,0.560
300,0.285,0.515
301,0.200,0.520
302,0.110,0.500
303,0.010,0.520
304,-0.070,0.535
305,-0.200,0.555
306,-0.330,0.555
307,-0.465,0.540
308,-0.580,0.535
309,-0.700,0.505
310,-0.790,0.455
311,-0.870,0.395
312,-0.930,0.355
313,-0.975,0.310
314,-0.985,0.305
315,-0.965,0.305
316,-0.930,0.320
317,-0.870,0.350
318,-0.800,0.385
319,-0.705,0.420
320,-0.605,0.455
321,-0.495,0.475
322,-0.445,0.455
323,-0.445,0.400
324,-0.470,0.305
325,-0.525,0.200
326,-0.570,0.085
327,-0.630,-0.025
328,-0.710,-0.135
329,-0.800,-0.260
330,-0.885,-0.385
331,-0.940,-0.505
332,-0.955,-0.615
333,-0.975,-0.685
334,-0.975,-0.740
335,-0.975,-0.770
336,-0.985,-0.810
337,-1.000,-0.835
338,-0.990,-0.850
339,-0.985,-0.855
340,-0.990,-0.870
341,-1.005,-0.870
342,-0.995,-0.880
343,-1.005,-0.875
344,-1.005,-0.890
345,-0.995,-0.900
346,-0.990,-0.905
347,-1.010,-0.915
348,-1.020,-0.920
349,-1.025,-0.910
350,-1.025,-0.920
351,-1.020,-0.930
352,-1.005,-0.950
353,-1.025,-0.945
354,-1.030,-0.950
355,-1.030,-0.935
356,-1.015,-0.935
357,-1.015,-0.950
358,-1.005,-0.970
359,-1.015,-0.975
360,-1.020,-0.965
361,-1.030,-0.960
362,-1.015,-0.945
363,-0.980,-0.960
364,-0.990,-0.980
365,-0.990,-0.985
366,-1.000,-0.975
367,-1.005,-0.955
368,-0.995,-0.940
369,-0.985,-0.950
370,-1.010,-0.960
371,-1.010,-0.975
372,-0.995,-0.970
373,-1.000,-0.945
374,-0.985,-0.925
375,-0.965,-0.935
376,-0.960,-0.940
377,-0.965,-0.935
378,-0.975,-0.930
379,-0.960,-0.905
380,-0.940,-0.895
381,-0.920,-0.885
382,-0.910,-0.900
383,-0.910,-0.900
384,-0.940,-0.880
385,-0.945,-0.860
386,-0.915,-0.830
387,-0.895,-0.830
388,-0.895,-0.835
389,-0.905,-0.840
390,-0.885,-0.825
391,-0.875,-0.795
392,-0.845,-0.770
393,-0.820,-0.760
394,-0.810,-0.785
395,-0.810,-0.775
396,-0.820,-0.770
397,-0.810,-0.750
398,-0.800,-0.725
399,-0.800,-0.715
400,-0.790,-0.730
401,-0.800,-0.730
402,-0.790,-0.725
403,-0.775,-0.690
404,-0.750,-0.650
405,-0.740,-0.640
406,-0.725,-0.640
407,-0.720,-0.660
408,-0.725,-0.650
409,-0.720,-0.625
410,-0.700,-0.580
411,-0.700,-0.590
412,-0.700,-0.600
413,-0.700,-0.600
414,-0.715,-0.600
415,-0.710,-0.565
416,-0.675,-0.535
417,-0.665,-0.515
418,-0.650,-0.510
419,-0.650,-0.510
420,-0.655,-0.510
421,-0.645,-0.480
422,-0.630,-0.440
423,-0.610,-0.425
424,-0.600,-0.440
425,-0.605,-0.435
426,-0.605,-0.435
427,-0.600,-0.410
428,-0.570,-0.365
429,-0.550,-0.365
430,-0.540,-0.360
431,-0.560,-0.375
432,-0.550,-0.375
433,-0.540,-0.350
434,-0.525,-0.315
435,-0.500,-0.295
436,-0.500,-0.300
437,-0.505,-0.310
438,-0.500,-0.305
439,-0.495,-0.290
440,-0.470,-0.265
441,-0.455,-0.255
442,-0.450,-0.260
443,-0.450,-0.260
444,-0.455,-0.275
445,-0.455,-0.255
446,-0.435,-0.220
447,-0.415,-0.185
448,-0.405,-0.190
449,-0.400,-0.205
450,-0.415,-0.220
451,-0.400,-0.205
452,-0.410,-0.175
453,-0.395,-0.160
454,-0.370,-0.150
455,-0.380,-0.165
456,-0.385,-0.165
457,-0.385,-0.145
458,-0.375,-0.115
459,-0.365,-0.095
460,-0.345,-0.085
461,-0.335,-0.100
462,-0.345,-0.100
463,-0.340,-0.090
464,-0.320,-0.050
465,-0.305,-0.025
466,-0.305,-0.025
467,-0.300,-0.025
468,-0.305,-0.035
469,-0.295,-0.025
470,-0.280,0.000
471,-0.265,0.040
472,-0.255,0.040
473,-0.260,0.035
474,-0.280,0.015
475,-0.275,0.025
476,-0.270,0.045
477,-0.245,0.070
478,-0.250,0.085
479,-0.275,0.065
480,-0.275,0.055
481,-0.260,0.060
482,-0.250,0.075
483,-0.230,0.090
484,-0.230,0.105
485,-0.235,0.100
486,-0.245,0.085
487,-0.240,0.095
488,-0.220,0.090
489,-0.205,0.110
490,-0.200,0.105
491,-0.205,0.110
492,-0.220,0.105
493,-0.230,0.095
494,-0.215,0.100
495,-0.190,0.105
496,-0.200,0.125
497,-0.195,0.125
498,-0.215,0.125
499,-0.220,0.115
500,-0.220,0.110
501,-0.200,0.125
502,-0.200,0.125
503,-0.205,0.130
504,-0.215,0.115
505,-0.210,0.125
506,-0.210,0.120
507,-0.185,0.130
508,-0.185,0.135
509,-0.190,0.135
510,-0.190,0.130
511,-0.195,0.125
512,-0.175,0.120
513,-0.160,0.130
514,-0.170,0.135
515,-0.175,0.135
516,-0.175,0.130
517,-0.200,0.120
518,-0.180,0.125
519,-0.175,0.130
520,-0.175,0.140
521,-0.175,0.145
522,-0.190,0.130
523,-0.200,0.130
524,-0.175,0.130
525,-0.175,0.125
526,-0.170,0.135
527,-0.180,0.135
528,-0.185,0.140
529,-0.190,0.135
530,-0.185,0.130
531,-0.165,0.125
532,-0.145,0.130
533,-0.165,0.125
534,-0.165,0.130
535,-0.175,0.145
536,-0.170,0.145
537,-0.160,0.125
538,-0.165,0.125
539,-0.170,0.135
540,-0.195,0.140
541,-0.190,0.140
542,-0.195,0.135
543,-0.165,0.130
544,-0.175,0.125
545,-0.180,0.140
546,-0.190,0.130
547,-0.175,0.135
548,-0.170,0.125
549,-0.150,0.120
550,-0.155,0.140
551,-0.165,0.130
552,-0.160,0.135
553,-0.160,0.130
554,-0.150,0.110
555,-0.140,0.115
556,-0.135,0.120
557,-0.145,0.135
558,-0.160,0.125
559,-0.180,0.120
560,-0.160,0.120
561,-0.160,0.125
562,-0.160,0.125
563,-0.155,0.140
564,-0.160,0.140
565,-0.170,0.125
566,-0.160,0.125
567,-0.140,0.125
568,-0.140,0.130
569,-0.150,0.130
570,-0.155,0.125
571,-0.155,0.120
572,-0.140,0.130
573,-0.130,0.130
574,-0.125,0.130
575,-0.145,0.135
576,-0.145,0.125
577,-0.150,0.125
578,-0.145,0.125
579,-0.130,0.135
580,-0.135,0.130
581,-0.145,0.140
582,-0.160,0.125
583,-0.165,0.120
584,-0.150,0.130
585,-0.140,0.130
586,-0.140,0.135
587,-0.135,0.130
588,-0.140,0.120
589,-0.165,0.100
590,-0.145,0.115
591,-0.125,0.130
592,-0.120,0.135
593,-0.135,0.125
594,-0.140,0.110
595,-0.140,0.110
596,-0.135,0.100
597,-0.130,0.120
598,-0.135,0.130
599,-0.145,0.120
600,-0.150,0.115
601,-0.160,0.120
602,-0.150,0.110
603,-0.140,0.120
604,-0.135,0.125
605,-0.150,0.125
606,-0.150,0.115
607,-0.155,0.090
608,-0.145,0.110
609,-0.135,0.115
610,-0.125,0.125
611,-0.135,0.125
612,-0.130,0.100
613,-0.135,0.085
614,-0.125,0.110
615,-0.105,0.125
616,-0.115,0.125
617,-0.130,0.100
618,-0.140,0.085
619,-0.150,0.095
620,-0.130,0.110
621,-0.125,0.130
622,-0.130,0.115
623,-0.130,0.105
624,-0.140,0.085
625,-0.135,0.105
626,-0.125,0.120
627,-0.120,0.135
628,-0.110,0.135
629,-0.125,0.100
630,-0.155,0.090
631,-0.150,0.095
632,-0.130,0.120
633,-0.105,0.130
634,-0.115,0.115
635,-0.130,0.095
636,-0.125,0.075
637,-0.120,0.090
638,-0.120,0.120
639,-0.105,0.125
640,-0.110,0.120
641,-0.130,0.095
642,-0.135,0.075
643,-0.155,0.085
644,-0.125,0.115
645,-0.125,0.120
646,-0.130,0.120
647,-0.130,0.100
648,-0.135,0.075
649,-0.130,0.085
650,-0.130,0.105
651,-0.100,0.115
652,-0.105,0.115
653,-0.100,0.095
654,-0.115,0.075
655,-0.110,0.085
656,-0.110,0.110
657,-0.100,0.115
658,-0.100,0.115
659,-0.115,0.075
660,-0.120,0.075
661,-0.135,0.090
662,-0.130,0.105
663,-0.105,0.130
664,-0.115,0.105
665,-0.120,0.070
666,-0.130,0.065
667,-0.135,0.105
668,-0.110,0.115
669,-0.100,0.120
670,-0.105,0.100
671,-0.110,0.075
672,-0.120,0.060
673,-0.115,0.075
674,-0.095,0.100
675,-0.090,0.115
676,-0.090,0.105
677,-0.105,0.065
678,-0.105,0.060
679,-0.125,0.095
680,-0.105,0.110
681,-0.100,0.105
682,-0.110,0.095
683,-0.120,0.060
684,-0.125,0.060
685,-0.140,0.085
686,-0.110,0.100
687,-0.105,0.100
688,-0.100,0.085
689,-0.105,0.060
690,-0.120,0.055
691,-0.105,0.090
692,-0.110,0.095
693,-0.095,0.085
694,-0.100,0.075
695,-0.105,0.055
696,-0.110,0.050
697,-0.115,0.070
698,-0.100,0.095
699,-0.085,0.095
700,-0.090,0.070
701,-0.110,0.060
702,-0.115,0.055
703,-0.115,0.085
704,-0.120,0.105
705,-0.100,0.095
706,-0.105,0.070
707,-0.110,0.050
708,-0.115,0.060
709,-0.105,0.080
710,-0.100,0.090
711,-0.080,0.080
712,-0.080,0.060
713,-0.095,0.055
714,-0.095,0.050
715,-0.100,0.070
716,-0.085,0.090
717,-0.080,0.080
718,-0.085,0.065
719,-0.095,0.035
720,-0.110,0.040
721,-0.120,0.055
722,-0.120,0.075
723,-0.095,0.065
724,-0.090,0.055
725,-0.115,0.030
726,-0.115,0.045
727,-0.115,0.065
728,-0.100,0.070
729,-0.105,0.075
730,-0.095,0.035
731,-0.095,0.025
732,-0.100,0.050
733,-0.105,0.065
734,-0.090,0.065
735,-0.075,0.065
736,-0.080,0.040
737,-0.100,0.025
738,-0.100,0.050
739,-0.095,0.055
740,-0.095,0.055
741,-0.095,0.050
742,-0.105,0.040
743,-0.100,0.035
744,-0.120,0.040
745,-0.115,0.055
746,-0.095,0.070
747,-0.080,0.065
748,-0.080,0.035
749,-0.095,0.035
750,-0.120,0.035
751,-0.095,0.050
752,-0.105,0.060
753,-0.080,0.055
754,-0.085,0.025
755,-0.080,0.025
756,-0.095,0.025
757,-0.090,0.055
758,-0.085,0.050
759,-0.080,0.045
760,-0.070,0.015
761,-0.090,0.015
762,-0.105,0.035
763,-0.115,0.045
764,-0.095,0.055
765,-0.095,0.040
766,-0.085,0.015
767,-0.110,0.015
768,-0.110,0.035
769,-0.110,0.050
770,-0.095,0.045
771,-0.075,0.050
772,-0.070,0.015
773,-0.085,0.015
774,-0.095,0.030
775,-0.090,0.030
776,-0.080,0.050
777,-0.065,0.050
778,-0.060,0.015
779,-0.075,0.005
780,-0.090,0.020
781,-0.095,0.040
782,-0.100,0.040
783,-0.085,0.030
784,-0.085,0.020
785,-0.090,0.010
786,-0.085,0.010
787,-0.105,0.030
788,-0.085,0.045
789,-0.080,0.035
790,-0.080,0.010
791,-0.090,0.005
792,-0.090,0.010
793,-0.100,0.035
794,-0.080,0.055
795,-0.075,0.045
796,-0.070,0.030
797,-0.075,0.020
798,-0.085,0.040
799,-0.085,0.050
800,-0.070,0.070
801,-0.065,0.065
802,-0.070,0.050
803,-0.075,0.035
804,-0.080,0.035
805,-0.085,0.060
806,-0.070,0.075
807,-0.070,0.065
808,-0.055,0.025
809,-0.070,0.005
810,-0.065,0.010
811,-0.075,0.015
812,-0.070,0.030
813,-0.055,0.025
814,-0.055,-0.010
815,-0.060,-0.035
816,-0.095,-0.045
817,-0.130,-0.055
818,-0.130,-0.080
819,-0.115,-0.120
820,-0.105,-0.165
821,-0.115,-0.230
822,-0.125,-0.260
823,-0.085,-0.275
824,-0.015,-0.280
825,0.095,-0.265
826,0.225,-0.270
827,0.315,-0.295
828,0.385,-0.285
829,0.415,-0.240
830,0.465,-0.180
831,0.515,-0.085
832,0.615,0.135
833,0.750,0.430
834,0.865,0.755
835,0.900,0.970
836,0.875,1.075
837,0.820,1.115
838,0.750,1.135
839,0.675,1.175
840,0.590,1.210
841,0.455,1.230
842,0.300,1.220
843,0.115,1.160
844,-0.060,1.045
845,-0.160,0.920
846,-0.235,0.840
847,-0.250,0.815
848,-0.255,0.830
849,-0.290,0.835
850,-0.305,0.820
851,-0.365,0.795
852,-0.385,0.825
853,-0.340,0.895
854,-0.275,0.965
855,-0.245,0.985
856,-0.190,0.985
857,-0.160,0.955
858,-0.100,0.935
859,-0.060,0.910
860,-0.050,0.855
861,-0.030,0.755
862,-0.065,0.600
863,-0.105,0.455
864,-0.150,0.315
865,-0.170,0.220
866,-0.165,0.165
867,-0.145,0.125
868,-0.155,0.070
869,-0.160,0.005
870,-0.190,-0.010
871,-0.170,-0.010
872,-0.160,-0.005
873,-0.150,-0.010
874,-0.150,-0.020
875,-0.155,-0.060
876,-0.170,-0.065
877,-0.175,-0.060
878,-0.150,-0.050
879,-0.155,-0.035
880,-0.145,-0.040
881,-0.155,-0.070
882,-0.170,-0.080
883,-0.160,-0.075
884,-0.165,-0.050
885,-0.150,-0.040
886,-0.155,-0.050
887,-0.165,-0.080
888,-0.180,-0.095
889,-0.170,-0.090
890,-0.170,-0.080
891,-0.155,-0.055
892,-0.155,-0.065
893,-0.165,-0.075
894,-0.165,-0.105
895,-0.180,-0.100
896,-0.160,-0.080
897,-0.135,-0.070
898,-0.135,-0.050
899,-0.140,-0.100
900,-0.165,-0.100
901,-0.145,-0.100
902,-0.125,-0.075
903,-0.115,-0.055
904,-0.120,-0.060
905,-0.125,-0.070
906,-0.140,-0.105
907,-0.125,-0.075
908,-0.115,-0.065
909,-0.095,-0.045
910,-0.105,-0.040
911,-0.110,-0.080
912,-0.115,-0.080
913,-0.115,-0.070
914,-0.100,-0.035
915,-0.080,-0.025
916,-0.080,-0.030
917,-0.085,-0.055
918,-0.075,-0.070
919,-0.075,-0.060
920,-0.065,-0.020
921,-0.035,-0.015
922,-0.035,-0.015
923,-0.060,-0.030
924,-0.065,-0.030
925,-0.045,-0.025
926,-0.030,0.010
927,-0.015,0.035
928,-0.020,0.035
929,-0.030,0.010
930,-0.040,0.000
931,-0.040,0.025
932,-0.020,0.055
933,-0.010,0.065
934,0.010,0.055
935,-0.015,0.045
936,0.000,0.040
937,0.005,0.065
938,0.010,0.095
939,0.040,0.120
940,0.040,0.105
941,0.045,0.070
942,0.040,0.070
943,0.065,0.105
944,0.085,0.130
945,0.100,0.145
946,0.090,0.130
947,0.085,0.110
948,0.075,0.115
949,0.070,0.130
950,0.090,0.165
951,0.085,0.180
952,0.095,0.160
953,0.100,0.145
954,0.105,0.145
955,0.115,0.175
956,0.125,0.210
957,0.135,0.210
958,0.145,0.195
959,0.140,0.180
960,0.120,0.185
961,0.125,0.210
962,0.150,0.230
963,0.175,0.230
964,0.175,0.220
965,0.160,0.205
966,0.155,0.215
967,0.150,0.240
968,0.170,0.260
969,0.180,0.260
970,0.180,0.250
971,0.175,0.225
972,0.155,0.245
973,0.160,0.265
974,0.180,0.285
975,0.195,0.285
976,0.195,0.265
977,0.190,0.255
978,0.175,0.265
979,0.185,0.295
980,0.200,0.320
981,0.210,0.305
982,0.195,0.280
983,0.190,0.280
984,0.195,0.295
985,0.185,0.325
986,0.200,0.340
987,0.200,0.335
988,0.190,0.320
989,0.175,0.305
990,0.170,0.335
991,0.165,0.360
992,0.175,0.375
993,0.180,0.360
994,0.175,0.340
995,0.165,0.335
996,0.155,0.360
997,0.160,0.380
998,0.155,0.405
999,0.165,0.385
1000,0.160,0.385
1001,0.155,0.415
1002,0.130,0.440
1003,0.165,0.465
1004,0.160,0.450
1005,0.170,0.440
1006,0.145,0.440
1007,0.135,0.460
1008,0.130,0.480
1009,0.135,0.495
1010,0.145,0.485
1011,0.135,0.480
1012,0.130,0.465
1013,0.130,0.485
1014,0.135,0.510
1015,0.135,0.520
1016,0.150,0.500
1017,0.140,0.485
1018,0.125,0.480
1019,0.130,0.500
1020,0.140,0.515
1021,0.155,0.510
1022,0.165,0.500
1023,0.170,0.485
1024,0.165,0.490
1025,0.150,0.490
1026,0.165,0.505
1027,0.165,0.510
1028,0.175,0.500
1029,0.170,0.480
1030,0.150,0.485
1031,0.165,0.490
1032,0.160,0.505
1033,0.175,0.515
1034,0.195,0.490
1035,0.205,0.485
1036,0.195,0.470
1037,0.190,0.485
1038,0.205,0.515
1039,0.210,0.510
1040,0.225,0.495
1041,0.230,0.490
1042,0.230,0.485
1043,0.220,0.495
1044,0.240,0.515
1045,0.255,0.515
1046,0.275,0.495
1047,0.270,0.490
1048,0.255,0.485
1049,0.235,0.475
1050,0.220,0.470
1051,0.240,0.465
1052,0.230,0.440
1053,0.210,0.395
1054,0.160,0.370
1055,0.150,0.355
1056,0.160,0.350
1057,0.160,0.350
1058,0.185,0.350
1059,0.175,0.345
1060,0.145,0.345
1061,0.130,0.325
1062,0.130,0.320
1063,0.140,0.320
1064,0.155,0.320
1065,0.150,0.345
1066,0.100,0.350
1067,0.035,0.355
1068,-0.075,0.335
1069,-0.195,0.345
1070,-0.310,0.340
1071,-0.415,0.355
1072,-0.500,0.360
1073,-0.625,0.325
1074,-0.785,0.230
1075,-0.945,0.155
1076,-1.000,0.080
1077,-1.055,0.020
1078,-1.080,-0.025
1079,-1.110,-0.065
1080,-1.145,-0.100
1081,-1.145,-0.110
1082,-1.090,-0.070
1083,-1.005,-0.005
1084,-0.950,0.055
1085,-0.920,0.110
1086,-0.895,0.135
1087,-0.870,0.155
1088,-0.830,0.170
1089,-0.805,0.170
1090,-0.805,0.140
1091,-0.830,0.060
1092,-0.845,-0.030
1093,-0.840,-0.160
1094,-0.840,-0.310
1095,-0.840,-0.465
1096,-0.860,-0.620
1097,-0.885,-0.765
1098,-0.885,-0.865
1099,-0.870,-0.915
1100,-0.840,-0.945
1101,-0.835,-0.960
1102,-0.845,-0.995
1103,-0.860,-1.025
1104,-0.865,-1.030
1105,-0.855,-1.040
1106,-0.855,-1.025
1107,-0.850,-1.025
1108,-0.865,-1.055
1109,-0.885,-1.065
1110,-0.890,-1.075
1111,-0.875,-1.075
1112,-0.855,-1.075
1113,-0.855,-1.070
1114,-0.865,-1.065
1115,-0.880,-1.085
1116,-0.880,-1.090
1117,-0.875,-1.085
1118,-0.850,-1.080
1119,-0.860,-1.080
1120,-0.865,-1.100
1121,-0.865,-1.110
1122,-0.880,-1.110
1123,-0.860,-1.090
1124,-0.830,-1.085
1125,-0.835,-1.090
1126,-0.845,-1.110
1127,-0.860,-1.115
1128,-0.850,-1.115
1129,-0.830,-1.090
1130,-0.810,-1.065
1131,-0.810,-1.070
1132,-0.830,-1.090
1133,-0.820,-1.100
1134,-0.815,-1.080
1135,-0.800,-1.055
1136,-0.775,-1.030
1137,-0.770,-1.045
1138,-0.770,-1.050
1139,-0.770,-1.055
1140,-0.755,-1.035
1141,-0.745,-1.005
1142,-0.720,-0.980
1143,-0.730,-0.980
1144,-0.730,-1.000
1145,-0.720,-0.995
1146,-0.720,-0.975
1147,-0.690,-0.940
1148,-0.685,-0.915
1149,-0.660,-0.925
1150,-0.680,-0.940
1151,-0.675,-0.945
1152,-0.665,-0.900
1153,-0.640,-0.870
1154,-0.615,-0.830
1155,-0.620,-0.840
1156,-0.620,-0.855
1157,-0.625,-0.845
1158,-0.620,-0.810
1159,-0.595,-0.770
1160,-0.580,-0.750
1161,-0.575,-0.770
1162,-0.565,-0.775
1163,-0.570,-0.755
1164,-0.545,-0.725
1165,-0.525,-0.680
1166,-0.500,-0.675
1167,-0.505,-0.675
1168,-0.485,-0.685
1169,-0.475,-0.670
1170,-0.475,-0.635
1171,-0.455,-0.610
1172,-0.435,-0.605
1173,-0.445,-0.620
1174,-0.455,-0.630
1175,-0.435,-0.605
1176,-0.425,-0.560
1177,-0.410,-0.525
1178,-0.385,-0.535
1179,-0.380,-0.535
1180,-0.370,-0.540
1181,-0.365,-0.520
1182,-0.360,-0.480
1183,-0.335,-0.470
1184,-0.310,-0.455
1185,-0.320,-0.475
1186,-0.325,-0.475
1187,-0.335,-0.460
1188,-0.320,-0.425
1189,-0.310,-0.395
1190,-0.310,-0.385
1191,-0.280,-0.405
1192,-0.290,-0.400
1193,-0.285,-0.385
1194,-0.280,-0.345
1195,-0.255,-0.310
1196,-0.235,-0.305
1197,-0.240,-0.330
1198,-0.255,-0.315
1199,-0.260,-0.295
1200,-0.240,-0.265
1201,-0.220,-0.255
1202,-0.195,-0.255
1203,-0.205,-0.265
1204,-0.215,-0.270
1205,-0.220,-0.235
1206,-0.215,-0.220
1207,-0.220,-0.210
1208,-0.210,-0.215
1209,-0.210,-0.230
1210,-0.225,-0.215
1211,-0.225,-0.200
1212,-0.220,-0.175
1213,-0.205,-0.145
1214,-0.205,-0.145
1215,-0.210,-0.180
1216,-0.210,-0.165
1217,-0.225,-0.145
1218,-0.235,-0.130
1219,-0.205,-0.105
1220,-0.200,-0.110
1221,-0.190,-0.115
1222,-0.200,-0.095
1223,-0.215,-0.075
1224,-0.210,-0.055
1225,-0.195,-0.055
1226,-0.195,-0.055
1227,-0.200,-0.060
1228,-0.210,-0.050
1229,-0.220,-0.025
1230,-0.215,-0.005
1231,-0.215,0.000
1232,-0.210,-0.010
1233,-0.200,-0.010
1234,-0.220,-0.005
1235,-0.225,0.015
1236,-0.230,0.035
1237,-0.210,0.025
1238,-0.200,0.025
1239,-0.200,0.020
1240,-0.205,0.025
1241,-0.210,0.040
1242,-0.200,0.055
1243,-0.200,0.050
1244,-0.190,0.035
1245,-0.190,0.040
1246,-0.205,0.035
1247,-0.210,0.055
1248,-0.220,0.070
1249,-0.200,0.065
1250,-0.195,0.055
1251,-0.200,0.045
1252,-0.205,0.055
1253,-0.220,0.065
1254,-0.215,0.065
1255,-0.205,0.075
1256,-0.205,0.060
1257,-0.200,0.050
1258,-0.205,0.055
1259,-0.210,0.070
1260,-0.205,0.080
1261,-0.190,0.075
1262,-0.175,0.070
1263,-0.180,0.075
1264,-0.185,0.070
1265,-0.200,0.080
1266,-0.195,0.090
1267,-0.190,0.085
1268,-0.185,0.080
1269,-0.200,0.080
1270,-0.205,0.090
1271,-0.215,0.095
1272,-0.220,0.090
1273,-0.190,0.095
1274,-0.185,0.095
1275,-0.175,0.115
1276,-0.180,0.110
1277,-0.185,0.100
1278,-0.195,0.100
1279,-0.175,0.110
1280,-0.165,0.105
1281,-0.165,0.120
1282,-0.175,0.105
1283,-0.190,0.100
1284,-0.185,0.105
1285,-0.170,0.110
1286,-0.170,0.120
1287,-0.180,0.130
1288,-0.185,0.120
1289,-0.195,0.115
1290,-0.195,0.120
1291,-0.185,0.110
1292,-0.170,0.120
1293,-0.170,0.130
1294,-0.175,0.130
1295,-0.185,0.120
1296,-0.185,0.120
1297,-0.170,0.125
1298,-0.160,0.130
1299,-0.180,0.135
1300,-0.175,0.130
1301,-0.170,0.125
1302,-0.175,0.115
1303,-0.170,0.125
1304,-0.145,0.140
1305,-0.150,0.145
1306,-0.170,0.145
1307,-0.180,0.130
1308,-0.175,0.130
1309,-0.180,0.140
1310,-0.180,0.150
1311,-0.165,0.160
1312,-0.190,0.145
1313,-0.180,0.120
1314,-0.195,0.130
1315,-0.180,0.145
1316,-0.160,0.160
1317,-0.175,0.165
1318,-0.185,0.145
1319,-0.185,0.130
1320,-0.180,0.130
1321,-0.160,0.155
1322,-0.155,0.175
1323,-0.170,0.160
1324,-0.165,0.135
1325,-0.175,0.125
1326,-0.170,0.140
1327,-0.175,0.155
1328,-0.165,0.175
1329,-0.165,0.170
1330,-0.175,0.150
1331,-0.190,0.140
1332,-0.175,0.150
1333,-0.170,0.160
1334,-0.170,0.170
1335,-0.175,0.170
1336,-0.180,0.155
1337,-0.185,0.140
1338,-0.185,0.150
1339,-0.165,0.165
1340,-0.155,0.180
1341,-0.160,0.165
1342,-0.155,0.145
1343,-0.160,0.135
1344,-0.160,0.150
1345,-0.150,0.170
1346,-0.160,0.190
1347,-0.155,0.185
1348,-0.170,0.150
1349,-0.175,0.145
1350,-0.185,0.165
1351,-0.170,0.195
1352,-0.175,0.180
1353,-0.175,0.165
1354,-0.185,0.165
1355,-0.185,0.140
1356,-0.175,0.175
1357,-0.170,0.190
1358,-0.160,0.195
1359,-0.170,0.180
1360,-0.170,0.150
1361,-0.175,0.150
1362,-0.185,0.180
1363,-0.165,0.210
1364,-0.155,0.200
1365,-0.180,0.180
1366,-0.175,0.155
1367,-0.185,0.160
1368,-0.180,0.175
1369,-0.180,0.210
1370,-0.175,0.200
1371,-0.170,0.185
1372,-0.180,0.155
1373,-0.200,0.175
1374,-0.195,0.195
1375,-0.170,0.215
1376,-0.160,0.205
1377,-0.165,0.200
1378,-0.185,0.160
1379,-0.175,0.175
1380,-0.160,0.205
1381,-0.160,0.225
1382,-0.155,0.215
1383,-0.150,0.190
1384,-0.160,0.175
1385,-0.170,0.170
1386,-0.165,0.200
1387,-0.155,0.215
1388,-0.160,0.215
1389,-0.155,0.195
1390,-0.165,0.170
1391,-0.180,0.175
1392,-0.185,0.210
1393,-0.165,0.225
1394,-0.165,0.215
1395,-0.155,0.190
1396,-0.170,0.170
1397,-0.175,0.190
1398,-0.165,0.215
1399,-0.160,0.230
1400,-0.150,0.205
1401,-0.145,0.195
1402,-0.155,0.190
1403,-0.165,0.200
1404,-0.165,0.230
1405,-0.150,0.235
1406,-0.150,0.210
1407,-0.165,0.205
1408,-0.180,0.190
1409,-0.185,0.215
1410,-0.180,0.230
1411,-0.160,0.240
1412,-0.155,0.230
1413,-0.150,0.205
1414,-0.170,0.195
1415,-0.180,0.215
1416,-0.175,0.235
1417,-0.160,0.230
1418,-0.145,0.215
1419,-0.155,0.195
1420,-0.150,0.195
1421,-0.170,0.225
1422,-0.160,0.230
1423,-0.155,0.230
1424,-0.160,0.210
1425,-0.155,0.205
1426,-0.155,0.215
1427,-0.170,0.225
1428,-0.175,0.235
1429,-0.165,0.240
1430,-0.155,0.225
1431,-0.165,0.205
1432,-0.165,0.220
1433,-0.185,0.230
1434,-0.190,0.230
1435,-0.170,0.235
1436,-0.165,0.230
1437,-0.165,0.215
1438,-0.175,0.215
1439,-0.185,0.225
1440,-0.190,0.240
1441,-0.170,0.240
1442,-0.150,0.225
1443,-0.140,0.210
1444,-0.160,0.210
1445,-0.175,0.230
1446,-0.165,0.240
1447,-0.170,0.235
1448,-0.155,0.215
1449,-0.165,0.220
1450,-0.180,0.220
1451,-0.185,0.230
1452,-0.185,0.245
1453,-0.175,0.235
1454,-0.165,0.230
1455,-0.165,0.215
1456,-0.165,0.220
1457,-0.180,0.230
1458,-0.175,0.245
1459,-0.170,0.230
1460,-0.155,0.235
1461,-0.150,0.220
1462,-0.160,0.230
1463,-0.165,0.250
1464,-0.160,0.250
1465,-0.155,0.245
1466,-0.155,0.230
1467,-0.155,0.225
1468,-0.165,0.240
1469,-0.180,0.245
1470,-0.185,0.245
1471,-0.175,0.245
1472,-0.145,0.240
1473,-0.155,0.230
1474,-0.165,0.240
1475,-0.180,0.245
1476,-0.175,0.255
1477,-0.160,0.245
1478,-0.150,0.240
1479,-0.160,0.225
1480,-0.170,0.225
1481,-0.160,0.240
1482,-0.155,0.265
1483,-0.135,0.250
1484,-0.160,0.235
1485,-0.155,0.225
1486,-0.160,0.240
1487,-0.170,0.250
1488,-0.170,0.260
1489,-0.160,0.260
1490,-0.170,0.240
1491,-0.165,0.235
1492,-0.175,0.245
1493,-0.180,0.245
1494,-0.185,0.260
1495,-0.175,0.260
1496,-0.160,0.245
1497,-0.155,0.245
1498,-0.175,0.250
1499,-0.170,0.260
1500,-0.170,0.265
1501,-0.155,0.265
1502,-0.145,0.255
1503,-0.155,0.240
1504,-0.155,0.255
1505,-0.160,0.270
1506,-0.150,0.260
1507,-0.145,0.270
1508,-0.140,0.255
1509,-0.150,0.245
1510,-0.170,0.255
1511,-0.180,0.255
1512,-0.180,0.260
1513,-0.165,0.260
1514,-0.145,0.255
1515,-0.155,0.250
1516,-0.180,0.265
1517,-0.170,0.265
1518,-0.165,0.270
1519,-0.165,0.265
1520,-0.145,0.255
1521,-0.160,0.255
1522,-0.185,0.270
1523,-0.170,0.265
1524,-0.155,0.265
1525,-0.145,0.275
1526,-0.130,0.260
1527,-0.135,0.260
1528,-0.150,0.265
1529,-0.160,0.275
1530,-0.155,0.285
1531,-0.140,0.285
1532,-0.145,0.270
1533,-0.145,0.275
1534,-0.150,0.270
1535,-0.160,0.285
1536,-0.155,0.285
1537,-0.145,0.295
1538,-0.140,0.270
1539,-0.155,0.270
1540,-0.155,0.275
1541,-0.165,0.295
1542,-0.150,0.305
1543,-0.145,0.295
1544,-0.140,0.290
1545,-0.150,0.290
1546,-0.165,0.290
1547,-0.175,0.300
1548,-0.165,0.310
1549,-0.135,0.295
1550,-0.135,0.295
1551,-0.145,0.290
1552,-0.160,0.290
1553,-0.160,0.310
1554,-0.155,0.300
1555,-0.140,0.310
1556,-0.130,0.290
1557,-0.135,0.270
1558,-0.145,0.270
1559,-0.150,0.280
1560,-0.155,0.310
1561,-0.145,0.300
1562,-0.125,0.295
1563,-0.120,0.285
1564,-0.130,0.285
1565,-0.135,0.300
1566,-0.130,0.295
1567,-0.115,0.295
1568,-0.110,0.265
1569,-0.125,0.255
1570,-0.165,0.250
1571,-0.195,0.230
1572,-0.225,0.190
1573,-0.240,0.150
1574,-0.230,0.095
1575,-0.240,0.060
1576,-0.220,0.035
1577,-0.165,0.015
1578,-0.055,0.010
1579,0.080,0.015
1580,0.210,0.045
1581,0.300,0.040
1582,0.330,0.070
1583,0.355,0.115
1584,0.410,0.220
1585,0.540,0.435
1586,0.690,0.780
1587,0.775,1.095
1588,0.775,1.275
1589,0.720,1.325
1590,0.665,1.345
1591,0.615,1.400
1592,0.540,1.475
1593,0.415,1.515
1594,0.245,1.510
1595,0.040,1.445
1596,-0.120,1.370
1597,-0.220,1.280
1598,-0.260,1.200
1599,-0.285,1.150
1600,-0.335,1.135
1601,-0.360,1.140
1602,-0.395,1.125
1603,-0.425,1.135
1604,-0.415,1.150
1605,-0.385,1.190
1606,-0.360,1.250
1607,-0.335,1.285
1608,-0.300,1.280
1609,-0.245,1.280
1610,-0.180,1.285
1611,-0.140,1.255
1612,-0.135,1.215
1613,-0.125,1.120
1614,-0.140,1.005
1615,-0.180,0.870
1616,-0.205,0.730
1617,-0.230,0.605
1618,-0.250,0.495
1619,-0.245,0.435
1620,-0.240,0.375
1621,-0.230,0.345
1622,-0.210,0.330
1623,-0.220,0.320
1624,-0.230,0.295
1625,-0.230,0.290
1626,-0.230,0.285
1627,-0.220,0.270
1628,-0.210,0.275
1629,-0.220,0.270
1630,-0.225,0.270
1631,-0.235,0.260
1632,-0.230,0.255
1633,-0.225,0.265
1634,-0.230,0.245
1635,-0.235,0.260
1636,-0.245,0.265
1637,-0.250,0.255
1638,-0.245,0.230
1639,-0.220,0.245
1640,-0.215,0.260
1641,-0.220,0.265
1642,-0.225,0.250
1643,-0.250,0.230
1644,-0.230,0.230
1645,-0.205,0.240
1646,-0.195,0.260
1647,-0.195,0.260
1648,-0.210,0.235
1649,-0.220,0.225
1650,-0.210,0.230
1651,-0.190,0.265
1652,-0.195,0.270
1653,-0.200,0.245
1654,-0.215,0.225
1655,-0.200,0.225
1656,-0.190,0.240
1657,-0.185,0.270
1658,-0.175,0.285
1659,-0.180,0.270
1660,-0.200,0.235
1661,-0.195,0.235
1662,-0.180,0.265
1663,-0.160,0.295
1664,-0.150,0.295
1665,-0.150,0.270
1666,-0.150,0.255
1667,-0.155,0.255
1668,-0.140,0.280
1669,-0.125,0.310
1670,-0.120,0.305
1671,-0.130,0.295
1672,-0.140,0.265
1673,-0.145,0.270
1674,-0.130,0.310
1675,-0.115,0.340
1676,-0.105,0.340
1677,-0.120,0.320
1678,-0.130,0.320
1679,-0.120,0.315
1680,-0.100,0.355
1681,-0.080,0.375
1682,-0.075,0.370
1683,-0.070,0.355
1684,-0.070,0.340
1685,-0.075,0.360
1686,-0.065,0.390
1687,-0.040,0.410
1688,-0.030,0.400
1689,-0.025,0.385
1690,-0.035,0.395
1691,-0.045,0.400
1692,-0.045,0.435
1693,-0.035,0.450
1694,-0.010,0.435
1695,-0.010,0.430
1696,-0.025,0.425
1697,-0.025,0.435
1698,-0.020,0.470
1699,0.005,0.475
1700,0.010,0.480
1701,0.020,0.470
1702,0.015,0.460
1703,0.005,0.485
1704,0.025,0.505
1705,0.035,0.505
1706,0.045,0.490
1707,0.060,0.480
1708,0.040,0.495
1709,0.040,0.520
1710,0.050,0.520
1711,0.065,0.515
1712,0.070,0.515
1713,0.065,0.530
1714,0.065,0.540
1715,0.050,0.535
1716,0.060,0.550
1717,0.075,0.545
1718,0.095,0.565
1719,0.090,0.575
1720,0.075,0.550
1721,0.075,0.550
1722,0.100,0.560
1723,0.110,0.595
1724,0.110,0.605
1725,0.110,0.585
1726,0.105,0.580
1727,0.100,0.575
1728,0.105,0.595
1729,0.100,0.620
1730,0.110,0.610
1731,0.115,0.595
1732,0.100,0.600
1733,0.095,0.615
1734,0.095,0.640
1735,0.100,0.640
1736,0.095,0.630
1737,0.095,0.615
1738,0.090,0.620
1739,0.075,0.645
1740,0.085,0.665
1741,0.100,0.680
1742,0.100,0.660
1743,0.080,0.660
1744,0.075,0.655
1745,0.075,0.690
1746,0.085,0.715
1747,0.090,0.710
1748,0.070,0.700
1749,0.070,0.700
1750,0.060,0.710
1751,0.055,0.730
1752,0.055,0.765
1753,0.065,0.765
1754,0.060,0.740
1755,0.050,0.735
1756,0.050,0.750
1757,0.030,0.765
1758,0.045,0.775
1759,0.040,0.765
1760,0.045,0.745
1761,0.040,0.750
1762,0.045,0.745
1763,0.040,0.760
1764,0.060,0.760
1765,0.070,0.765
1766,0.070,0.760
1767,0.055,0.740
1768,0.050,0.740
1769,0.045,0.735
1770,0.040,0.750
1771,0.055,0.755
1772,0.065,0.740
1773,0.050,0.720
1774,0.055,0.735
1775,0.050,0.745
1776,0.070,0.750
1777,0.085,0.735
1778,0.090,0.730
1779,0.090,0.730
1780,0.090,0.735
1781,0.100,0.745
1782,0.105,0.735
1783,0.125,0.735
1784,0.130,0.730
1785,0.135,0.725
1786,0.140,0.730
1787,0.130,0.725
1788,0.135,0.715
1789,0.140,0.710
1790,0.155,0.720
1791,0.170,0.705
1792,0.165,0.705
1793,0.155,0.705
1794,0.155,0.680
1795,0.145,0.665
1796,0.135,0.650
1797,0.130,0.620
1798,0.110,0.605
1799,0.110,0.565
1800,0.140,0.525
1801,0.160,0.495
1802,0.185,0.480
1803,0.210,0.480
1804,0.195,0.480
1805,0.215,0.510
1806,0.220,0.530
1807,0.225,0.565
1808,0.205,0.595
1809,0.150,0.595
1810,0.080,0.585
1811,0.000,0.570
1812,-0.075,0.605
1813,-0.185,0.660
1814,-0.280,0.710
1815,-0.395,0.710
1816,-0.520,0.685
1817,-0.650,0.635
1818,-0.720,0.590
1819,-0.820,0.540
1820,-0.920,0.475
1821,-0.995,0.405
1822,-1.035,0.335
1823,-1.045,0.300
1824,-1.000,0.325
1825,-0.950,0.370
1826,-0.875,0.410
1827,-0.770,0.440
1828,-0.695,0.445
1829,-0.620,0.470
1830,-0.555,0.480
1831,-0.500,0.485
1832,-0.485,0.445
1833,-0.530,0.345
1834,-0.595,0.185
1835,-0.660,0.045
1836,-0.710,-0.070
1837,-0.750,-0.165
1838,-0.800,-0.285
1839,-0.835,-0.410
1840,-0.860,-0.510
1841,-0.885,-0.600
1842,-0.880,-0.645
1843,-0.865,-0.670
1844,-0.870,-0.700
1845,-0.895,-0.745
1846,-0.895,-0.765
1847,-0.905,-0.785
1848,-0.905,-0.785
1849,-0.895,-0.775
1850,-0.900,-0.780
1851,-0.905,-0.805
1852,-0.915,-0.835
1853,-0.910,-0.845
1854,-0.910,-0.845
1855,-0.895,-0.825
1856,-0.900,-0.830
1857,-0.905,-0.845
1858,-0.915,-0.880
1859,-0.915,-0.890
1860,-0.910,-0.870
1861,-0.910,-0.860
1862,-0.900,-0.850
1863,-0.895,-0.875
1864,-0.910,-0.900
1865,-0.915,-0.910
1866,-0.910,-0.895
1867,-0.895,-0.875
1868,-0.885,-0.880
1869,-0.900,-0.900
1870,-0.900,-0.925
1871,-0.910,-0.930
1872,-0.885,-0.915
1873,-0.875,-0.895
1874,-0.865,-0.895
1875,-0.870,-0.920
1876,-0.890,-0.940
1877,-0.880,-0.940
1878,-0.860,-0.915
1879,-0.840,-0.890
1880,-0.825,-0.880
1881,-0.845,-0.895
1882,-0.830,-0.925
1883,-0.835,-0.920
1884,-0.815,-0.885
1885,-0.810,-0.865
1886,-0.805,-0.850
1887,-0.800,-0.860
1888,-0.810,-0.885
1889,-0.820,-0.890
1890,-0.805,-0.855
1891,-0.785,-0.830
1892,-0.785,-0.815
1893,-0.790,-0.825
1894,-0.805,-0.830
1895,-0.795,-0.840
1896,-0.775,-0.805
1897,-0.745,-0.785
1898,-0.720,-0.760
1899,-0.720,-0.760
1900,-0.715,-0.785
1901,-0.715,-0.780
1902,-0.705,-0.760
1903,-0.675,-0.740
1904,-0.675,-0.715
1905,-0.655,-0.730
1906,-0.685,-0.725
1907,-0.675,-0.730
1908,-0.665,-0.710
1909,-0.645,-0.670
1910,-0.635,-0.650
1911,-0.645,-0.650
1912,-0.645,-0.665
1913,-0.630,-0.665
1914,-0.625,-0.655
1915,-0.605,-0.630
1916,-0.605,-0.605
1917,-0.595,-0.615
1918,-0.620,-0.605
1919,-0.610,-0.610
1920,-0.600,-0.605
1921,-0.570,-0.580
1922,-0.555,-0.555
1923,-0.555,-0.565
1924,-0.570,-0.540
1925,-0.570,-0.545
1926,-0.550,-0.530
1927,-0.520,-0.510
1928,-0.510,-0.485
1929,-0.510,-0.475
1930,-0.510,-0.475
1931,-0.515,-0.470
1932,-0.505,-0.460
1933,-0.485,-0.430
1934,-0.470,-0.400
1935,-0.465,-0.400
1936,-0.485,-0.410
1937,-0.470,-0.410
1938,-0.450,-0.400
1939,-0.430,-0.370
1940,-0.415,-0.365
1941,-0.420,-0.355
1942,-0.420,-0.370
1943,-0.420,-0.370
1944,-0.400,-0.365
1945,-0.385,-0.340
1946,-0.375,-0.310
1947,-0.365,-0.315
1948,-0.375,-0.325
1949,-0.370,-0.325
1950,-0.365,-0.320
1951,-0.350,-0.295
1952,-0.355,-0.275
1953,-0.360,-0.280
1954,-0.385,-0.290
1955,-0.370,-0.280
1956,-0.360,-0.290
1957,-0.340,-0.255
1958,-0.320,-0.240
1959,-0.330,-0.235
1960,-0.335,-0.250
1961,-0.340,-0.250
1962,-0.330,-0.230
1963,-0.305,-0.225
1964,-0.295,-0.190
1965,-0.305,-0.185
1966,-0.300,-0.190
1967,-0.300,-0.200
1968,-0.300,-0.180
1969,-0.275,-0.170
1970,-0.265,-0.140
1971,-0.270,-0.135
1972,-0.285,-0.145
1973,-0.285,-0.140
1974,-0.270,-0.135
1975,-0.260,-0.120
1976,-0.250,-0.110
1977,-0.250,-0.095
1978,-0.255,-0.100
1979,-0.265,-0.105
1980,-0.260,-0.105
1981,-0.245,-0.075
1982,-0.240,-0.070
1983,-0.230,-0.070
1984,-0.245,-0.080
1985,-0.240,-0.075
1986,-0.240,-0.085
1987,-0.220,-0.075
1988,-0.220,-0.060
1989,-0.220,-0.065
1990,-0.230,-0.070
1991,-0.225,-0.075
1992,-0.220,-0.055
1993,-0.230,-0.075
1994,-0.220,-0.055
1995,-0.230,-0.060
1996,-0.245,-0.070
1997,-0.245,-0.060
1998,-0.230,-0.065
1999,-0.215,-0.055
2000,-0.215,-0.070
2001,-0.210,-0.065
2002,-0.225,-0.060
2003,-0.230,-0.080
2004,-0.220,-0.070
2005,-0.215,-0.070
2006,-0.195,-0.065
2007,-0.200,-0.065
2008,-0.210,-0.085
2009,-0.215,-0.085
2010,-0.205,-0.075
2011,-0.215,-0.070
2012,-0.200,-0.070
2013,-0.205,-0.060
2014,-0.220,-0.080
2015,-0.220,-0.095
2016,-0.215,-0.090
2017,-0.205,-0.080
2018,-0.210,-0.065
2019,-0.210,-0.075
2020,-0.215,-0.085
2021,-0.225,-0.090
2022,-0.225,-0.090
2023,-0.205,-0.090
2024,-0.180,-0.065
2025,-0.185,-0.065
2026,-0.200,-0.090
2027,-0.190,-0.095
2028,-0.200,-0.095
2029,-0.175,-0.090
2030,-0.160,-0.075
2031,-0.185,-0.080
2032,-0.195,-0.095
2033,-0.205,-0.110
2034,-0.200,-0.105
2035,-0.205,-0.090
2036,-0.195,-0.090
2037,-0.195,-0.090
2038,-0.200,-0.110
2039,-0.210,-0.120
2040,-0.205,-0.105
2041,-0.185,-0.090
2042,-0.185,-0.085
2043,-0.195,-0.100
2044,-0.190,-0.120
2045,-0.205,-0.125
2046,-0.190,-0.120
2047,-0.175,-0.105
2048,-0.165,-0.085
2049,-0.175,-0.105
2050,-0.185,-0.125
2051,-0.185,-0.125
2052,-0.200,-0.110
2053,-0.185,-0.100
2054,-0.175,-0.100
2055,-0.185,-0.115
2056,-0.205,-0.145
2057,-0.210,-0.145
2058,-0.195,-0.125
2059,-0.180,-0.100
2060,-0.190,-0.095
2061,-0.190,-0.135
2062,-0.205,-0.160
2063,-0.200,-0.150
2064,-0.185,-0.135
2065,-0.180,-0.100
2066,-0.170,-0.120
2067,-0.175,-0.140
2068,-0.190,-0.165
2069,-0.195,-0.160
2070,-0.180,-0.130
2071,-0.175,-0.115
2072,-0.170,-0.120
2073,-0.175,-0.145
2074,-0.190,-0.165
2075,-0.200,-0.165
2076,-0.195,-0.145
2077,-0.180,-0.125
2078,-0.185,-0.130
2079,-0.175,-0.170
2080,-0.195,-0.180
2081,-0.195,-0.160
2082,-0.185,-0.135
2083,-0.175,-0.125
2084,-0.175,-0.145
2085,-0.180,-0.160
2086,-0.180,-0.180
2087,-0.185,-0.170
2088,-0.175,-0.150
2089,-0.170,-0.135
2090,-0.165,-0.155
2091,-0.170,-0.175
2092,-0.185,-0.195
2093,-0.185,-0.175
2094,-0.180,-0.145
2095,-0.165,-0.145
2096,-0.175,-0.160
2097,-0.180,-0.185
2098,-0.200,-0.195
2099,-0.200,-0.175
2100,-0.185,-0.165
2101,-0.175,-0.155
2102,-0.170,-0.170
2103,-0.175,-0.195
2104,-0.190,-0.205
2105,-0.200,-0.190
2106,-0.170,-0.160
2107,-0.155,-0.170
2108,-0.145,-0.180
2109,-0.160,-0.190
2110,-0.170,-0.215
2111,-0.175,-0.190
2112,-0.175,-0.165
2113,-0.175,-0.170
2114,-0.160,-0.185
2115,-0.170,-0.205
2116,-0.180,-0.195
2117,-0.190,-0.190
2118,-0.170,-0.175
2119,-0.185,-0.185
2120,-0.165,-0.200
2121,-0.165,-0.215
2122,-0.175,-0.215
2123,-0.185,-0.195
2124,-0.165,-0.185
2125,-0.150,-0.185
2126,-0.150,-0.210
2127,-0.155,-0.220
2128,-0.160,-0.210
2129,-0.175,-0.205
2130,-0.165,-0.185
2131,-0.150,-0.200
2132,-0.165,-0.205
2133,-0.170,-0.230
2134,-0.175,-0.215
2135,-0.180,-0.205
2136,-0.175,-0.195
2137,-0.155,-0.195
2138,-0.165,-0.220
2139,-0.175,-0.220
2140,-0.170,-0.225
2141,-0.190,-0.215
2142,-0.185,-0.205
2143,-0.170,-0.205
2144,-0.160,-0.230
2145,-0.165,-0.225
2146,-0.175,-0.220
2147,-0.175,-0.205
2148,-0.150,-0.210
2149,-0.150,-0.205
2150,-0.150,-0.225
2151,-0.155,-0.235
2152,-0.165,-0.220
2153,-0.180,-0.210
2154,-0.180,-0.210
2155,-0.165,-0.210
2156,-0.170,-0.230
2157,-0.165,-0.230
2158,-0.175,-0.230
2159,-0.185,-0.215
2160,-0.175,-0.225
2161,-0.165,-0.215
2162,-0.165,-0.245
2163,-0.185,-0.230
2164,-0.185,-0.245
2165,-0.175,-0.220
2166,-0.155,-0.230
2167,-0.145,-0.225
2168,-0.160,-0.230
2169,-0.170,-0.245
2170,-0.160,-0.245
2171,-0.170,-0.230
2172,-0.170,-0.215
2173,-0.155,-0.230
2174,-0.155,-0.230
2175,-0.160,-0.255
2176,-0.165,-0.255
2177,-0.185,-0.245
2178,-0.180,-0.210
2179,-0.165,-0.225
2180,-0.170,-0.240
2181,-0.185,-0.240
2182,-0.175,-0.240
2183,-0.175,-0.245
2184,-0.175,-0.220
2185,-0.170,-0.225
2186,-0.165,-0.235
2187,-0.170,-0.240
2188,-0.170,-0.265
2189,-0.175,-0.240
2190,-0.150,-0.220
2191,-0.150,-0.225
2192,-0.150,-0.240
2193,-0.165,-0.265
2194,-0.175,-0.260
2195,-0.195,-0.235
2196,-0.165,-0.220
2197,-0.165,-0.215
2198,-0.155,-0.240
2199,-0.165,-0.255
2200,-0.185,-0.255
2201,-0.175,-0.245
2202,-0.165,-0.225
2203,-0.155,-0.225
2204,-0.155,-0.235
2205,-0.160,-0.255
2206,-0.160,-0.260
2207,-0.175,-0.255
2208,-0.160,-0.230
2209,-0.150,-0.230
2210,-0.145,-0.225
2211,-0.145,-0.250
2212,-0.155,-0.270
2213,-0.155,-0.260
2214,-0.155,-0.235
2215,-0.150,-0.215
2216,-0.145,-0.235
2217,-0.170,-0.260
2218,-0.175,-0.275
2219,-0.185,-0.250
2220,-0.175,-0.235
2221,-0.160,-0.225
2222,-0.150,-0.235
2223,-0.170,-0.260
2224,-0.175,-0.270
2225,-0.170,-0.260
2226,-0.160,-0.245
2227,-0.150,-0.210
2228,-0.145,-0.230
2229,-0.150,-0.255
2230,-0.165,-0.280
2231,-0.165,-0.255
2232,-0.165,-0.240
2233,-0.145,-0.225
2234,-0.140,-0.230
2235,-0.155,-0.260
2236,-0.170,-0.270
2237,-0.175,-0.265
2238,-0.155,-0.240
2239,-0.155,-0.220
2240,-0.155,-0.235
2241,-0.160,-0.250
2242,-0.160,-0.275
2243,-0.165,-0.255
2244,-0.160,-0.250
2245,-0.145,-0.230
2246,-0.150,-0.225
2247,-0.155,-0.255
2248,-0.180,-0.270
2249,-0.165,-0.265
2250,-0.150,-0.245
2251,-0.140,-0.225
2252,-0.145,-0.240
2253,-0.145,-0.250
2254,-0.150,-0.275
2255,-0.165,-0.260
2256,-0.170,-0.250
2257,-0.145,-0.225
2258,-0.140,-0.230
2259,-0.145,-0.245
2260,-0.170,-0.270
2261,-0.160,-0.270
2262,-0.155,-0.255
2263,-0.150,-0.240
2264,-0.140,-0.225
2265,-0.170,-0.235
2266,-0.180,-0.265
2267,-0.175,-0.270
2268,-0.170,-0.255
2269,-0.150,-0.235
2270,-0.145,-0.230
2271,-0.170,-0.245
2272,-0.175,-0.255
2273,-0.170,-0.260
2274,-0.145,-0.255
2275,-0.135,-0.235
2276,-0.135,-0.225
2277,-0.140,-0.225
2278,-0.150,-0.245
2279,-0.165,-0.260
2280,-0.170,-0.250
2281,-0.165,-0.245
2282,-0.150,-0.225
2283,-0.165,-0.230
2284,-0.170,-0.245
2285,-0.175,-0.250
2286,-0.165,-0.250
2287,-0.150,-0.240
2288,-0.145,-0.235
2289,-0.155,-0.235
2290,-0.165,-0.245
2291,-0.170,-0.250
2292,-0.155,-0.245
2293,-0.140,-0.235
2294,-0.135,-0.225
2295,-0.150,-0.230
2296,-0.150,-0.245
2297,-0.155,-0.260
2298,-0.140,-0.245
2299,-0.135,-0.230
2300,-0.135,-0.220
2301,-0.150,-0.220
2302,-0.165,-0.235
2303,-0.175,-0.245
2304,-0.165,-0.225
2305,-0.145,-0.220
2306,-0.150,-0.205
2307,-0.170,-0.210
2308,-0.170,-0.215
2309,-0.160,-0.210
2310,-0.140,-0.220
2311,-0.130,-0.205
2312,-0.115,-0.185
2313,-0.120,-0.190
2314,-0.125,-0.200
2315,-0.135,-0.205
2316,-0.115,-0.230
2317,-0.095,-0.210
2318,-0.100,-0.225
2319,-0.125,-0.225
2320,-0.135,-0.235
2321,-0.130,-0.255
2322,-0.135,-0.255
2323,-0.140,-0.255
2324,-0.145,-0.275
2325,-0.185,-0.300
2326,-0.225,-0.340
2327,-0.230,-0.395
2328,-0.235,-0.430
2329,-0.220,-0.460
2330,-0.195,-0.500
2331,-0.165,-0.510
2332,-0.080,-0.535
2333,0.035,-0.540
2334,0.160,-0.515
2335,0.260,-0.505
2336,0.320,-0.490
2337,0.360,-0.460
2338,0.380,-0.405
2339,0.455,-0.280
2340,0.600,-0.020
2341,0.720,0.295
2342,0.770,0.575
2343,0.735,0.715
2344,0.660,0.760
2345,0.600,0.790
2346,0.545,0.835
2347,0.470,0.915
2348,0.350,0.950
2349,0.155,0.920
2350,-0.045,0.850
2351,-0.185,0.755
2352,-0.245,0.675
2353,-0.260,0.620
2354,-0.290,0.585
2355,-0.305,0.570
2356,-0.360,0.550
2357,-0.405,0.545
2358,-0.415,0.555
2359,-0.385,0.600
2360,-0.350,0.660
2361,-0.320,0.685
2362,-0.310,0.690
2363,-0.270,0.690
2364,-0.215,0.700
2365,-0.145,0.705
2366,-0.120,0.660
2367,-0.120,0.585
2368,-0.145,0.460
2369,-0.190,0.325
2370,-0.205,0.195
2371,-0.220,0.085
2372,-0.225,-0.015
2373,-0.235,-0.085
2374,-0.240,-0.145
2375,-0.225,-0.200
2376,-0.225,-0.215
2377,-0.210,-0.220
2378,-0.205,-0.215
2379,-0.205,-0.240
2380,-0.220,-0.260
2381,-0.215,-0.280
2382,-0.210,-0.280
2383,-0.210,-0.260
2384,-0.215,-0.260
2385,-0.225,-0.265
2386,-0.245,-0.295
2387,-0.235,-0.300
2388,-0.220,-0.295
2389,-0.215,-0.275
2390,-0.220,-0.275
2391,-0.220,-0.275
2392,-0.225,-0.300
2393,-0.220,-0.315
2394,-0.205,-0.305
2395,-0.210,-0.285
2396,-0.190,-0.280
2397,-0.200,-0.280
2398,-0.210,-0.310
2399,-0.200,-0.320
2400,-0.195,-0.300
2401,-0.175,-0.275
2402,-0.190,-0.265
2403,-0.195,-0.280
2404,-0.205,-0.305
2405,-0.205,-0.315
2406,-0.190,-0.300
2407,-0.175,-0.275
2408,-0.165,-0.270
2409,-0.175,-0.285
2410,-0.185,-0.305
2411,-0.190,-0.310
2412,-0.165,-0.285
2413,-0.150,-0.260
2414,-0.145,-0.255
2415,-0.150,-0.270
2416,-0.150,-0.285
2417,-0.155,-0.295
2418,-0.145,-0.285
2419,-0.125,-0.260
2420,-0.125,-0.250
2421,-0.135,-0.255
2422,-0.145,-0.260
2423,-0.130,-0.275
2424,-0.145,-0.260
2425,-0.115,-0.230
2426,-0.110,-0.235
2427,-0.120,-0.235
2428,-0.135,-0.250
2429,-0.120,-0.255
2430,-0.110,-0.240
2431,-0.095,-0.205
2432,-0.095,-0.195
2433,-0.095,-0.205
2434,-0.105,-0.215
2435,-0.100,-0.220
2436,-0.075,-0.215
2437,-0.060,-0.180
2438,-0.055,-0.175
2439,-0.075,-0.170
2440,-0.070,-0.205
2441,-0.050,-0.200
2442,-0.045,-0.175
2443,-0.030,-0.150
2444,-0.040,-0.135
2445,-0.040,-0.140
2446,-0.060,-0.165
2447,-0.050,-0.165
2448,-0.035,-0.135
2449,-0.015,-0.115
2450,-0.020,-0.105
2451,-0.025,-0.115
2452,-0.015,-0.130
2453,-0.035,-0.120
2454,-0.005,-0.115
2455,0.010,-0.100
2456,0.020,-0.080
2457,-0.005,-0.080
2458,0.010,-0.090
2459,0.000,-0.100
2460,0.015,-0.085
2461,0.040,-0.065
2462,0.045,-0.050
2463,0.045,-0.045
2464,0.040,-0.050
2465,0.050,-0.055
2466,0.055,-0.070
2467,0.065,-0.055
2468,0.055,-0.040
2469,0.060,-0.030
2470,0.050,-0.040
2471,0.040,-0.040
2472,0.060,-0.050
2473,0.075,-0.035
2474,0.075,-0.030
2475,0.075,-0.020
2476,0.075,-0.015
2477,0.065,-0.015
2478,0.090,-0.020
2479,0.100,-0.005
2480,0.100,0.000
2481,0.110,0.000
2482,0.085,0.000
2483,0.085,0.010
2484,0.105,0.005
2485,0.120,0.015
2486,0.125,0.015
2487,0.110,0.025
2488,0.095,0.035
2489,0.100,0.030
2490,0.095,0.035
2491,0.100,0.030
2492,0.100,0.035
2493,0.095,0.040
2494,0.085,0.050
2495,0.080,0.060
2496,0.090,0.075
2497,0.085,0.070
2498,0.090,0.065
2499,0.080,0.055
2500,0.080,0.080
2501,0.080,0.090
2502,0.070,0.105
2503,0.105,0.090
2504,0.100,0.090
2505,0.090,0.085
2506,0.070,0.095
2507,0.075,0.125
2508,0.075,0.145
2509,0.085,0.145
2510,0.090,0.125
2511,0.070,0.115
2512,0.045,0.135
2513,0.035,0.160
2514,0.055,0.190
2515,0.070,0.185
2516,0.070,0.175
2517,0.050,0.175
2518,0.030,0.170
2519,0.035,0.210
2520,0.045,0.225
2521,0.060,0.215
2522,0.060,0.210
2523,0.060,0.185
2524,0.030,0.200
2525,0.050,0.225
2526,0.060,0.240
2527,0.075,0.240
2528,0.075,0.230
2529,0.070,0.200
2530,0.060,0.205
2531,0.065,0.235
2532,0.065,0.240
2533,0.065,0.245
2534,0.080,0.215
2535,0.065,0.200
2536,0.065,0.195
2537,0.065,0.215
2538,0.070,0.230
2539,0.065,0.235
2540,0.085,0.215
2541,0.080,0.205
2542,0.070,0.195
2543,0.080,0.220
2544,0.090,0.225
2545,0.105,0.235
2546,0.110,0.215
2547,0.110,0.185
2548,0.095,0.180
2549,0.105,0.210
2550,0.130,0.220
2551,0.130,0.240
2552,0.145,0.220
2553,0.145,0.195
2554,0.130,0.185
2555,0.130,0.195
2556,0.155,0.220
2557,0.155,0.230
2558,0.185,0.220
2559,0.180,0.195
2560,0.170,0.185
2561,0.175,0.175
2562,0.185,0.195
2563,0.200,0.200
2564,0.185,0.185
2565,0.165,0.150
2566,0.145,0.120
2567,0.155,0.105
2568,0.165,0.115
2569,0.190,0.085
2570,0.190,0.055
2571,0.175,0.000
2572,0.165,-0.065
2573,0.170,-0.080
2574,0.175,-0.075
2575,0.185,-0.050
2576,0.165,-0.035
2577,0.135,-0.050
2578,0.120,-0.055
2579,0.080,-0.045
2580,0.050,-0.020
2581,0.005,-0.015
2582,-0.050,-0.040
2583,-0.125,-0.065
2584,-0.245,-0.085
2585,-0.360,-0.070
2586,-0.485,-0.035
2587,-0.565,-0.025
2588,-0.615,-0.020
2589,-0.710,-0.050
2590,-0.870,-0.095
2591,-1.010,-0.135
2592,-1.090,-0.160
2593,-1.105,-0.205
2594,-1.100,-0.250
2595,-1.095,-0.300
2596,-1.120,-0.315
2597,-1.110,-0.305
2598,-1.060,-0.245
2599,-0.975,-0.185
2600,-0.890,-0.115
2601,-0.830,-0.085
2602,-0.790,-0.075
2603,-0.750,-0.055
2604,-0.705,-0.040
2605,-0.710,-0.030
2606,-0.720,-0.080
2607,-0.745,-0.140
2608,-0.775,-0.220
2609,-0.790,-0.290
2610,-0.815,-0.355
2611,-0.805,-0.440
2612,-0.820,-0.585
2613,-0.850,-0.740
2614,-0.875,-0.900
2615,-0.895,-1.005
2616,-0.890,-1.080
2617,-0.895,-1.105
2618,-0.880,-1.140
2619,-0.895,-1.190
2620,-0.895,-1.230
2621,-0.905,-1.245
2622,-0.900,-1.255
2623,-0.885,-1.250
2624,-0.890,-1.255
2625,-0.910,-1.270
2626,-0.910,-1.300
2627,-0.910,-1.310
2628,-0.900,-1.315
2629,-0.880,-1.295
2630,-0.890,-1.285
2631,-0.900,-1.310
2632,-0.910,-1.320
2633,-0.910,-1.340
2634,-0.905,-1.325
2635,-0.890,-1.320
2636,-0.895,-1.320
2637,-0.885,-1.330
2638,-0.900,-1.350
2639,-0.895,-1.355
2640,-0.885,-1.350
2641,-0.865,-1.335
2642,-0.865,-1.335
2643,-0.865,-1.345
2644,-0.870,-1.360
2645,-0.870,-1.365
2646,-0.860,-1.360
2647,-0.850,-1.355
2648,-0.840,-1.325
2649,-0.840,-1.335
2650,-0.840,-1.340
2651,-0.845,-1.345
2652,-0.825,-1.335
2653,-0.810,-1.310
2654,-0.790,-1.305
2655,-0.790,-1.305
2656,-0.805,-1.310
2657,-0.805,-1.310
2658,-0.790,-1.300
2659,-0.770,-1.275
2660,-0.765,-1.265
2661,-0.765,-1.265
2662,-0.770,-1.260
2663,-0.770,-1.265
2664,-0.755,-1.245
2665,-0.725,-1.220
2666,-0.720,-1.200
2667,-0.715,-1.200
2668,-0.735,-1.195
2669,-0.725,-1.200
2670,-0.705,-1.180
2671,-0.695,-1.150
2672,-0.670,-1.135
2673,-0.655,-1.125
2674,-0.655,-1.135
2675,-0.655,-1.125
2676,-0.640,-1.110
2677,-0.635,-1.085
2678,-0.625,-1.065
2679,-0.620,-1.055
2680,-0.635,-1.060
2681,-0.635,-1.050
2682,-0.615,-1.045
2683,-0.600,-1.005
2684,-0.585,-0.995
2685,-0.580,-0.990
2686,-0.585,-0.980
2687,-0.585,-0.975
2688,-0.550,-0.960
2689,-0.535,-0.935
2690,-0.535,-0.910
2691,-0.525,-0.895
2692,-0.525,-0.895
2693,-0.515,-0.895
2694,-0.505,-0.875
2695,-0.480,-0.860
2696,-0.470,-0.830
2697,-0.470,-0.830
2698,-0.470,-0.820
2699,-0.465,-0.825
2700,-0.450,-0.795
2701,-0.430,-0.770
2702,-0.415,-0.750
2703,-0.420,-0.730
2704,-0.410,-0.740
2705,-0.405,-0.725
2706,-0.385,-0.715
2707,-0.350,-0.670
2708,-0.330,-0.655
2709,-0.335,-0.660
2710,-0.350,-0.665
2711,-0.340,-0.645
2712,-0.330,-0.635
2713,-0.300,-0.600
2714,-0.305,-0.585
2715,-0.295,-0.595
2716,-0.285,-0.600
2717,-0.275,-0.600
2718,-0.255,-0.600
2719,-0.255,-0.565
2720,-0.245,-0.565
2721,-0.260,-0.565
2722,-0.275,-0.570
2723,-0.275,-0.570
2724,-0.265,-0.560
2725,-0.255,-0.520
2726,-0.255,-0.510
2727,-0.250,-0.535
2728,-0.245,-0.540
2729,-0.255,-0.535
2730,-0.245,-0.505
2731,-0.210,-0.485
2732,-0.225,-0.475
2733,-0.240,-0.490
2734,-0.245,-0.510
2735,-0.245,-0.495
2736,-0.235,-0.470
2737,-0.235,-0.440
2738,-0.230,-0.430
2739,-0.220,-0.440
2740,-0.240,-0.455
2741,-0.250,-0.420
2742,-0.250,-0.380
2743,-0.235,-0.365
2744,-0.230,-0.350
2745,-0.240,-0.375
2746,-0.240,-0.385
2747,-0.240,-0.365
2748,-0.230,-0.325
2749,-0.220,-0.300
2750,-0.220,-0.290
2751,-0.220,-0.305
2752,-0.230,-0.325
2753,-0.230,-0.305
2754,-0.240,-0.275
2755,-0.205,-0.245
2756,-0.195,-0.265
2757,-0.215,-0.275
2758,-0.225,-0.290
2759,-0.225,-0.270
2760,-0.215,-0.245
2761,-0.205,-0.225
2762,-0.210,-0.225
2763,-0.230,-0.245
2764,-0.235,-0.255
2765,-0.240,-0.250
2766,-0.210,-0.225
2767,-0.210,-0.200
2768,-0.200,-0.210
2769,-0.225,-0.235
2770,-0.225,-0.245
2771,-0.225,-0.235
2772,-0.210,-0.190
2773,-0.195,-0.185
2774,-0.185,-0.205
2775,-0.195,-0.225
2776,-0.210,-0.230
2777,-0.210,-0.205
2778,-0.205,-0.185
2779,-0.195,-0.185
2780,-0.195,-0.205
2781,-0.200,-0.230
2782,-0.210,-0.220
2783,-0.215,-0.190
2784,-0.210,-0.185
2785,-0.215,-0.180
2786,-0.190,-0.195
2787,-0.200,-0.215
2788,-0.205,-0.215
2789,-0.215,-0.190
2790,-0.205,-0.170
2791,-0.195,-0.190
2792,-0.195,-0.195
2793,-0.205,-0.205
2794,-0.200,-0.210
2795,-0.200,-0.190
2796,-0.195,-0.175
2797,-0.190,-0.165
2798,-0.180,-0.195
2799,-0.195,-0.205
2800,-0.190,-0.210
2801,-0.205,-0.185
2802,-0.210,-0.165
2803,-0.195,-0.175
2804,-0.190,-0.190
2805,-0.195,-0.210
2806,-0.210,-0.200
2807,-0.210,-0.185
2808,-0.190,-0.170
2809,-0.190,-0.170
2810,-0.180,-0.185
2811,-0.190,-0.195
2812,-0.200,-0.190
2813,-0.195,-0.175
2814,-0.190,-0.165
2815,-0.165,-0.185
2816,-0.155,-0.185
2817,-0.175,-0.190
2818,-0.195,-0.180
2819,-0.205,-0.175
2820,-0.185,-0.165
2821,-0.190,-0.165
2822,-0.190,-0.180
2823,-0.190,-0.185
2824,-0.210,-0.180
2825,-0.210,-0.165
2826,-0.190,-0.160
2827,-0.185,-0.170
2828,-0.175,-0.180
2829,-0.190,-0.175
2830,-0.200,-0.160
2831,-0.200,-0.160
2832,-0.195,-0.155
2833,-0.175,-0.175
2834,-0.170,-0.175
2835,-0.180,-0.190
2836,-0.180,-0.185
2837,-0.190,-0.165
2838,-0.175,-0.160
2839,-0.170,-0.170
2840,-0.165,-0.180
2841,-0.190,-0.185
2842,-0.185,-0.185
2843,-0.195,-0.165
2844,-0.185,-0.155
2845,-0.170,-0.170
2846,-0.165,-0.185
2847,-0.175,-0.190
2848,-0.190,-0.180
2849,-0.200,-0.165
2850,-0.190,-0.160
2851,-0.170,-0.175
2852,-0.165,-0.165
2853,-0.175,-0.180
2854,-0.170,-0.180
2855,-0.180,-0.155
2856,-0.180,-0.155
2857,-0.155,-0.155
2858,-0.160,-0.170
2859,-0.170,-0.180
2860,-0.190,-0.175
2861,-0.180,-0.160
2862,-0.175,-0.160
2863,-0.170,-0.170
2864,-0.160,-0.185
2865,-0.175,-0.180
2866,-0.175,-0.175
2867,-0.200,-0.165
2868,-0.180,-0.150
2869,-0.160,-0.160
2870,-0.175,-0.175
2871,-0.175,-0.190
2872,-0.190,-0.160
2873,-0.190,-0.160
2874,-0.175,-0.165
2875,-0.155,-0.165
2876,-0.150,-0.185
2877,-0.170,-0.175
2878,-0.175,-0.170
2879,-0.190,-0.165
2880,-0.175,-0.170
2881,-0.180,-0.180
2882,-0.175,-0.180
2883,-0.185,-0.185
2884,-0.195,-0.175
2885,-0.200,-0.170
2886,-0.195,-0.165
2887,-0.175,-0.170
2888,-0.190,-0.180
2889,-0.190,-0.175
2890,-0.205,-0.175
2891,-0.200,-0.170
2892,-0.180,-0.170
2893,-0.170,-0.170
2894,-0.175,-0.175
2895,-0.175,-0.185
2896,-0.185,-0.185
2897,-0.205,-0.170
2898,-0.190,-0.175
2899,-0.170,-0.195
2900,-0.165,-0.185
2901,-0.175,-0.200
2902,-0.185,-0.180
2903,-0.200,-0.180
2904,-0.180,-0.175
2905,-0.175,-0.185
2906,-0.175,-0.200
2907,-0.185,-0.190
2908,-0.195,-0.175
2909,-0.190,-0.170
2910,-0.185,-0.170
2911,-0.180,-0.185
2912,-0.185,-0.190
2913,-0.190,-0.195
2914,-0.195,-0.175
2915,-0.195,-0.170
2916,-0.190,-0.170
2917,-0.170,-0.180
2918,-0.175,-0.185
2919,-0.170,-0.205
2920,-0.185,-0.185
2921,-0.200,-0.175
2922,-0.170,-0.175
2923,-0.170,-0.185
2924,-0.160,-0.200
2925,-0.195,-0.195
2926,-0.185,-0.205
2927,-0.190,-0.180
2928,-0.185,-0.170
2929,-0.175,-0.185
2930,-0.170,-0.195
2931,-0.185,-0.190
2932,-0.180,-0.190
2933,-0.185,-0.170
2934,-0.180,-0.170
2935,-0.170,-0.180
2936,-0.155,-0.185
2937,-0.170,-0.205
2938,-0.180,-0.195
2939,-0.180,-0.175
2940,-0.165,-0.165
2941,-0.175,-0.180
2942,-0.165,-0.185
2943,-0.165,-0.205
2944,-0.180,-0.190
2945,-0.185,-0.180
2946,-0.190,-0.175
2947,-0.175,-0.185
2948,-0.175,-0.200
2949,-0.185,-0.205
2950,-0.180,-0.190
2951,-0.190,-0.180
2952,-0.175,-0.165
2953,-0.180,-0.185
2954,-0.180,-0.185
2955,-0.170,-0.205
2956,-0.185,-0.190
2957,-0.180,-0.185
2958,-0.170,-0.180
2959,-0.155,-0.185
2960,-0.155,-0.190
2961,-0.165,-0.195
2962,-0.165,-0.190
2963,-0.170,-0.180
2964,-0.165,-0.170
2965,-0.155,-0.185
2966,-0.155,-0.195
2967,-0.175,-0.195
2968,-0.190,-0.200
2969,-0.185,-0.180
2970,-0.175,-0.180
2971,-0.170,-0.195
2972,-0.170,-0.210
2973,-0.175,-0.205
2974,-0.180,-0.195
2975,-0.175,-0.180
2976,-0.170,-0.175
2977,-0.160,-0.175
2978,-0.165,-0.195
2979,-0.170,-0.195
2980,-0.175,-0.205
2981,-0.170,-0.180
2982,-0.160,-0.180
2983,-0.155,-0.185
2984,-0.165,-0.195
2985,-0.180,-0.205
2986,-0.190,-0.200
2987,-0.190,-0.185
2988,-0.185,-0.180
2989,-0.180,-0.190
2990,-0.170,-0.210
2991,-0.170,-0.215
2992,-0.195,-0.205
2993,-0.190,-0.190
2994,-0.170,-0.180
2995,-0.170,-0.190
2996,-0.165,-0.200
2997,-0.180,-0.205
2998,-0.195,-0.210
2999,-0.180,-0.195
3000,-0.170,-0.180
3001,-0.155,-0.190
3002,-0.160,-0.200
3003,-0.170,-0.215
3004,-0.170,-0.205
3005,-0.180,-0.195
3006,-0.160,-0.180
3007,-0.160,-0.180
3008,-0.175,-0.210
3009,-0.175,-0.210
3010,-0.190,-0.200
3011,-0.190,-0.180
3012,-0.190,-0.175
3013,-0.175,-0.190
3014,-0.175,-0.200
3015,-0.185,-0.210
3016,-0.185,-0.205
3017,-0.180,-0.180
3018,-0.170,-0.190
3019,-0.165,-0.185
3020,-0.165,-0.215
3021,-0.170,-0.220
3022,-0.170,-0.205
3023,-0.165,-0.195
3024,-0.165,-0.185
3025,-0.155,-0.205
3026,-0.145,-0.210
3027,-0.160,-0.205
3028,-0.195,-0.210
3029,-0.190,-0.195
3030,-0.175,-0.180
3031,-0.160,-0.205
3032,-0.165,-0.210
3033,-0.170,-0.215
3034,-0.175,-0.210
3035,-0.175,-0.195
3036,-0.170,-0.195
3037,-0.155,-0.215
3038,-0.165,-0.215
3039,-0.170,-0.220
3040,-0.165,-0.205
3041,-0.180,-0.200
3042,-0.160,-0.200
3043,-0.145,-0.210
3044,-0.145,-0.210
3045,-0.160,-0.215
3046,-0.165,-0.195
3047,-0.185,-0.195
3048,-0.180,-0.195
3049,-0.175,-0.205
3050,-0.165,-0.200
3051,-0.155,-0.200
3052,-0.185,-0.200
3053,-0.185,-0.190
3054,-0.175,-0.205
3055,-0.155,-0.210
3056,-0.160,-0.210
3057,-0.185,-0.205
3058,-0.195,-0.205
3059,-0.185,-0.195
3060,-0.165,-0.195
3061,-0.155,-0.205
3062,-0.150,-0.205
3063,-0.160,-0.195
3064,-0.185,-0.185
3065,-0.170,-0.185
3066,-0.155,-0.200
3067,-0.155,-0.195
3068,-0.170,-0.180
3069,-0.175,-0.185
3070,-0.180,-0.195
3071,-0.180,-0.200
3072,-0.170,-0.200
3073,-0.160,-0.195
3074,-0.160,-0.180
3075,-0.165,-0.180
3076,-0.175,-0.200
3077,-0.200,-0.195
3078,-0.160,-0.190
3079,-0.155,-0.190
3080,-0.150,-0.175
3081,-0.155,-0.175
3082,-0.160,-0.195
3083,-0.150,-0.210
3084,-0.130,-0.180
3085,-0.125,-0.180
3086,-0.120,-0.170
3087,-0.130,-0.185
3088,-0.135,-0.185
3089,-0.140,-0.195
3090,-0.130,-0.185
3091,-0.105,-0.160
3092,-0.105,-0.160
3093,-0.130,-0.180
3094,-0.165,-0.220
3095,-0.195,-0.240
3096,-0.200,-0.275
3097,-0.180,-0.290
3098,-0.160,-0.320
3099,-0.170,-0.375
3100,-0.135,-0.425
3101,-0.055,-0.455
3102,0.075,-0.435
3103,0.200,-0.415
3104,0.300,-0.395
3105,0.340,-0.410
3106,0.350,-0.410
3107,0.375,-0.355
3108,0.460,-0.215
3109,0.590,0.035
3110,0.715,0.355
3111,0.750,0.605
3112,0.725,0.725
3113,0.660,0.795
3114,0.610,0.860
3115,0.565,0.930
3116,0.480,0.965
3117,0.330,0.955
3118,0.145,0.915
3119,-0.050,0.860
3120,-0.175,0.790
3121,-0.220,0.710
3122,-0.240,0.620
3123,-0.265,0.560
3124,-0.305,0.560
3125,-0.335,0.565
3126,-0.365,0.580
3127,-0.380,0.590
3128,-0.380,0.625
3129,-0.370,0.645
3130,-0.340,0.675
3131,-0.310,0.715
3132,-0.260,0.750
3133,-0.195,0.760
3134,-0.155,0.735
3135,-0.135,0.660
3136,-0.155,0.585
3137,-0.185,0.480
3138,-0.200,0.390
3139,-0.225,0.245
3140,-0.235,0.105
3141,-0.245,-0.010
3142,-0.255,-0.080
3143,-0.245,-0.105
3144,-0.235,-0.120
3145,-0.225,-0.125
3146,-0.225,-0.175
3147,-0.245,-0.190
3148,-0.260,-0.215
3149,-0.260,-0.200
3150,-0.250,-0.185
3151,-0.245,-0.185
3152,-0.235,-0.205
3153,-0.250,-0.235
3154,-0.265,-0.255
3155,-0.265,-0.230
3156,-0.260,-0.200
3157,-0.235,-0.210
3158,-0.240,-0.220
3159,-0.255,-0.240
3160,-0.245,-0.265
3161,-0.245,-0.250
3162,-0.225,-0.210
3163,-0.215,-0.210
3164,-0.220,-0.225
3165,-0.225,-0.250
3166,-0.235,-0.255
3167,-0.250,-0.250
3168,-0.250,-0.225
3169,-0.235,-0.210
3170,-0.220,-0.235
3171,-0.230,-0.265
3172,-0.245,-0.265
3173,-0.240,-0.245
3174,-0.225,-0.220
3175,-0.205,-0.220
3176,-0.215,-0.230
3177,-0.225,-0.250
3178,-0.220,-0.255
3179,-0.215,-0.245
3180,-0.200,-0.215
3181,-0.195,-0.225
3182,-0.180,-0.230
3183,-0.180,-0.245
3184,-0.185,-0.245
3185,-0.180,-0.225
3186,-0.175,-0.200
3187,-0.160,-0.200
3188,-0.160,-0.205
3189,-0.170,-0.225
3190,-0.185,-0.240
3191,-0.175,-0.220
3192,-0.160,-0.190
3193,-0.145,-0.185
3194,-0.145,-0.200
3195,-0.155,-0.200
3196,-0.155,-0.210
3197,-0.160,-0.205
3198,-0.135,-0.160
3199,-0.115,-0.160
3200,-0.115,-0.165
3201,-0.130,-0.180
3202,-0.130,-0.195
3203,-0.135,-0.175
3204,-0.120,-0.135
3205,-0.090,-0.125
3206,-0.085,-0.135
3207,-0.105,-0.145
3208,-0.095,-0.155
3209,-0.100,-0.145
3210,-0.070,-0.120
3211,-0.060,-0.100
3212,-0.070,-0.090
3213,-0.070,-0.120
3214,-0.085,-0.115
3215,-0.085,-0.100
3216,-0.055,-0.070
3217,-0.035,-0.060
3218,-0.040,-0.065
3219,-0.045,-0.075
3220,-0.050,-0.080
3221,-0.040,-0.070
3222,-0.030,-0.040
3223,-0.010,-0.025
3224,-0.010,-0.030
3225,0.000,-0.050
3226,-0.010,-0.055
3227,-0.020,-0.040
3228,-0.005,-0.015
3229,0.020,0.005
3230,0.020,0.010
3231,0.005,-0.010
3232,0.005,-0.020
3233,0.000,-0.005
3234,0.010,0.010
3235,0.035,0.035
3236,0.040,0.040
3237,0.035,0.010
3238,0.035,0.010
3239,0.030,0.015
3240,0.050,0.040
3241,0.055,0.060
3242,0.065,0.050
3243,0.060,0.045
3244,0.050,0.025
3245,0.065,0.040
3246,0.075,0.070
3247,0.100,0.090
3248,0.075,0.080
3249,0.085,0.055
3250,0.085,0.045
3251,0.080,0.060
3252,0.090,0.095
3253,0.100,0.105
3254,0.095,0.110
3255,0.080,0.100
3256,0.075,0.085
3257,0.070,0.090
3258,0.090,0.120
3259,0.105,0.130
3260,0.095,0.140
3261,0.075,0.115
3262,0.080,0.115
3263,0.070,0.125
3264,0.090,0.165
3265,0.110,0.180
3266,0.100,0.165
3267,0.090,0.135
3268,0.080,0.150
3269,0.075,0.170
3270,0.080,0.185
3271,0.090,0.225
3272,0.075,0.195
3273,0.060,0.185
3274,0.050,0.195
3275,0.050,0.215
3276,0.055,0.245
3277,0.060,0.265
3278,0.070,0.245
3279,0.060,0.245
3280,0.050,0.230
3281,0.055,0.250
3282,0.060,0.290
3283,0.060,0.300
3284,0.075,0.295
3285,0.060,0.275
3286,0.060,0.260
3287,0.055,0.280
3288,0.060,0.310
3289,0.090,0.315
3290,0.090,0.310
3291,0.070,0.285
3292,0.035,0.285
3293,0.055,0.310
3294,0.070,0.320
3295,0.085,0.330
3296,0.090,0.315
3297,0.075,0.290
3298,0.060,0.290
3299,0.075,0.300
3300,0.085,0.330
3301,0.105,0.345
3302,0.105,0.315
3303,0.100,0.295
3304,0.090,0.285
3305,0.100,0.285
3306,0.105,0.320
3307,0.130,0.330
3308,0.130,0.310
3309,0.130,0.290
3310,0.120,0.275
3311,0.120,0.295
3312,0.145,0.325
3313,0.155,0.325
3314,0.160,0.305
3315,0.145,0.280
3316,0.150,0.295
3317,0.155,0.310
3318,0.170,0.330
3319,0.190,0.320
3320,0.195,0.300
3321,0.195,0.280
3322,0.185,0.295
3323,0.190,0.315
3324,0.220,0.335
3325,0.225,0.320
3326,0.245,0.300
3327,0.215,0.265
3328,0.205,0.255
3329,0.200,0.260
3330,0.190,0.265
3331,0.185,0.250
3332,0.175,0.210
3333,0.150,0.160
3334,0.145,0.140
3335,0.135,0.130
3336,0.155,0.105
3337,0.160,0.085
3338,0.150,0.055
3339,0.130,0.055
3340,0.085,0.070
3341,0.050,0.090
3342,0.020,0.100
3343,0.005,0.065
3344,-0.040,0.040
3345,-0.080,0.010
3346,-0.115,0.005
3347,-0.150,0.015
3348,-0.210,0.040
3349,-0.310,0.065
3350,-0.435,0.085
3351,-0.555,0.085
3352,-0.625,0.135
3353,-0.675,0.170
3354,-0.760,0.155
3355,-0.880,0.090
3356,-0.975,0.015
3357,-1.030,-0.050
3358,-1.050,-0.070
3359,-1.040,-0.050
3360,-1.025,-0.025
3361,-0.995,-0.010
3362,-0.940,-0.020
3363,-0.870,-0.005
3364,-0.795,0.040
3365,-0.750,0.110
3366,-0.730,0.135
3367,-0.720,0.115
3368,-0.720,0.060
3369,-0.725,0.020
3370,-0.745,-0.005
3371,-0.765,-0.025
3372,-0.795,-0.090
3373,-0.805,-0.200
3374,-0.830,-0.315
3375,-0.855,-0.455
3376,-0.860,-0.580
3377,-0.865,-0.695
3378,-0.870,-0.800
3379,-0.855,-0.915
3380,-0.850,-1.010
3381,-0.865,-1.090
3382,-0.875,-1.100
3383,-0.870,-1.105
3384,-0.865,-1.095
3385,-0.855,-1.120
3386,-0.855,-1.155
3387,-0.865,-1.170
3388,-0.865,-1.155
3389,-0.875,-1.150
3390,-0.860,-1.150
3391,-0.850,-1.165
3392,-0.850,-1.195
3393,-0.875,-1.200
3394,-0.890,-1.210
3395,-0.885,-1.175
3396,-0.875,-1.185
3397,-0.850,-1.215
3398,-0.845,-1.220
3399,-0.880,-1.235
3400,-0.875,-1.215
3401,-0.860,-1.195
3402,-0.850,-1.195
3403,-0.840,-1.210
3404,-0.820,-1.235
3405,-0.830,-1.230
3406,-0.830,-1.210
3407,-0.820,-1.190
3408,-0.805,-1.195
3409,-0.800,-1.215
3410,-0.800,-1.220
3411,-0.795,-1.225
3412,-0.805,-1.205
3413,-0.810,-1.190
3414,-0.805,-1.185
3415,-0.785,-1.190
3416,-0.770,-1.200
3417,-0.780,-1.200
3418,-0.790,-1.170
3419,-0.775,-1.140
3420,-0.755,-1.150
3421,-0.725,-1.135
3422,-0.715,-1.145
3423,-0.735,-1.140
3424,-0.730,-1.125
3425,-0.715,-1.095
3426,-0.700,-1.100
3427,-0.680,-1.090
3428,-0.665,-1.085
3429,-0.660,-1.070
3430,-0.670,-1.045
3431,-0.665,-1.040
3432,-0.645,-1.035
3433,-0.620,-1.025
3434,-0.620,-0.995
3435,-0.615,-1.000
3436,-0.620,-0.975
3437,-0.605,-0.960
3438,-0.600,-0.970
3439,-0.570,-0.945
3440,-0.575,-0.930
3441,-0.565,-0.910
3442,-0.565,-0.900
3443,-0.555,-0.895
3444,-0.540,-0.880
3445,-0.520,-0.860
3446,-0.510,-0.840
3447,-0.500,-0.835
3448,-0.500,-0.810
3449,-0.485,-0.800
3450,-0.475,-0.790
3451,-0.455,-0.780
3452,-0.455,-0.760
3453,-0.450,-0.755
3454,-0.460,-0.740
3455,-0.460,-0.730
3456,-0.435,-0.720
3457,-0.415,-0.695
3458,-0.410,-0.690
3459,-0.405,-0.675
3460,-0.400,-0.670
3461,-0.390,-0.660
3462,-0.370,-0.640
3463,-0.350,-0.625
3464,-0.340,-0.595
3465,-0.340,-0.595
3466,-0.330,-0.580
3467,-0.320,-0.575
3468,-0.295,-0.555
3469,-0.270,-0.535
3470,-0.260,-0.515
3471,-0.275,-0.515
3472,-0.280,-0.535
3473,-0.270,-0.525
3474,-0.260,-0.495
3475,-0.245,-0.460
3476,-0.225,-0.460
3477,-0.225,-0.460
3478,-0.225,-0.480
3479,-0.215,-0.465
3480,-0.205,-0.435
3481,-0.180,-0.430
3482,-0.185,-0.430
3483,-0.195,-0.435
3484,-0.200,-0.460
3485,-0.185,-0.445
3486,-0.175,-0.405
3487,-0.150,-0.385
3488,-0.160,-0.385
3489,-0.155,-0.405
3490,-0.165,-0.395
3491,-0.165,-0.380
3492,-0.150,-0.340
3493,-0.140,-0.330
3494,-0.130,-0.335
3495,-0.150,-0.360
3496,-0.160,-0.355
3497,-0.175,-0.330
3498,-0.165,-0.290
3499,-0.145,-0.280
3500,-0.150,-0.280
3501,-0.165,-0.305
3502,-0.170,-0.275
3503,-0.150,-0.240
3504,-0.145,-0.195
3505,-0.115,-0.195
3506,-0.115,-0.205
3507,-0.140,-0.215
3508,-0.150,-0.210
3509,-0.140,-0.165
3510,-0.135,-0.150
3511,-0.130,-0.145
3512,-0.135,-0.150
3513,-0.160,-0.175
3514,-0.160,-0.165
3515,-0.155,-0.120
3516,-0.130,-0.105
3517,-0.135,-0.100
3518,-0.140,-0.125
3519,-0.140,-0.140
3520,-0.145,-0.130
3521,-0.150,-0.100
3522,-0.135,-0.080
3523,-0.120,-0.090
3524,-0.125,-0.110
3525,-0.135,-0.120
3526,-0.135,-0.110
3527,-0.130,-0.085
3528,-0.120,-0.075
3529,-0.110,-0.090
3530,-0.110,-0.110
3531,-0.120,-0.115
3532,-0.140,-0.105
3533,-0.145,-0.075
3534,-0.140,-0.070
3535,-0.135,-0.075
3536,-0.120,-0.095
3537,-0.140,-0.105
3538,-0.155,-0.085
3539,-0.145,-0.070
3540,-0.145,-0.065
3541,-0.105,-0.075
3542,-0.115,-0.090
3543,-0.130,-0.090
3544,-0.135,-0.075
3545,-0.130,-0.065
3546,-0.110,-0.055
3547,-0.105,-0.065
3548,-0.110,-0.080
3549,-0.120,-0.080
3550,-0.130,-0.080
3551,-0.125,-0.060
3552,-0.130,-0.070
3553,-0.120,-0.080
3554,-0.130,-0.085
3555,-0.125,-0.080
3556,-0.140,-0.070
3557,-0.130,-0.065
3558,-0.140,-0.065
3559,-0.115,-0.085
3560,-0.110,-0.070
3561,-0.125,-0.065
3562,-0.145,-0.050
3563,-0.130,-0.065
3564,-0.115,-0.065
3565,-0.100,-0.070
3566,-0.100,-0.065
3567,-0.110,-0.065
3568,-0.115,-0.070
3569,-0.120,-0.050
3570,-0.110,-0.050
3571,-0.100,-0.060
3572,-0.120,-0.070
3573,-0.120,-0.065
3574,-0.130,-0.055
3575,-0.125,-0.065
3576,-0.110,-0.070
3577,-0.100,-0.060
3578,-0.095,-0.060
3579,-0.110,-0.060
3580,-0.135,-0.055
3581,-0.130,-0.060
3582,-0.115,-0.060
3583,-0.110,-0.060
3584,-0.100,-0.055
3585,-0.110,-0.050
3586,-0.110,-0.055
3587,-0.105,-0.075
3588,-0.100,-0.060
3589,-0.080,-0.055
3590,-0.085,-0.035
3591,-0.105,-0.050
3592,-0.120,-0.055
3593,-0.135,-0.050
3594,-0.105,-0.055
3595,-0.100,-0.055
3596,-0.115,-0.050
3597,-0.100,-0.045
3598,-0.125,-0.050
3599,-0.120,-0.055
3600,-0.105,-0.065
3601,-0.095,-0.055
3602,-0.095,-0.050
3603,-0.105,-0.040
3604,-0.110,-0.060
3605,-0.100,-0.065
3606,-0.090,-0.055
3607,-0.075,-0.055
3608,-0.080,-0.040
3609,-0.095,-0.050
3610,-0.105,-0.065
3611,-0.105,-0.065
3612,-0.095,-0.060
3613,-0.085,-0.050
3614,-0.095,-0.040
3615,-0.100,-0.050
3616,-0.120,-0.075
3617,-0.115,-0.075
3618,-0.095,-0.060
3619,-0.095,-0.045
3620,-0.105,-0.030
3621,-0.110,-0.055
3622,-0.125,-0.070
3623,-0.115,-0.070
3624,-0.095,-0.055
3625,-0.075,-0.040
3626,-0.075,-0.035
3627,-0.100,-0.050
3628,-0.095,-0.075
3629,-0.095,-0.080
3630,-0.085,-0.065
3631,-0.075,-0.050
3632,-0.090,-0.045
3633,-0.105,-0.065
3634,-0.110,-0.070
3635,-0.110,-0.080
3636,-0.095,-0.055
3637,-0.085,-0.055
3638,-0.090,-0.050
3639,-0.105,-0.060
3640,-0.115,-0.080
3641,-0.110,-0.070
3642,-0.085,-0.070
3643,-0.100,-0.055
3644,-0.095,-0.045
3645,-0.085,-0.055
3646,-0.095,-0.075
3647,-0.090,-0.075
3648,-0.075,-0.065
3649,-0.070,-0.050
3650,-0.075,-0.045
3651,-0.095,-0.065
3652,-0.100,-0.080
3653,-0.095,-0.075
3654,-0.095,-0.055
3655,-0.090,-0.045
3656,-0.090,-0.045
3657,-0.100,-0.075
3658,-0.110,-0.090
3659,-0.105,-0.080
3660,-0.100,-0.060
3661,-0.080,-0.050
3662,-0.090,-0.045
3663,-0.085,-0.075
3664,-0.100,-0.100
3665,-0.095,-0.080
3666,-0.080,-0.060
3667,-0.075,-0.040
3668,-0.080,-0.050
3669,-0.085,-0.095
3670,-0.100,-0.090
3671,-0.090,-0.085
3672,-0.090,-0.065
3673,-0.080,-0.055
3674,-0.085,-0.060
3675,-0.100,-0.080
3676,-0.105,-0.100
3677,-0.110,-0.080
3678,-0.095,-0.070
3679,-0.090,-0.050
3680,-0.095,-0.060
3681,-0.110,-0.090
3682,-0.115,-0.100
3683,-0.120,-0.090
3684,-0.110,-0.060
3685,-0.090,-0.050
3686,-0.080,-0.060
3687,-0.095,-0.090
3688,-0.105,-0.100
3689,-0.105,-0.085
3690,-0.095,-0.070
3691,-0.090,-0.050
3692,-0.100,-0.070
3693,-0.105,-0.105
3694,-0.120,-0.105
3695,-0.125,-0.085
3696,-0.100,-0.050
3697,-0.095,-0.055
3698,-0.120,-0.075
3699,-0.110,-0.100
3700,-0.120,-0.110
3701,-0.115,-0.075
3702,-0.110,-0.055
3703,-0.095,-0.055
3704,-0.100,-0.075
3705,-0.110,-0.100
3706,-0.110,-0.105
3707,-0.110,-0.070
3708,-0.095,-0.060
3709,-0.085,-0.050
3710,-0.095,-0.075
3711,-0.105,-0.100
3712,-0.110,-0.105
3713,-0.120,-0.080
3714,-0.110,-0.050
3715,-0.090,-0.065
3716,-0.090,-0.075
3717,-0.110,-0.100
3718,-0.115,-0.105
3719,-0.105,-0.065
3720,-0.115,-0.050
3721,-0.095,-0.060
3722,-0.100,-0.095
3723,-0.115,-0.100
3724,-0.115,-0.090
3725,-0.110,-0.070
3726,-0.090,-0.065
3727,-0.090,-0.065
3728,-0.090,-0.085
3729,-0.105,-0.095
3730,-0.110,-0.085
3731,-0.115,-0.055
3732,-0.095,-0.050
3733,-0.100,-0.070
3734,-0.100,-0.105
3735,-0.110,-0.090
3736,-0.110,-0.075
3737,-0.115,-0.075
3738,-0.115,-0.060
3739,-0.105,-0.070
3740,-0.095,-0.085
3741,-0.105,-0.095
3742,-0.105,-0.075
3743,-0.105,-0.065
3744,-0.095,-0.065
3745,-0.085,-0.075
3746,-0.085,-0.095
3747,-0.100,-0.085
3748,-0.110,-0.085
3749,-0.105,-0.070
3750,-0.105,-0.065
3751,-0.100,-0.080
3752,-0.095,-0.085
3753,-0.125,-0.080
3754,-0.130,-0.085
3755,-0.120,-0.070
3756,-0.125,-0.080
3757,-0.110,-0.075
3758,-0.105,-0.080
3759,-0.115,-0.075
3760,-0.125,-0.085
3761,-0.115,-0.090
3762,-0.115,-0.080
3763,-0.095,-0.075
3764,-0.095,-0.075
3765,-0.105,-0.070
3766,-0.125,-0.080
3767,-0.110,-0.085
3768,-0.110,-0.080
3769,-0.100,-0.060
3770,-0.110,-0.065
3771,-0.120,-0.070
3772,-0.125,-0.085
3773,-0.135,-0.090
3774,-0.120,-0.075
3775,-0.090,-0.060
3776,-0.105,-0.060
3777,-0.115,-0.080
3778,-0.125,-0.085
3779,-0.120,-0.085
3780,-0.100,-0.070
3781,-0.100,-0.045
3782,-0.100,-0.065
3783,-0.110,-0.075
3784,-0.115,-0.095
3785,-0.115,-0.075
3786,-0.095,-0.065
3787,-0.090,-0.050
3788,-0.105,-0.060
3789,-0.125,-0.070
3790,-0.130,-0.095
3791,-0.125,-0.080
3792,-0.095,-0.055
3793,-0.100,-0.050
3794,-0.105,-0.050
3795,-0.120,-0.085
3796,-0.120,-0.090
3797,-0.110,-0.060
3798,-0.100,-0.045
3799,-0.105,-0.050
3800,-0.115,-0.060
3801,-0.110,-0.095
3802,-0.110,-0.080
3803,-0.105,-0.065
3804,-0.085,-0.035
3805,-0.080,-0.060
3806,-0.095,-0.070
3807,-0.110,-0.090
3808,-0.115,-0.065
3809,-0.105,-0.040
3810,-0.105,-0.040
3811,-0.100,-0.045
3812,-0.105,-0.070
3813,-0.110,-0.080
3814,-0.125,-0.080
3815,-0.115,-0.045
3816,-0.100,-0.045
3817,-0.095,-0.050
3818,-0.100,-0.075
3819,-0.110,-0.080
3820,-0.130,-0.065
3821,-0.110,-0.050
3822,-0.100,-0.045
3823,-0.080,-0.065
3824,-0.090,-0.065
3825,-0.100,-0.075
3826,-0.110,-0.055
3827,-0.115,-0.040
3828,-0.100,-0.050
3829,-0.095,-0.065
3830,-0.100,-0.065
3831,-0.100,-0.060
3832,-0.115,-0.065
3833,-0.120,-0.055
3834,-0.110,-0.055
3835,-0.090,-0.055
3836,-0.100,-0.055
3837,-0.115,-0.045
3838,-0.120,-0.055
3839,-0.105,-0.065
3840,-0.095,-0.060
3841,-0.095,-0.070
3842,-0.125,-0.100
3843,-0.150,-0.130
3844,-0.160,-0.170
3845,-0.150,-0.200
3846,-0.140,-0.235
3847,-0.105,-0.250
3848,-0.050,-0.255
3849,0.050,-0.275
3850,0.170,-0.285
3851,0.285,-0.255
3852,0.365,-0.240
3853,0.390,-0.220
3854,0.425,-0.170
3855,0.520,-0.040
3856,0.660,0.245
3857,0.765,0.645
3858,0.785,0.895
3859,0.750,0.985
3860,0.660,0.990
3861,0.585,1.025
3862,0.460,1.070
3863,0.300,1.110
3864,0.090,1.050
3865,-0.080,0.905
3866,-0.155,0.755
3867,-0.200,0.675
3868,-0.225,0.670
3869,-0.270,0.650
3870,-0.310,0.675
3871,-0.290,0.710
3872,-0.230,0.790
3873,-0.200,0.820
3874,-0.155,0.825
3875,-0.095,0.830
3876,-0.055,0.830
3877,-0.045,0.785
3878,-0.075,0.660
3879,-0.130,0.510
3880,-0.175,0.345
3881,-0.195,0.230
3882,-0.195,0.160
3883,-0.180,0.095
3884,-0.170,0.035
3885,-0.190,-0.015
3886,-0.190,-0.040
3887,-0.195,-0.045
3888,-0.175,-0.025
3889,-0.165,-0.035
3890,-0.175,-0.060
3891,-0.175,-0.095
3892,-0.185,-0.095
3893,-0.170,-0.075
3894,-0.170,-0.050
3895,-0.160,-0.070
3896,-0.165,-0.080
3897,-0.180,-0.105
3898,-0.175,-0.100
3899,-0.175,-0.070
3900,-0.185,-0.050
3901,-0.160,-0.070
3902,-0.170,-0.095
3903,-0.170,-0.110
3904,-0.180,-0.095
3905,-0.180,-0.085
3906,-0.170,-0.070
3907,-0.160,-0.095
3908,-0.160,-0.100
3909,-0.170,-0.110
3910,-0.180,-0.095
3911,-0.165,-0.080
3912,-0.150,-0.070
3913,-0.145,-0.090
3914,-0.145,-0.095
3915,-0.150,-0.095
3916,-0.160,-0.080
3917,-0.165,-0.075
3918,-0.150,-0.080
3919,-0.145,-0.085
3920,-0.145,-0.090
3921,-0.145,-0.080
3922,-0.150,-0.070
3923,-0.150,-0.060
3924,-0.120,-0.060
3925,-0.120,-0.070
3926,-0.120,-0.070
3927,-0.130,-0.065
3928,-0.135,-0.065
3929,-0.120,-0.050
3930,-0.100,-0.060
3931,-0.085,-0.060
3932,-0.085,-0.040
3933,-0.090,-0.040
3934,-0.090,-0.045
3935,-0.080,-0.020
3936,-0.085,-0.030
3937,-0.060,-0.015
3938,-0.070,-0.005
3939,-0.090,0.000
3940,-0.090,-0.015
3941,-0.080,-0.005
3942,-0.060,0.015
3943,-0.050,0.015
3944,-0.045,0.025
3945,-0.055,0.025
3946,-0.055,0.020
3947,-0.050,0.025
3948,-0.025,0.050
3949,-0.025,0.060
3950,-0.020,0.065
3951,-0.005,0.065
3952,-0.025,0.065
3953,-0.020,0.060
3954,0.005,0.075
3955,0.020,0.110
3956,0.020,0.105
3957,-0.005,0.105
3958,-0.015,0.090
3959,0.005,0.095
3960,0.015,0.120
3961,0.030,0.125
3962,0.025,0.140
3963,0.015,0.125
3964,0.010,0.125
3965,0.025,0.125
3966,0.040,0.155
3967,0.045,0.160
3968,0.060,0.165
3969,0.060,0.155
3970,0.045,0.140
3971,0.060,0.160
3972,0.065,0.175
3973,0.080,0.200
3974,0.080,0.185
3975,0.070,0.170
3976,0.060,0.165
3977,0.065,0.180
3978,0.080,0.210
3979,0.085,0.230
3980,0.095,0.210
3981,0.075,0.190
3982,0.070,0.195
3983,0.090,0.220
3984,0.085,0.245
3985,0.105,0.250
3986,0.100,0.235
3987,0.090,0.215
3988,0.095,0.210
3989,0.095,0.240
3990,0.100,0.265
3991,0.120,0.265
3992,0.115,0.245
3993,0.100,0.240
3994,0.105,0.240
3995,0.100,0.265
3996,0.105,0.300
3997,0.115,0.305
3998,0.105,0.280
3999,0.090,0.260
4000,0.085,0.275
4001,0.090,0.290
4002,0.105,0.325
4003,0.105,0.325
4004,0.110,0.315
4005,0.090,0.290
4006,0.080,0.300
4007,0.085,0.330
4008,0.095,0.370
4009,0.100,0.360
4010,0.110,0.355
4011,0.100,0.335
4012,0.090,0.360
4013,0.085,0.380
4014,0.085,0.415
4015,0.100,0.395
4016,0.085,0.380
4017,0.075,0.370
4018,0.070,0.375
4019,0.070,0.415
4020,0.090,0.430
4021,0.090,0.420
4022,0.080,0.390
4023,0.065,0.395
4024,0.075,0.400
4025,0.080,0.420
4026,0.095,0.435
4027,0.105,0.420
4028,0.105,0.395
4029,0.100,0.400
4030,0.100,0.420
4031,0.110,0.430
4032,0.120,0.445
4033,0.125,0.430
4034,0.115,0.420
4035,0.110,0.400
4036,0.110,0.410
4037,0.105,0.440
4038,0.120,0.455
4039,0.135,0.435
4040,0.140,0.410
4041,0.135,0.415
4042,0.120,0.415
4043,0.130,0.445
4044,0.155,0.465
4045,0.165,0.440
4046,0.165,0.430
4047,0.170,0.425
4048,0.165,0.435
4049,0.170,0.450
4050,0.205,0.470
4051,0.205,0.460
4052,0.200,0.435
4053,0.190,0.435
4054,0.195,0.460
4055,0.220,0.465
4056,0.240,0.475
4057,0.240,0.475
4058,0.235,0.445
4059,0.245,0.435
4060,0.235,0.450
4061,0.240,0.450
4062,0.220,0.445
4063,0.210,0.415
4064,0.185,0.380
4065,0.160,0.365
4066,0.155,0.365
4067,0.160,0.375
4068,0.140,0.350
4069,0.155,0.315
4070,0.135,0.270
4071,0.115,0.275
4072,0.105,0.275
4073,0.100,0.285
4074,0.095,0.280
4075,0.065,0.255
4076,0.035,0.235
4077,0.015,0.230
4078,0.000,0.245
4079,-0.020,0.245
4080,-0.035,0.250
4081,-0.105,0.230
4082,-0.225,0.215
4083,-0.320,0.240
4084,-0.385,0.305
4085,-0.455,0.380
4086,-0.545,0.410
4087,-0.655,0.400
4088,-0.770,0.315
4089,-0.865,0.260
4090,-0.925,0.205
4091,-0.980,0.170
4092,-0.995,0.140
4093,-1.010,0.090
4094,-0.990,0.060
4095,-0.990,0.085
4096,-0.950,0.120
4097,-0.880,0.175
4098,-0.815,0.215
4099,-0.770,0.220
4100,-0.755,0.210
4101,-0.735,0.210
4102,-0.735,0.220
4103,-0.735,0.205
4104,-0.740,0.185
4105,-0.735,0.130
4106,-0.760,0.060
4107,-0.785,-0.020
4108,-0.805,-0.090
4109,-0.810,-0.190
4110,-0.800,-0.320
4111,-0.805,-0.485
4112,-0.815,-0.645
4113,-0.830,-0.770
4114,-0.820,-0.830
4115,-0.805,-0.865
4116,-0.795,-0.890
4117,-0.805,-0.930
4118,-0.810,-0.965
4119,-0.825,-0.985
4120,-0.830,-0.995
4121,-0.835,-0.970
4122,-0.830,-0.975
4123,-0.810,-0.990
4124,-0.815,-1.015
4125,-0.820,-1.030
4126,-0.830,-1.040
4127,-0.815,-1.020
4128,-0.810,-1.005
4129,-0.810,-1.015
4130,-0.810,-1.035
4131,-0.820,-1.065
4132,-0.840,-1.065
4133,-0.820,-1.040
4134,-0.800,-1.025
4135,-0.800,-1.025
4136,-0.795,-1.060
4137,-0.800,-1.080
4138,-0.820,-1.080
4139,-0.815,-1.050
4140,-0.795,-1.035
4141,-0.775,-1.040
4142,-0.780,-1.060
4143,-0.790,-1.080
4144,-0.795,-1.085
4145,-0.780,-1.050
4146,-0.750,-1.025
4147,-0.755,-1.030
4148,-0.740,-1.045
4149,-0.745,-1.055
4150,-0.745,-1.050
4151,-0.720,-1.025
4152,-0.710,-1.000
4153,-0.695,-1.000
4154,-0.690,-1.010
4155,-0.685,-1.030
4156,-0.705,-1.025
4157,-0.685,-0.990
4158,-0.685,-0.950
4159,-0.670,-0.950
4160,-0.670,-0.965
4161,-0.685,-0.975
4162,-0.665,-0.970
4163,-0.660,-0.950
4164,-0.640,-0.905
4165,-0.640,-0.895
4166,-0.625,-0.905
4167,-0.615,-0.915
4168,-0.620,-0.915
4169,-0.615,-0.885
4170,-0.605,-0.850
4171,-0.580,-0.825
4172,-0.575,-0.845
4173,-0.580,-0.845
4174,-0.585,-0.845
4175,-0.560,-0.820
4176,-0.540,-0.790
4177,-0.515,-0.770
4178,-0.505,-0.770
4179,-0.535,-0.780
4180,-0.525,-0.775
4181,-0.525,-0.770
4182,-0.510,-0.730
4183,-0.495,-0.710
4184,-0.485,-0.705
4185,-0.490,-0.700
4186,-0.485,-0.695
4187,-0.470,-0.690
4188,-0.465,-0.655
4189,-0.435,-0.650
4190,-0.435,-0.620
4191,-0.425,-0.625
4192,-0.435,-0.630
4193,-0.415,-0.610
4194,-0.400,-0.580
4195,-0.380,-0.570
4196,-0.375,-0.550
4197,-0.370,-0.550
4198,-0.375,-0.545
4199,-0.355,-0.535
4200,-0.330,-0.515
4201,-0.325,-0.495
4202,-0.325,-0.475
4203,-0.330,-0.480
4204,-0.325,-0.475
4205,-0.305,-0.465
4206,-0.295,-0.440
4207,-0.270,-0.425
4208,-0.280,-0.410
4209,-0.285,-0.400
4210,-0.275,-0.400
4211,-0.260,-0.400
4212,-0.245,-0.370
4213,-0.240,-0.355
4214,-0.235,-0.340
4215,-0.240,-0.345
4216,-0.230,-0.355
4217,-0.220,-0.350
4218,-0.180,-0.325
4219,-0.185,-0.305
4220,-0.160,-0.295
4221,-0.155,-0.300
4222,-0.155,-0.310
4223,-0.150,-0.305
4224,-0.135,-0.285
4225,-0.135,-0.280
4226,-0.145,-0.275
4227,-0.160,-0.270
4228,-0.165,-0.270
4229,-0.150,-0.260
4230,-0.135,-0.250
4231,-0.125,-0.240
4232,-0.130,-0.230
4233,-0.125,-0.230
4234,-0.135,-0.220
4235,-0.130,-0.210
4236,-0.120,-0.210
4237,-0.100,-0.205
4238,-0.115,-0.210
4239,-0.120,-0.185
4240,-0.130,-0.190
4241,-0.120,-0.175
4242,-0.115,-0.165
4243,-0.110,-0.175
4244,-0.125,-0.150
4245,-0.140,-0.150
4246,-0.140,-0.115
4247,-0.135,-0.105
4248,-0.125,-0.090
4249,-0.125,-0.085
4250,-0.110,-0.085
4251,-0.130,-0.085
4252,-0.130,-0.050
4253,-0.140,-0.030
4254,-0.125,-0.015
4255,-0.115,-0.030
4256,-0.125,-0.040
4257,-0.130,-0.030
4258,-0.125,-0.015
4259,-0.125,0.015
4260,-0.105,0.010
4261,-0.105,0.020
4262,-0.105,-0.005
4263,-0.110,0.005
4264,-0.130,0.025
4265,-0.130,0.040
4266,-0.110,0.055
4267,-0.105,0.035
4268,-0.115,0.020
4269,-0.125,0.025
4270,-0.130,0.040
4271,-0.130,0.065
4272,-0.110,0.070
4273,-0.110,0.045
4274,-0.115,0.035
4275,-0.125,0.035
4276,-0.130,0.050
4277,-0.120,0.080
4278,-0.120,0.080
4279,-0.110,0.070
4280,-0.110,0.045
4281,-0.115,0.040
4282,-0.115,0.030
4283,-0.110,0.065
4284,-0.105,0.090
4285,-0.105,0.075
4286,-0.105,0.050
4287,-0.115,0.045
4288,-0.120,0.040
4289,-0.120,0.065
4290,-0.115,0.080
4291,-0.110,0.075
4292,-0.115,0.065
4293,-0.130,0.050
4294,-0.135,0.050
4295,-0.110,0.060
4296,-0.115,0.105
4297,-0.110,0.090
4298,-0.125,0.075
4299,-0.120,0.050
4300,-0.120,0.045
4301,-0.115,0.060
4302,-0.105,0.085
4303,-0.095,0.080
4304,-0.110,0.075
4305,-0.100,0.060
4306,-0.100,0.050
4307,-0.100,0.065
4308,-0.085,0.100
4309,-0.095,0.090
4310,-0.090,0.080
4311,-0.105,0.070
4312,-0.120,0.045
4313,-0.115,0.070
4314,-0.095,0.090
4315,-0.110,0.095
4316,-0.100,0.090
4317,-0.100,0.070
4318,-0.115,0.050
4319,-0.110,0.075
4320,-0.100,0.085
4321,-0.095,0.095
4322,-0.100,0.090
4323,-0.090,0.065
4324,-0.100,0.055
4325,-0.090,0.060
4326,-0.090,0.070
4327,-0.070,0.085
4328,-0.075,0.090
4329,-0.090,0.075
4330,-0.105,0.080
4331,-0.090,0.060
4332,-0.090,0.070
4333,-0.085,0.080
4334,-0.090,0.080
4335,-0.110,0.080
4336,-0.105,0.065
4337,-0.100,0.075
4338,-0.095,0.070
4339,-0.095,0.070
4340,-0.075,0.075
4341,-0.090,0.070
4342,-0.095,0.065
4343,-0.095,0.065
4344,-0.090,0.075
4345,-0.075,0.075
4346,-0.080,0.075
4347,-0.080,0.075
4348,-0.085,0.070
4349,-0.085,0.065
4350,-0.075,0.060
4351,-0.070,0.075
4352,-0.075,0.065
4353,-0.085,0.075
4354,-0.095,0.080
4355,-0.095,0.075
4356,-0.080,0.070
4357,-0.080,0.065
4358,-0.085,0.070
4359,-0.085,0.065
4360,-0.095,0.070
4361,-0.095,0.095
4362,-0.085,0.080
4363,-0.075,0.070
4364,-0.080,0.060
4365,-0.090,0.055
4366,-0.090,0.065
4367,-0.095,0.090
4368,-0.075,0.095
4369,-0.070,0.070
4370,-0.075,0.055
4371,-0.085,0.045
4372,-0.085,0.055
4373,-0.085,0.075
4374,-0.070,0.095
4375,-0.070,0.075
4376,-0.090,0.050
4377,-0.100,0.035
4378,-0.095,0.060
4379,-0.080,0.065
4380,-0.075,0.085
4381,-0.085,0.085
4382,-0.090,0.060
4383,-0.090,0.040
4384,-0.090,0.050
4385,-0.085,0.075
4386,-0.070,0.100
4387,-0.070,0.080
4388,-0.075,0.070
4389,-0.090,0.045
4390,-0.090,0.045
4391,-0.075,0.075
4392,-0.065,0.090
4393,-0.065,0.090
4394,-0.070,0.070
4395,-0.090,0.055
4396,-0.100,0.045
4397,-0.080,0.055
4398,-0.075,0.085
4399,-0.070,0.080
4400,-0.080,0.075
4401,-0.095,0.040
4402,-0.095,0.045
4403,-0.090,0.045
4404,-0.095,0.070
4405,-0.085,0.085
4406,-0.080,0.070
4407,-0.090,0.050
4408,-0.105,0.040
4409,-0.090,0.045
4410,-0.080,0.055
4411,-0.075,0.065
4412,-0.080,0.075
4413,-0.075,0.050
4414,-0.085,0.035
4415,-0.085,0.045
4416,-0.070,0.055
4417,-0.070,0.065
4418,-0.070,0.075
4419,-0.080,0.045
4420,-0.095,0.045
4421,-0.090,0.040
4422,-0.085,0.045
4423,-0.080,0.060
4424,-0.080,0.055
4425,-0.100,0.050
4426,-0.105,0.040
4427,-0.085,0.030
4428,-0.080,0.040
4429,-0.075,0.050
4430,-0.080,0.050
4431,-0.115,0.050
4432,-0.100,0.050
4433,-0.085,0.040
4434,-0.070,0.040
4435,-0.065,0.045
4436,-0.070,0.050
4437,-0.085,0.040
4438,-0.085,0.055
4439,-0.080,0.055
4440,-0.065,0.050
4441,-0.070,0.055
4442,-0.070,0.045
4443,-0.095,0.035
4444,-0.090,0.050
4445,-0.080,0.045
4446,-0.080,0.050
4447,-0.070,0.030
4448,-0.080,0.030
4449,-0.095,0.035
4450,-0.090,0.055
4451,-0.090,0.050
4452,-0.080,0.060
4453,-0.080,0.045
4454,-0.080,0.025
4455,-0.085,0.035
4456,-0.095,0.040
4457,-0.105,0.060
4458,-0.065,0.050
4459,-0.060,0.040
4460,-0.070,0.025
4461,-0.085,0.035
4462,-0.085,0.045
4463,-0.075,0.055
4464,-0.075,0.040
4465,-0.065,0.030
4466,-0.095,0.020
4467,-0.095,0.035
4468,-0.100,0.030
4469,-0.095,0.055
4470,-0.070,0.050
4471,-0.070,0.045
4472,-0.085,0.020
4473,-0.080,0.025
4474,-0.095,0.030
4475,-0.090,0.045
4476,-0.065,0.070
4477,-0.065,0.050
4478,-0.070,0.035
4479,-0.075,0.010
4480,-0.090,0.025
4481,-0.075,0.055
4482,-0.065,0.070
4483,-0.070,0.055
4484,-0.075,0.030
4485,-0.095,0.010
4486,-0.105,0.025
4487,-0.090,0.050
4488,-0.085,0.065
4489,-0.080,0.060
4490,-0.085,0.040
4491,-0.095,0.015
4492,-0.095,0.030
4493,-0.085,0.055
4494,-0.085,0.075
4495,-0.080,0.065
4496,-0.100,0.035
4497,-0.095,0.010
4498,-0.095,0.015
4499,-0.090,0.045
4500,-0.080,0.065
4501,-0.075,0.050
4502,-0.070,0.035
4503,-0.095,0.015
4504,-0.100,0.030
4505,-0.090,0.040
4506,-0.080,0.060
4507,-0.085,0.050
4508,-0.090,0.040
4509,-0.090,0.015
4510,-0.095,0.025
4511,-0.090,0.035
4512,-0.080,0.065
4513,-0.095,0.070
4514,-0.085,0.035
4515,-0.095,0.010
4516,-0.095,0.015
4517,-0.090,0.035
4518,-0.075,0.065
4519,-0.065,0.060
4520,-0.075,0.035
4521,-0.090,0.025
4522,-0.085,0.010
4523,-0.075,0.030
4524,-0.070,0.050
4525,-0.070,0.065
4526,-0.070,0.040
4527,-0.085,0.005
4528,-0.090,0.005
4529,-0.100,0.030
4530,-0.080,0.050
4531,-0.080,0.050
4532,-0.090,0.035
4533,-0.110,0.030
4534,-0.095,0.015
4535,-0.085,0.025
4536,-0.075,0.040
4537,-0.060,0.060
4538,-0.065,0.050
4539,-0.080,0.020
4540,-0.080,0.025
4541,-0.075,0.025
4542,-0.060,0.045
4543,-0.050,0.050
4544,-0.060,0.040
4545,-0.090,0.020
4546,-0.085,0.015
4547,-0.080,0.020
4548,-0.070,0.045
4549,-0.065,0.055
4550,-0.075,0.045
4551,-0.085,0.020
4552,-0.085,0.020
4553,-0.080,0.025
4554,-0.070,0.045
4555,-0.060,0.045
4556,-0.080,0.040
4557,-0.090,0.025
4558,-0.085,0.025
4559,-0.075,0.030
4560,-0.075,0.050
4561,-0.065,0.045
4562,-0.065,0.050
4563,-0.060,0.030
4564,-0.085,0.025
4565,-0.070,0.025
4566,-0.060,0.040
4567,-0.065,0.050
4568,-0.080,0.050
4569,-0.085,0.030
4570,-0.090,0.025
4571,-0.075,0.025
4572,-0.075,0.055
4573,-0.070,0.060
4574,-0.080,0.050
4575,-0.100,0.040
4576,-0.095,0.025
4577,-0.080,0.025
4578,-0.070,0.045
4579,-0.075,0.055
4580,-0.080,0.050
4581,-0.075,0.035
4582,-0.075,0.015
4583,-0.065,0.025
4584,-0.070,0.040
4585,-0.060,0.055
4586,-0.065,0.045
4587,-0.075,0.035
4588,-0.085,0.020
4589,-0.085,0.035
4590,-0.060,0.055
4591,-0.070,0.060
4592,-0.085,0.045
4593,-0.080,0.030
4594,-0.085,0.020
4595,-0.080,0.025
4596,-0.065,0.050
4597,-0.065,0.055
4598,-0.060,0.060
4599,-0.080,0.030
4600,-0.090,0.040
4601,-0.075,0.040
4602,-0.060,0.050
4603,-0.055,0.065
4604,-0.055,0.055
4605,-0.070,0.025
4606,-0.070,0.030
4607,-0.060,0.040
4608,-0.035,0.045
4609,-0.045,0.065
4610,-0.055,0.055
4611,-0.075,0.045
4612,-0.090,0.040
4613,-0.070,0.040
4614,-0.050,0.055
4615,-0.055,0.065
4616,-0.055,0.060
4617,-0.075,0.050
4618,-0.070,0.025
4619,-0.075,0.015
4620,-0.095,0.010
4621,-0.100,-0.005
4622,-0.110,-0.035
4623,-0.115,-0.085
4624,-0.100,-0.120
4625,-0.075,-0.150
4626,-0.010,-0.160
4627,0.070,-0.165
4628,0.160,-0.155
4629,0.255,-0.150
4630,0.330,-0.160
4631,0.395,-0.145
4632,0.425,-0.125
4633,0.445,-0.075
4634,0.540,0.025
4635,0.670,0.230
4636,0.770,0.540
4637,0.820,0.820
4638,0.805,0.980
4639,0.745,1.040
4640,0.680,1.060
4641,0.610,1.075
4642,0.550,1.115
4643,0.465,1.140
4644,0.345,1.155
4645,0.175,1.145
4646,0.020,1.065
4647,-0.060,0.950
4648,-0.105,0.850
4649,-0.135,0.780
4650,-0.150,0.745
4651,-0.170,0.745
4652,-0.200,0.740
4653,-0.250,0.705
4654,-0.275,0.715
4655,-0.250,0.755
4656,-0.205,0.805
4657,-0.160,0.855
4658,-0.135,0.875
4659,-0.110,0.880
4660,-0.075,0.890
4661,-0.030,0.885
4662,0.000,0.885
4663,-0.005,0.840
4664,-0.050,0.755
4665,-0.075,0.655
4666,-0.110,0.535
4667,-0.110,0.405
4668,-0.120,0.310
4669,-0.125,0.215
4670,-0.130,0.150
4671,-0.130,0.120
4672,-0.170,0.080
4673,-0.150,0.055
4674,-0.130,0.045
4675,-0.140,0.045
4676,-0.135,0.030
4677,-0.160,0.015
4678,-0.150,0.010
4679,-0.145,0.005
4680,-0.140,0.000
4681,-0.135,0.015
4682,-0.140,0.010
4683,-0.150,0.005
4684,-0.155,0.000
4685,-0.145,-0.010
4686,-0.140,-0.005
4687,-0.135,-0.005
4688,-0.130,0.000
4689,-0.145,-0.010
4690,-0.135,-0.015
4691,-0.130,-0.015
4692,-0.125,-0.015
4693,-0.125,-0.005
4694,-0.125,-0.010
4695,-0.150,-0.020
4696,-0.155,-0.005
4697,-0.135,-0.010
4698,-0.135,-0.015
4699,-0.125,-0.015
4700,-0.130,-0.005
4701,-0.145,-0.015
4702,-0.150,0.000
4703,-0.125,-0.015
4704,-0.115,-0.010
4705,-0.105,-0.005
4706,-0.105,-0.005
4707,-0.135,-0.010
4708,-0.130,-0.015
4709,-0.105,-0.010
4710,-0.095,-0.015
4711,-0.090,0.000
4712,-0.090,0.000
4713,-0.095,-0.005
4714,-0.095,0.000
4715,-0.100,0.000
4716,-0.080,0.000
4717,-0.085,0.005
4718,-0.080,0.000
4719,-0.085,0.000
4720,-0.095,0.020
4721,-0.075,0.025
4722,-0.060,0.025
4723,-0.070,0.015
4724,-0.065,0.025
4725,-0.075,0.030
4726,-0.065,0.030
4727,-0.060,0.035
4728,-0.025,0.050
4729,-0.035,0.035
4730,-0.030,0.035
4731,-0.040,0.045
4732,-0.025,0.050
4733,-0.015,0.060
4734,-0.015,0.060
4735,-0.015,0.060
4736,-0.015,0.070
4737,-0.015,0.070
4738,-0.010,0.085
4739,-0.005,0.090
4740,0.010,0.100
4741,0.015,0.100
4742,0.020,0.100
4743,0.005,0.105
4744,0.000,0.130
4745,0.020,0.130
4746,0.020,0.135
4747,0.045,0.120
4748,0.040,0.135
4749,0.050,0.135
4750,0.045,0.160
4751,0.055,0.155
4752,0.070,0.150
4753,0.065,0.165
4754,0.065,0.155
4755,0.055,0.165
4756,0.055,0.180
4757,0.065,0.195
4758,0.070,0.195
4759,0.080,0.180
4760,0.060,0.180
4761,0.085,0.185
4762,0.065,0.200
4763,0.090,0.225
4764,0.100,0.215
4765,0.105,0.205
4766,0.105,0.185
4767,0.085,0.195
4768,0.095,0.225
4769,0.110,0.245
4770,0.125,0.250
4771,0.135,0.235
4772,0.135,0.230
4773,0.135,0.220
4774,0.130,0.240
4775,0.135,0.260
4776,0.135,0.265
4777,0.130,0.255
4778,0.120,0.250
4779,0.120,0.255
4780,0.115,0.270
4781,0.135,0.285
4782,0.145,0.290
4783,0.145,0.275
4784,0.135,0.270
4785,0.135,0.265
4786,0.130,0.280
4787,0.130,0.310
4788,0.140,0.305
4789,0.150,0.295
4790,0.140,0.290
4791,0.120,0.290
4792,0.135,0.315
4793,0.140,0.335
4794,0.155,0.330
4795,0.140,0.325
4796,0.140,0.310
4797,0.130,0.315
4798,0.125,0.345
4799,0.120,0.345
4800,0.125,0.365
4801,0.130,0.350
4802,0.120,0.340
4803,0.100,0.340
4804,0.085,0.365
4805,0.095,0.395
4806,0.095,0.395
4807,0.115,0.385
4808,0.100,0.370
4809,0.100,0.370
4810,0.105,0.410
4811,0.110,0.420
4812,0.130,0.425
4813,0.135,0.410
4814,0.125,0.390
4815,0.110,0.395
4816,0.090,0.410
4817,0.100,0.435
4818,0.120,0.440
4819,0.120,0.435
4820,0.105,0.405
4821,0.105,0.400
4822,0.105,0.420
4823,0.110,0.450
4824,0.120,0.450
4825,0.120,0.430
4826,0.120,0.420
4827,0.095,0.400
4828,0.105,0.415
4829,0.125,0.440
4830,0.150,0.450
4831,0.145,0.435
4832,0.140,0.420
4833,0.145,0.395
4834,0.135,0.410
4835,0.165,0.440
4836,0.170,0.465
4837,0.185,0.445
4838,0.180,0.415
4839,0.185,0.400
4840,0.180,0.420
4841,0.190,0.445
4842,0.195,0.465
4843,0.175,0.445
4844,0.185,0.425
4845,0.190,0.400
4846,0.200,0.410
4847,0.200,0.440
4848,0.215,0.455
4849,0.215,0.470
4850,0.220,0.430
4851,0.215,0.425
4852,0.215,0.425
4853,0.240,0.440
4854,0.250,0.470
4855,0.260,0.470
4856,0.265,0.450
4857,0.255,0.420
4858,0.250,0.425
4859,0.245,0.435
4860,0.240,0.445
4861,0.225,0.425
4862,0.200,0.385
4863,0.170,0.360
4864,0.165,0.350
4865,0.155,0.355
4866,0.150,0.340
4867,0.140,0.310
4868,0.130,0.270
4869,0.105,0.240
4870,0.100,0.245
4871,0.080,0.265
4872,0.060,0.260
4873,0.050,0.250
4874,0.040,0.220
4875,0.020,0.200
4876,0.025,0.205
4877,0.020,0.230
4878,-0.015,0.240
4879,-0.100,0.245
4880,-0.210,0.240
4881,-0.285,0.270
4882,-0.375,0.345
4883,-0.445,0.400
4884,-0.505,0.455
4885,-0.620,0.455
4886,-0.730,0.400
4887,-0.830,0.315
4888,-0.910,0.265
4889,-0.960,0.225
4890,-0.970,0.195
4891,-0.975,0.160
4892,-0.950,0.130
4893,-0.925,0.125
4894,-0.895,0.140
4895,-0.820,0.160
4896,-0.760,0.205
4897,-0.710,0.215
4898,-0.700,0.205
4899,-0.700,0.175
4900,-0.700,0.185
4901,-0.690,0.180
4902,-0.710,0.170
4903,-0.725,0.105
4904,-0.765,0.005
4905,-0.800,-0.080
4906,-0.810,-0.165
4907,-0.805,-0.255
4908,-0.810,-0.360
4909,-0.820,-0.495
4910,-0.825,-0.645
4911,-0.840,-0.760
4912,-0.840,-0.825
4913,-0.830,-0.870
4914,-0.810,-0.875
4915,-0.805,-0.920
4916,-0.815,-0.945
4917,-0.820,-0.975
4918,-0.820,-0.980
4919,-0.815,-0.970
4920,-0.830,-0.950
4921,-0.825,-0.960
4922,-0.830,-1.005
4923,-0.840,-1.030
4924,-0.850,-1.015
4925,-0.840,-1.005
4926,-0.820,-1.010
4927,-0.820,-1.020
4928,-0.820,-1.040
4929,-0.825,-1.070
4930,-0.825,-1.050
4931,-0.815,-1.030
4932,-0.805,-1.020
4933,-0.800,-1.050
4934,-0.800,-1.065
4935,-0.805,-1.075
4936,-0.795,-1.045
4937,-0.795,-1.040
4938,-0.780,-1.030
4939,-0.770,-1.050
4940,-0.785,-1.075
4941,-0.795,-1.065
4942,-0.800,-1.055
4943,-0.780,-1.030
4944,-0.775,-1.025
4945,-0.760,-1.045
4946,-0.760,-1.055
4947,-0.760,-1.050
4948,-0.770,-1.025
4949,-0.740,-1.005
4950,-0.725,-0.995
4951,-0.720,-1.000
4952,-0.715,-1.015
4953,-0.715,-0.995
4954,-0.720,-0.970
4955,-0.690,-0.955
4956,-0.670,-0.960
4957,-0.670,-0.965
4958,-0.665,-0.970
4959,-0.670,-0.945
4960,-0.675,-0.930
4961,-0.655,-0.905
4962,-0.640,-0.895
4963,-0.625,-0.905
4964,-0.615,-0.905
4965,-0.635,-0.885
4966,-0.625,-0.850
4967,-0.605,-0.845
4968,-0.585,-0.830
4969,-0.580,-0.825
4970,-0.570,-0.820
4971,-0.580,-0.800
4972,-0.570,-0.780
4973,-0.555,-0.765
4974,-0.540,-0.760
4975,-0.525,-0.760
4976,-0.520,-0.745
4977,-0.520,-0.730
4978,-0.515,-0.725
4979,-0.495,-0.715
4980,-0.475,-0.705
4981,-0.465,-0.690
4982,-0.465,-0.680
4983,-0.485,-0.660
4984,-0.480,-0.650
4985,-0.455,-0.645
4986,-0.435,-0.640
4987,-0.430,-0.625
4988,-0.425,-0.600
4989,-0.420,-0.590
4990,-0.420,-0.580
4991,-0.400,-0.585
4992,-0.365,-0.550
4993,-0.365,-0.530
4994,-0.350,-0.525
4995,-0.350,-0.515
4996,-0.350,-0.510
4997,-0.330,-0.490
4998,-0.310,-0.465
4999,-0.295,-0.450
5000,-0.295,-0.445
5001,-0.305,-0.455
5002,-0.290,-0.445
5003,-0.280,-0.425
5004,-0.270,-0.395
5005,-0.270,-0.380
5006,-0.285,-0.385
5007,-0.285,-0.395
5008,-0.265,-0.385
5009,-0.255,-0.355
5010,-0.230,-0.340
5011,-0.220,-0.330
5012,-0.205,-0.345
5013,-0.200,-0.340
5014,-0.185,-0.355
5015,-0.180,-0.325
5016,-0.155,-0.300
5017,-0.150,-0.290
5018,-0.160,-0.295
5019,-0.175,-0.315
5020,-0.185,-0.300
5021,-0.180,-0.285
5022,-0.160,-0.250
5023,-0.155,-0.245
5024,-0.150,-0.250
5025,-0.160,-0.260
5026,-0.175,-0.245
5027,-0.145,-0.235
5028,-0.135,-0.200
5029,-0.135,-0.190
5030,-0.145,-0.205
5031,-0.155,-0.210
5032,-0.160,-0.210
5033,-0.150,-0.180
5034,-0.135,-0.160
5035,-0.125,-0.130
5036,-0.135,-0.145
5037,-0.135,-0.145
5038,-0.150,-0.130
5039,-0.135,-0.100
5040,-0.125,-0.065
5041,-0.130,-0.050
5042,-0.145,-0.065
5043,-0.160,-0.070
5044,-0.165,-0.075
5045,-0.145,-0.035
5046,-0.140,-0.015
5047,-0.130,-0.010
5048,-0.145,-0.025
5049,-0.150,-0.040
5050,-0.145,-0.025
5051,-0.135,0.010
5052,-0.120,0.025
5053,-0.115,0.025
5054,-0.115,-0.010
5055,-0.130,-0.020
5056,-0.125,0.000
5057,-0.115,0.015
5058,-0.115,0.030
5059,-0.115,0.035
5060,-0.135,0.005
5061,-0.160,0.000
5062,-0.155,0.020
5063,-0.160,0.030
5064,-0.140,0.050
5065,-0.125,0.050
5066,-0.140,0.025
5067,-0.145,0.010
5068,-0.150,0.020
5069,-0.130,0.040
5070,-0.125,0.070
5071,-0.120,0.055
5072,-0.135,0.035
5073,-0.135,0.015
5074,-0.135,0.025
5075,-0.120,0.045
5076,-0.115,0.065
5077,-0.100,0.050
5078,-0.125,0.030
5079,-0.125,0.020
5080,-0.135,0.035
5081,-0.115,0.055
5082,-0.110,0.075
5083,-0.120,0.065
5084,-0.115,0.020
5085,-0.145,0.035
5086,-0.140,0.040
5087,-0.115,0.065
5088,-0.105,0.085
5089,-0.115,0.070
5090,-0.120,0.045
5091,-0.125,0.030
5092,-0.125,0.040
5093,-0.115,0.075
5094,-0.110,0.085
5095,-0.115,0.070
5096,-0.120,0.040
5097,-0.105,0.035
5098,-0.120,0.045
5099,-0.115,0.070
5100,-0.100,0.085
5101,-0.100,0.065
5102,-0.120,0.045
5103,-0.125,0.035
5104,-0.130,0.040
5105,-0.120,0.060
5106,-0.125,0.080
5107,-0.095,0.075
5108,-0.100,0.055
5109,-0.110,0.030
5110,-0.120,0.040
5111,-0.105,0.070
5112,-0.090,0.080
5113,-0.090,0.080
5114,-0.100,0.050
5115,-0.100,0.045
5116,-0.110,0.045
5117,-0.090,0.055
5118,-0.080,0.085
5119,-0.085,0.080
5120,-0.095,0.060
5121,-0.110,0.040
5122,-0.110,0.050
5123,-0.100,0.075
5124,-0.090,0.080
5125,-0.090,0.090
5126,-0.105,0.070
5127,-0.095,0.040
5128,-0.105,0.055
5129,-0.100,0.065
5130,-0.095,0.085
5131,-0.085,0.090
5132,-0.100,0.070
5133,-0.095,0.050
5134,-0.110,0.050
5135,-0.090,0.065
5136,-0.080,0.075
5137,-0.075,0.095
5138,-0.100,0.075
5139,-0.100,0.050
5140,-0.120,0.030
5141,-0.100,0.055
5142,-0.080,0.085
5143,-0.085,0.095
5144,-0.095,0.075
5145,-0.105,0.055
5146,-0.115,0.045
5147,-0.100,0.050
5148,-0.080,0.080
5149,-0.080,0.075
5150,-0.085,0.070
5151,-0.095,0.055
5152,-0.095,0.035
5153,-0.090,0.040
5154,-0.075,0.075
5155,-0.080,0.070
5156,-0.105,0.075
5157,-0.090,0.050
5158,-0.090,0.040
5159,-0.075,0.050
5160,-0.055,0.075
5161,-0.055,0.070
5162,-0.070,0.065
5163,-0.075,0.040
5164,-0.090,0.035
5165,-0.080,0.050
5166,-0.070,0.060
5167,-0.085,0.070
5168,-0.075,0.065
5169,-0.095,0.045
5170,-0.100,0.035
5171,-0.095,0.045
5172,-0.085,0.050
5173,-0.070,0.070
5174,-0.085,0.055
5175,-0.090,0.045
5176,-0.105,0.030
5177,-0.090,0.050
5178,-0.075,0.065
5179,-0.065,0.075
5180,-0.075,0.055
5181,-0.080,0.035
5182,-0.080,0.030
5183,-0.080,0.040
5184,-0.065,0.055
5185,-0.075,0.070
5186,-0.080,0.055
5187,-0.095,0.035
5188,-0.085,0.025
5189,-0.080,0.050
5190,-0.075,0.050
5191,-0.070,0.070
5192,-0.090,0.055
5193,-0.080,0.050
5194,-0.085,0.030
5195,-0.080,0.035
5196,-0.060,0.055
5197,-0.070,0.065
5198,-0.080,0.055
5199,-0.085,0.035
5200,-0.080,0.030
5201,-0.080,0.035
5202,-0.055,0.035
5203,-0.055,0.065
5204,-0.070,0.050
5205,-0.080,0.045
5206,-0.100,0.030
5207,-0.080,0.040
5208,-0.070,0.050
5209,-0.075,0.050
5210,-0.090,0.040
5211,-0.095,0.035
5212,-0.110,0.025
5213,-0.095,0.020
5214,-0.070,0.040
5215,-0.065,0.050
5216,-0.085,0.045
5217,-0.090,0.045
5218,-0.100,0.035
5219,-0.075,0.030
5220,-0.065,0.050
5221,-0.065,0.055
5222,-0.075,0.040
5223,-0.075,0.025
5224,-0.080,0.025
5225,-0.085,0.030
5226,-0.070,0.050
5227,-0.070,0.040
5228,-0.085,0.040
5229,-0.100,0.015
5230,-0.095,0.010
5231,-0.090,0.035
5232,-0.080,0.055
5233,-0.080,0.060
5234,-0.085,0.030
5235,-0.090,0.005
5236,-0.105,0.010
5237,-0.090,0.030
5238,-0.085,0.055
5239,-0.075,0.050
5240,-0.090,0.020
5241,-0.090,0.015
5242,-0.100,0.005
5243,-0.085,0.040
5244,-0.060,0.040
5245,-0.065,0.040
5246,-0.090,0.030
5247,-0.085,0.005
5248,-0.100,0.010
5249,-0.085,0.030
5250,-0.060,0.045
5251,-0.070,0.045
5252,-0.080,0.025
5253,-0.090,0.010
5254,-0.095,0.015
5255,-0.075,0.040
5256,-0.070,0.050
5257,-0.070,0.055
5258,-0.070,0.025
5259,-0.085,0.000
5260,-0.075,0.005
5261,-0.070,0.030
5262,-0.070,0.045
5263,-0.055,0.035
5264,-0.075,0.015
5265,-0.075,-0.010
5266,-0.100,0.015
5267,-0.085,0.035
5268,-0.070,0.040
5269,-0.080,0.020
5270,-0.090,0.005
5271,-0.090,-0.010
5272,-0.085,0.010
5273,-0.085,0.035
5274,-0.070,0.035
5275,-0.075,0.025
5276,-0.100,0.005
5277,-0.085,-0.010
5278,-0.090,0.015
5279,-0.075,0.030
5280,-0.070,0.050
5281,-0.065,0.025
5282,-0.060,0.000
5283,-0.065,-0.005
5284,-0.080,0.005
5285,-0.060,0.035
5286,-0.060,0.025
5287,-0.070,0.010
5288,-0.080,-0.010
5289,-0.085,0.000
5290,-0.110,0.025
5291,-0.080,0.030
5292,-0.065,0.040
5293,-0.080,0.010
5294,-0.090,0.005
5295,-0.080,0.000
5296,-0.095,0.025
5297,-0.090,0.035
5298,-0.065,0.025
5299,-0.065,0.005
5300,-0.065,-0.010
5301,-0.070,0.000
5302,-0.075,0.025
5303,-0.060,0.020
5304,-0.055,0.035
5305,-0.060,0.000
5306,-0.075,0.005
5307,-0.075,0.010
5308,-0.090,0.020
5309,-0.075,0.025
5310,-0.065,0.010
5311,-0.060,0.000
5312,-0.075,-0.010
5313,-0.085,0.005
5314,-0.090,0.020
5315,-0.075,0.025
5316,-0.060,0.015
5317,-0.065,0.000
5318,-0.080,-0.010
5319,-0.070,-0.005
5320,-0.070,0.020
5321,-0.060,0.035
5322,-0.040,0.020
5323,-0.050,-0.005
5324,-0.065,-0.005
5325,-0.070,0.000
5326,-0.075,0.015
5327,-0.065,0.025
5328,-0.065,0.020
5329,-0.060,0.005
5330,-0.060,0.000
5331,-0.090,0.010
5332,-0.080,0.015
5333,-0.070,0.025
5334,-0.055,0.020
5335,-0.050,-0.010
5336,-0.065,-0.005
5337,-0.065,0.005
5338,-0.070,0.020
5339,-0.065,0.025
5340,-0.045,0.020
5341,-0.045,0.000
5342,-0.050,0.000
5343,-0.050,0.010
5344,-0.055,0.015
5345,-0.050,0.015
5346,-0.040,0.010
5347,-0.055,-0.005
5348,-0.055,-0.005
5349,-0.075,0.000
5350,-0.075,0.020
5351,-0.070,0.015
5352,-0.075,0.005
5353,-0.070,-0.005
5354,-0.075,-0.010
5355,-0.075,0.000
5356,-0.075,0.015
5357,-0.070,0.020
5358,-0.055,0.000
5359,-0.055,0.005
5360,-0.060,-0.010
5361,-0.085,0.000
5362,-0.075,0.005
5363,-0.060,0.015
5364,-0.050,-0.010
5365,-0.050,-0.010
5366,-0.065,-0.010
5367,-0.075,0.000
5368,-0.080,0.015
5369,-0.085,0.005
5370,-0.065,0.000
5371,-0.060,0.000
5372,-0.080,-0.005
5373,-0.090,0.000
5374,-0.090,0.010
5375,-0.065,0.000
5376,-0.050,-0.005
5377,-0.060,0.000
5378,-0.065,-0.010
5379,-0.065,-0.010
5380,-0.075,0.005
5381,-0.065,0.005
5382,-0.055,0.000
5383,-0.045,-0.010
5384,-0.050,-0.010
5385,-0.055,-0.010
5386,-0.080,0.015
5387,-0.070,0.010
5388,-0.040,-0.005
5389,-0.055,-0.005
5390,-0.070,-0.030
5391,-0.080,-0.020
5392,-0.110,-0.035
5393,-0.115,-0.050
5394,-0.095,-0.090
5395,-0.085,-0.130
5396,-0.090,-0.170
5397,-0.090,-0.180
5398,-0.050,-0.195
5399,0.065,-0.200
5400,0.180,-0.200
5401,0.285,-0.225
5402,0.350,-0.215
5403,0.385,-0.215
5404,0.410,-0.185
5405,0.475,-0.130
5406,0.595,0.000
5407,0.745,0.265
5408,0.805,0.575
5409,0.800,0.820
5410,0.755,0.930
5411,0.705,0.975
5412,0.660,0.995
5413,0.595,1.050
5414,0.485,1.095
5415,0.350,1.110
5416,0.175,1.095
5417,0.025,1.005
5418,-0.060,0.915
5419,-0.100,0.815
5420,-0.140,0.735
5421,-0.160,0.705
5422,-0.190,0.700
5423,-0.215,0.690
5424,-0.235,0.670
5425,-0.250,0.670
5426,-0.235,0.715
5427,-0.215,0.770
5428,-0.195,0.815
5429,-0.140,0.840
5430,-0.090,0.845
5431,-0.045,0.850
5432,-0.020,0.840
5433,-0.025,0.815
5434,-0.045,0.745
5435,-0.065,0.625
5436,-0.095,0.515
5437,-0.110,0.380
5438,-0.130,0.260
5439,-0.155,0.170
5440,-0.160,0.130
5441,-0.120,0.070
5442,-0.110,0.040
5443,-0.100,0.015
5444,-0.120,0.010
5445,-0.130,0.000
5446,-0.145,-0.010
5447,-0.130,-0.025
5448,-0.115,-0.035
5449,-0.125,-0.030
5450,-0.145,-0.025
5451,-0.145,-0.035
5452,-0.140,-0.030
5453,-0.135,-0.045
5454,-0.125,-0.050
5455,-0.125,-0.040
5456,-0.135,-0.045
5457,-0.160,-0.050
5458,-0.160,-0.060
5459,-0.135,-0.060
5460,-0.130,-0.050
5461,-0.120,-0.060
5462,-0.125,-0.055
5463,-0.125,-0.060
5464,-0.145,-0.055
5465,-0.125,-0.060
5466,-0.115,-0.060
5467,-0.120,-0.050
5468,-0.120,-0.050
5469,-0.140,-0.070
5470,-0.145,-0.055
5471,-0.135,-0.060
5472,-0.120,-0.055
5473,-0.110,-0.050
5474,-0.110,-0.050
5475,-0.130,-0.055
5476,-0.140,-0.055
5477,-0.115,-0.060
5478,-0.095,-0.055
5479,-0.090,-0.040
5480,-0.100,-0.030
5481,-0.110,-0.050
5482,-0.110,-0.050
5483,-0.090,-0.040
5484,-0.075,-0.030
5485,-0.075,-0.025
5486,-0.090,-0.025
5487,-0.080,-0.045
5488,-0.085,-0.045
5489,-0.080,-0.050
5490,-0.065,-0.030
5491,-0.055,-0.020
5492,-0.060,-0.020
5493,-0.075,-0.020
5494,-0.075,-0.020
5495,-0.065,-0.020
5496,-0.040,-0.005
5497,-0.030,0.010
5498,-0.055,0.005
5499,-0.040,0.000
5500,-0.045,0.000
5501,-0.040,0.005
5502,-0.015,0.020
5503,-0.015,0.040
5504,-0.010,0.030
5505,-0.020,0.020
5506,-0.020,0.025
5507,-0.015,0.035
5508,0.005,0.050
5509,0.020,0.070
5510,0.000,0.050
5511,-0.005,0.070
5512,-0.010,0.055
5513,0.010,0.070
5514,0.025,0.090
5515,0.030,0.100
5516,0.020,0.095
5517,0.015,0.085
5518,0.030,0.085
5519,0.050,0.110
5520,0.060,0.135
5521,0.065,0.135
5522,0.050,0.130
5523,0.055,0.115
5524,0.060,0.125
5525,0.075,0.150
5526,0.100,0.165
5527,0.085,0.165
5528,0.090,0.155
5529,0.080,0.140
5530,0.075,0.145
5531,0.085,0.180
5532,0.100,0.190
5533,0.095,0.195
5534,0.095,0.185
5535,0.095,0.155
5536,0.085,0.170
5537,0.100,0.190
5538,0.115,0.220
5539,0.120,0.215
5540,0.095,0.190
5541,0.085,0.185
5542,0.100,0.195
5543,0.120,0.225
5544,0.140,0.235
5545,0.135,0.235
5546,0.135,0.220
5547,0.115,0.195
5548,0.105,0.220
5549,0.135,0.245
5550,0.125,0.255
5551,0.130,0.245
5552,0.120,0.230
5553,0.100,0.210
5554,0.110,0.235
5555,0.120,0.260
5556,0.125,0.290
5557,0.120,0.270
5558,0.110,0.245
5559,0.095,0.255
5560,0.100,0.275
5561,0.120,0.300
5562,0.120,0.315
5563,0.125,0.305
5564,0.120,0.275
5565,0.110,0.280
5566,0.110,0.305
5567,0.110,0.335
5568,0.125,0.345
5569,0.115,0.325
5570,0.100,0.310
5571,0.085,0.315
5572,0.075,0.350
5573,0.095,0.365
5574,0.115,0.365
5575,0.100,0.350
5576,0.095,0.340
5577,0.095,0.340
5578,0.090,0.365
5579,0.110,0.390
5580,0.120,0.380
5581,0.115,0.370
5582,0.110,0.350
5583,0.105,0.370
5584,0.105,0.385
5585,0.115,0.405
5586,0.125,0.390
5587,0.130,0.375
5588,0.120,0.365
5589,0.100,0.375
5590,0.100,0.390
5591,0.125,0.390
5592,0.130,0.380
5593,0.135,0.375
5594,0.135,0.375
5595,0.140,0.380
5596,0.135,0.400
5597,0.160,0.395
5598,0.170,0.385
5599,0.170,0.395
5600,0.175,0.400
5601,0.165,0.410
5602,0.165,0.415
5603,0.185,0.405
5604,0.200,0.395
5605,0.195,0.415
5606,0.205,0.415
5607,0.190,0.425
5608,0.200,0.415
5609,0.220,0.420
5610,0.230,0.415
5611,0.225,0.425
5612,0.215,0.435
5613,0.220,0.430
5614,0.220,0.425
5615,0.240,0.435
5616,0.260,0.450
5617,0.255,0.450
5618,0.260,0.440
5619,0.245,0.425
5620,0.225,0.415
5621,0.225,0.400
5622,0.220,0.400
5623,0.205,0.395
5624,0.185,0.385
5625,0.145,0.340
5626,0.140,0.290
5627,0.130,0.265
5628,0.140,0.255
5629,0.125,0.260
5630,0.080,0.245
5631,0.055,0.215
5632,0.035,0.205
5633,0.060,0.220
5634,0.075,0.250
5635,0.060,0.255
5636,0.040,0.235
5637,-0.010,0.230
5638,-0.090,0.260
5639,-0.170,0.315
5640,-0.235,0.400
5641,-0.315,0.445
5642,-0.395,0.465
5643,-0.505,0.450
5644,-0.625,0.435
5645,-0.715,0.415
5646,-0.785,0.375
5647,-0.845,0.305
5648,-0.875,0.235
5649,-0.865,0.175
5650,-0.855,0.190
5651,-0.830,0.190
5652,-0.790,0.170
5653,-0.745,0.130
5654,-0.700,0.115
5655,-0.670,0.140
5656,-0.640,0.170
5657,-0.615,0.180
5658,-0.610,0.165
5659,-0.640,0.115
5660,-0.675,0.035
5661,-0.705,-0.055
5662,-0.745,-0.155
5663,-0.750,-0.250
5664,-0.760,-0.405
5665,-0.775,-0.580
5666,-0.800,-0.720
5667,-0.835,-0.820
5668,-0.830,-0.875
5669,-0.825,-0.910
5670,-0.820,-0.975
5671,-0.820,-1.010
5672,-0.825,-1.030
5673,-0.830,-1.035
5674,-0.830,-1.040
5675,-0.825,-1.040
5676,-0.805,-1.045
5677,-0.815,-1.085
5678,-0.825,-1.085
5679,-0.825,-1.075
5680,-0.830,-1.065
5681,-0.810,-1.070
5682,-0.795,-1.080
5683,-0.790,-1.105
5684,-0.815,-1.120
5685,-0.815,-1.110
5686,-0.815,-1.090
5687,-0.810,-1.100
5688,-0.800,-1.110
5689,-0.795,-1.130
5690,-0.800,-1.135
5691,-0.810,-1.115
5692,-0.800,-1.115
5693,-0.790,-1.100
5694,-0.775,-1.120
5695,-0.775,-1.135
5696,-0.775,-1.115
5697,-0.775,-1.115
5698,-0.775,-1.100
5699,-0.755,-1.100
5700,-0.730,-1.105
5701,-0.720,-1.125
5702,-0.730,-1.110
5703,-0.755,-1.095
5704,-0.760,-1.085
5705,-0.725,-1.085
5706,-0.715,-1.085
5707,-0.710,-1.075
5708,-0.710,-1.070
5709,-0.715,-1.050
5710,-0.725,-1.045
5711,-0.690,-1.030
5712,-0.680,-1.035
5713,-0.665,-1.015
5714,-0.660,-1.015
5715,-0.680,-0.995
5716,-0.670,-0.985
5717,-0.650,-0.985
5718,-0.635,-0.975
5719,-0.630,-0.955
5720,-0.630,-0.945
5721,-0.625,-0.930
5722,-0.625,-0.935
5723,-0.600,-0.900
5724,-0.575,-0.900
5725,-0.570,-0.890
5726,-0.600,-0.875
5727,-0.585,-0.860
5728,-0.580,-0.855
5729,-0.565,-0.840
5730,-0.545,-0.830
5731,-0.540,-0.805
5732,-0.535,-0.800
5733,-0.540,-0.800
5734,-0.515,-0.790
5735,-0.515,-0.770
5736,-0.480,-0.755
5737,-0.485,-0.745
5738,-0.490,-0.720
5739,-0.480,-0.725
5740,-0.460,-0.715
5741,-0.445,-0.700
5742,-0.415,-0.680
5743,-0.415,-0.670
5744,-0.430,-0.655
5745,-0.425,-0.655
5746,-0.420,-0.665
5747,-0.400,-0.630
5748,-0.380,-0.610
5749,-0.380,-0.605
5750,-0.375,-0.595
5751,-0.375,-0.585
5752,-0.375,-0.570
5753,-0.350,-0.575
5754,-0.325,-0.545
5755,-0.310,-0.525
5756,-0.315,-0.520
5757,-0.320,-0.520
5758,-0.315,-0.515
5759,-0.300,-0.495
5760,-0.280,-0.475
5761,-0.275,-0.465
5762,-0.290,-0.460
5763,-0.290,-0.460
5764,-0.265,-0.440
5765,-0.240,-0.440
5766,-0.215,-0.420
5767,-0.220,-0.410
5768,-0.220,-0.415
5769,-0.215,-0.420
5770,-0.215,-0.400
5771,-0.195,-0.385
5772,-0.185,-0.380
5773,-0.175,-0.365
5774,-0.190,-0.375
5775,-0.205,-0.370
5776,-0.205,-0.370
5777,-0.185,-0.350
5778,-0.160,-0.320
5779,-0.160,-0.315
5780,-0.145,-0.310
5781,-0.160,-0.305
5782,-0.165,-0.310
5783,-0.145,-0.295
5784,-0.135,-0.275
5785,-0.130,-0.270
5786,-0.155,-0.270
5787,-0.175,-0.270
5788,-0.170,-0.265
5789,-0.160,-0.255
5790,-0.145,-0.225
5791,-0.150,-0.210
5792,-0.155,-0.200
5793,-0.165,-0.200
5794,-0.155,-0.175
5795,-0.145,-0.165
5796,-0.125,-0.140
5797,-0.140,-0.140
5798,-0.150,-0.120
5799,-0.160,-0.130
5800,-0.150,-0.125
5801,-0.140,-0.105
5802,-0.115,-0.080
5803,-0.110,-0.070
5804,-0.125,-0.065
5805,-0.130,-0.065
5806,-0.125,-0.070
5807,-0.120,-0.055
5808,-0.120,-0.045
5809,-0.125,-0.025
5810,-0.125,-0.040
5811,-0.140,-0.055
5812,-0.130,-0.040
5813,-0.120,-0.030
5814,-0.115,-0.020
5815,-0.115,-0.015
5816,-0.130,-0.010
5817,-0.130,-0.030
5818,-0.130,-0.030
5819,-0.120,-0.025
5820,-0.115,-0.005
5821,-0.090,0.005
5822,-0.110,-0.015
5823,-0.105,-0.015
5824,-0.110,-0.025
5825,-0.090,-0.010
5826,-0.085,0.000
5827,-0.085,0.005
5828,-0.105,-0.005
5829,-0.115,-0.010
5830,-0.125,-0.015
5831,-0.110,-0.005
5832,-0.090,0.015
5833,-0.100,0.020
5834,-0.120,0.000
5835,-0.135,-0.005
5836,-0.120,-0.010
5837,-0.110,0.010
5838,-0.100,0.025
5839,-0.110,0.025
5840,-0.105,0.000
5841,-0.115,-0.015
5842,-0.110,-0.015
5843,-0.100,0.015
5844,-0.085,0.035
5845,-0.085,0.030
5846,-0.100,0.010
5847,-0.120,-0.005
5848,-0.120,-0.005
5849,-0.100,0.025
5850,-0.080,0.020
5851,-0.105,0.030
5852,-0.110,0.005
5853,-0.120,0.000
5854,-0.110,0.010
5855,-0.100,0.020
5856,-0.090,0.030
5857,-0.095,0.025
5858,-0.105,0.010
5859,-0.105,0.005
5860,-0.105,0.005
5861,-0.095,0.015
5862,-0.075,0.020
5863,-0.080,0.030
5864,-0.085,0.020
5865,-0.090,0.005
5866,-0.090,0.005
5867,-0.085,0.020
5868,-0.085,0.040
5869,-0.085,0.030
5870,-0.085,0.015
5871,-0.095,-0.005
5872,-0.105,0.005
5873,-0.095,0.035
5874,-0.065,0.030
5875,-0.080,0.035
5876,-0.085,0.015
5877,-0.090,0.000
5878,-0.105,0.000
5879,-0.090,0.045
5880,-0.080,0.045
5881,-0.075,0.025
5882,-0.080,0.010
5883,-0.095,0.000
5884,-0.080,0.015
5885,-0.070,0.045
5886,-0.055,0.055
5887,-0.070,0.035
5888,-0.075,-0.005
5889,-0.085,-0.005
5890,-0.100,0.010
5891,-0.100,0.050
5892,-0.075,0.055
5893,-0.085,0.040
5894,-0.085,0.010
5895,-0.100,-0.005
5896,-0.100,0.025
5897,-0.080,0.045
5898,-0.070,0.045
5899,-0.075,0.025
5900,-0.080,0.005
5901,-0.095,0.010
5902,-0.095,0.030
5903,-0.080,0.045
5904,-0.065,0.050
5905,-0.070,0.025
5906,-0.080,0.010
5907,-0.090,0.025
5908,-0.090,0.040
5909,-0.075,0.065
5910,-0.065,0.040
5911,-0.075,0.030
5912,-0.090,0.010
5913,-0.090,0.020
5914,-0.085,0.045
5915,-0.075,0.050
5916,-0.070,0.045
5917,-0.070,0.020
5918,-0.080,0.015
5919,-0.090,0.030
5920,-0.080,0.045
5921,-0.075,0.050
5922,-0.060,0.025
5923,-0.065,0.025
5924,-0.070,0.015
5925,-0.080,0.035
5926,-0.075,0.040
5927,-0.075,0.060
5928,-0.060,0.030
5929,-0.070,0.025
5930,-0.080,0.015
5931,-0.090,0.035
5932,-0.090,0.045
5933,-0.070,0.060
5934,-0.060,0.030
5935,-0.060,0.020
5936,-0.070,0.005
5937,-0.080,0.030
5938,-0.085,0.045
5939,-0.075,0.045
5940,-0.055,0.025
5941,-0.055,0.020
5942,-0.070,0.025
5943,-0.095,0.025
5944,-0.085,0.045
5945,-0.070,0.030
5946,-0.060,0.025
5947,-0.070,0.010
5948,-0.090,0.020
5949,-0.090,0.035
5950,-0.090,0.030
5951,-0.080,0.025
5952,-0.060,0.010
5953,-0.070,0.020
5954,-0.085,0.025
5955,-0.105,0.020
5956,-0.100,0.020
5957,-0.090,0.020
5958,-0.080,0.015
5959,-0.075,0.015
5960,-0.075,0.015
5961,-0.090,0.030
5962,-0.080,0.020
5963,-0.070,0.025
5964,-0.055,0.015
5965,-0.075,0.015
5966,-0.075,0.030
5967,-0.090,0.025
5968,-0.085,0.025
5969,-0.085,0.015
5970,-0.075,0.025
5971,-0.085,0.020
5972,-0.095,0.025
5973,-0.100,0.015
5974,-0.105,0.005
5975,-0.075,0.015
5976,-0.070,0.010
5977,-0.075,0.015
5978,-0.090,0.005
5979,-0.095,0.010
5980,-0.085,0.015
5981,-0.080,0.010
5982,-0.050,0.010
5983,-0.070,0.015
5984,-0.075,0.015
5985,-0.095,0.010
5986,-0.090,0.015
5987,-0.085,0.025
5988,-0.070,0.030
5989,-0.075,0.020
5990,-0.075,0.015
5991,-0.090,0.005
5992,-0.075,0.000
5993,-0.075,0.005
5994,-0.070,0.015
5995,-0.065,0.025
5996,-0.070,0.020
5997,-0.095,0.000
5998,-0.075,0.010
5999,-0.070,0.015
6000,-0.050,0.025
6001,-0.055,0.035
6002,-0.070,0.020
6003,-0.075,0.005
6004,-0.070,0.010
6005,-0.055,0.015
6006,-0.040,0.030
6007,-0.060,0.025
6008,-0.065,0.020
6009,-0.100,0.005
6010,-0.090,-0.005
6011,-0.070,0.010
6012,-0.065,0.040
6013,-0.065,0.035
6014,-0.075,0.015
6015,-0.095,-0.005
6016,-0.090,0.010
6017,-0.085,0.025
6018,-0.080,0.040
6019,-0.070,0.020
6020,-0.070,-0.015
6021,-0.080,-0.010
6022,-0.090,0.020
6023,-0.065,0.045
6024,-0.055,0.030
6025,-0.065,-0.005
6026,-0.080,-0.005
6027,-0.105,0.005
6028,-0.100,0.020
6029,-0.080,0.005
6030,-0.070,0.005
6031,-0.075,0.000
6032,-0.090,0.015
6033,-0.095,0.015
6034,-0.095,0.000
6035,-0.085,0.005
6036,-0.070,0.020
6037,-0.065,0.030
6038,-0.070,0.015
6039,-0.080,0.000
6040,-0.075,-0.005
6041,-0.065,0.010
6042,-0.060,0.025
6043,-0.055,0.015
6044,-0.075,-0.005
6045,-0.080,-0.005
6046,-0.080,0.000
6047,-0.075,0.020
6048,-0.060,0.025
6049,-0.070,0.015
6050,-0.070,0.000
6051,-0.080,-0.005
6052,-0.080,-0.010
6053,-0.070,0.000
6054,-0.070,0.015
6055,-0.065,0.015
6056,-0.070,-0.015
6057,-0.075,-0.020
6058,-0.065,-0.015
6059,-0.060,0.010
6060,-0.055,0.025
6061,-0.045,0.015
6062,-0.070,-0.005
6063,-0.085,-0.015
6064,-0.085,0.000
6065,-0.070,0.015
6066,-0.060,0.015
6067,-0.070,0.005
6068,-0.075,-0.015
6069,-0.090,-0.020
6070,-0.095,-0.010
6071,-0.080,0.015
6072,-0.070,0.015
6073,-0.055,0.015
6074,-0.075,-0.015
6075,-0.080,-0.025
6076,-0.075,-0.005
6077,-0.055,0.005
6078,-0.045,0.025
6079,-0.045,0.000
6080,-0.065,-0.010
6081,-0.065,-0.025
6082,-0.075,-0.020
6083,-0.055,0.005
6084,-0.060,0.020
6085,-0.085,0.015
6086,-0.080,-0.020
6087,-0.085,-0.025
6088,-0.080,-0.020
6089,-0.060,0.010
6090,-0.050,0.025
6091,-0.075,0.005
6092,-0.070,-0.015
6093,-0.075,-0.025
6094,-0.075,-0.005
6095,-0.070,0.025
6096,-0.065,0.025
6097,-0.060,0.000
6098,-0.070,-0.015
6099,-0.075,-0.030
6100,-0.070,0.000
6101,-0.060,0.010
6102,-0.055,0.020
6103,-0.055,0.010
6104,-0.070,-0.025
6105,-0.080,-0.015
6106,-0.075,0.000
6107,-0.065,0.010
6108,-0.065,0.035
6109,-0.065,0.000
6110,-0.070,-0.015
6111,-0.085,-0.015
6112,-0.080,0.000
6113,-0.060,0.020
6114,-0.065,0.025
6115,-0.060,0.015
6116,-0.075,-0.005
6117,-0.075,-0.030
6118,-0.065,-0.005
6119,-0.050,0.020
6120,-0.055,0.030
6121,-0.050,0.010
6122,-0.075,-0.015
6123,-0.075,-0.010
6124,-0.070,-0.005
6125,-0.060,0.020
6126,-0.065,0.020
6127,-0.070,0.015
6128,-0.070,-0.010
6129,-0.080,-0.020
6130,-0.085,-0.010
6131,-0.065,0.015
6132,-0.055,0.030
6133,-0.045,0.010
6134,-0.050,-0.010
6135,-0.055,-0.015
6136,-0.045,0.000
6137,-0.040,0.025
6138,-0.015,0.025
6139,-0.035,0.010
6140,-0.055,-0.010
6141,-0.070,-0.030
6142,-0.100,-0.020
6143,-0.110,-0.030
6144,-0.115,-0.065
6145,-0.110,-0.115
6146,-0.120,-0.170
6147,-0.120,-0.220
6148,-0.060,-0.230
6149,0.025,-0.230
6150,0.130,-0.230
6151,0.240,-0.235
6152,0.315,-0.255
6153,0.355,-0.255
6154,0.395,-0.225
6155,0.435,-0.200
6156,0.490,-0.125
6157,0.590,-0.005
6158,0.705,0.195
6159,0.795,0.470
6160,0.815,0.710
6161,0.790,0.860
6162,0.755,0.915
6163,0.695,0.940
6164,0.635,0.955
6165,0.535,0.995
6166,0.425,1.020
6167,0.260,1.035
6168,0.085,0.990
6169,-0.065,0.900
6170,-0.145,0.770
6171,-0.180,0.680
6172,-0.190,0.645
6173,-0.190,0.670
6174,-0.200,0.670
6175,-0.240,0.670
6176,-0.275,0.645
6177,-0.265,0.670
6178,-0.230,0.745
6179,-0.200,0.795
6180,-0.145,0.820
6181,-0.125,0.815
6182,-0.070,0.805
6183,-0.040,0.770
6184,-0.020,0.765
6185,-0.025,0.730
6186,-0.050,0.640
6187,-0.095,0.520
6188,-0.125,0.375
6189,-0.160,0.255
6190,-0.155,0.175
6191,-0.150,0.130
6192,-0.135,0.085
6193,-0.135,0.035
6194,-0.155,0.005
6195,-0.150,-0.015
6196,-0.140,-0.020
6197,-0.125,-0.005
6198,-0.140,-0.005
6199,-0.140,-0.025
6200,-0.145,-0.060
6201,-0.140,-0.065
6202,-0.135,-0.055
6203,-0.120,-0.035
6204,-0.110,-0.035
6205,-0.115,-0.055
6206,-0.130,-0.075
6207,-0.160,-0.080
6208,-0.140,-0.070
6209,-0.130,-0.045
6210,-0.120,-0.050
6211,-0.135,-0.055
6212,-0.130,-0.090
6213,-0.140,-0.095
6214,-0.140,-0.075
6215,-0.125,-0.055
6216,-0.125,-0.060
6217,-0.120,-0.080
6218,-0.135,-0.095
6219,-0.130,-0.105
6220,-0.115,-0.085
6221,-0.105,-0.070
6222,-0.095,-0.070
6223,-0.100,-0.075
6224,-0.120,-0.085
6225,-0.115,-0.105
6226,-0.110,-0.090
6227,-0.095,-0.065
6228,-0.095,-0.050
6229,-0.100,-0.065
6230,-0.115,-0.085
6231,-0.105,-0.095
6232,-0.100,-0.085
6233,-0.085,-0.055
6234,-0.095,-0.045
6235,-0.085,-0.060
6236,-0.095,-0.075
6237,-0.090,-0.080
6238,-0.085,-0.070
6239,-0.065,-0.030
6240,-0.055,-0.040
6241,-0.050,-0.055
6242,-0.060,-0.060
6243,-0.055,-0.070
6244,-0.060,-0.055
6245,-0.030,-0.025
6246,-0.035,-0.015
6247,-0.030,-0.030
6248,-0.030,-0.045
6249,-0.045,-0.050
6250,-0.035,-0.030
6251,-0.030,0.000
6252,-0.010,0.005
6253,-0.010,-0.015
6254,-0.020,-0.030
6255,-0.020,-0.030
6256,-0.010,0.005
6257,0.005,0.035
6258,0.010,0.030
6259,0.025,0.000
6260,0.015,0.000
6261,0.020,-0.005
6262,0.015,0.035
6263,0.025,0.060
6264,0.040,0.050
6265,0.035,0.045
6266,0.025,0.040
6267,0.015,0.035
6268,0.040,0.065
6269,0.035,0.075
6270,0.055,0.090
6271,0.065,0.080
6272,0.045,0.060
6273,0.055,0.060
6274,0.055,0.080
6275,0.065,0.110
6276,0.070,0.110
6277,0.090,0.100
6278,0.085,0.085
6279,0.075,0.085
6280,0.085,0.115
6281,0.100,0.135
6282,0.120,0.145
6283,0.105,0.125
6284,0.100,0.110
6285,0.100,0.105
6286,0.110,0.150
6287,0.120,0.165
6288,0.125,0.165
6289,0.110,0.140
6290,0.100,0.135
6291,0.105,0.140
6292,0.095,0.165
6293,0.105,0.185
6294,0.130,0.185
6295,0.135,0.165
6296,0.120,0.155
6297,0.125,0.165
6298,0.130,0.185
6299,0.130,0.205
6300,0.135,0.210
6301,0.140,0.185
6302,0.135,0.170
6303,0.145,0.175
6304,0.140,0.190
6305,0.150,0.215
6306,0.165,0.225
6307,0.155,0.205
6308,0.135,0.190
6309,0.125,0.195
6310,0.130,0.220
6311,0.135,0.240
6312,0.140,0.240
6313,0.140,0.230
6314,0.120,0.210
6315,0.115,0.225
6316,0.120,0.245
6317,0.125,0.275
6318,0.135,0.265
6319,0.130,0.255
6320,0.125,0.245
6321,0.115,0.255
6322,0.115,0.285
6323,0.115,0.310
6324,0.125,0.300
6325,0.125,0.280
6326,0.110,0.275
6327,0.100,0.290
6328,0.110,0.320
6329,0.110,0.330
6330,0.105,0.330
6331,0.105,0.305
6332,0.100,0.300
6333,0.095,0.325
6334,0.100,0.340
6335,0.100,0.355
6336,0.125,0.345
6337,0.120,0.325
6338,0.105,0.305
6339,0.100,0.325
6340,0.105,0.340
6341,0.120,0.360
6342,0.140,0.350
6343,0.140,0.330
6344,0.125,0.305
6345,0.125,0.305
6346,0.135,0.335
6347,0.130,0.345
6348,0.140,0.350
6349,0.130,0.315
6350,0.120,0.315
6351,0.130,0.300
6352,0.135,0.335
6353,0.145,0.350
6354,0.155,0.350
6355,0.170,0.330
6356,0.160,0.300
6357,0.160,0.315
6358,0.170,0.345
6359,0.185,0.365
6360,0.205,0.340
6361,0.200,0.330
6362,0.200,0.320
6363,0.195,0.335
6364,0.205,0.355
6365,0.220,0.385
6366,0.235,0.365
6367,0.235,0.340
6368,0.220,0.330
6369,0.205,0.350
6370,0.215,0.360
6371,0.240,0.380
6372,0.250,0.370
6373,0.260,0.360
6374,0.250,0.355
6375,0.260,0.345
6376,0.255,0.360
6377,0.275,0.375
6378,0.275,0.340
6379,0.260,0.315
6380,0.240,0.290
6381,0.210,0.300
6382,0.210,0.315
6383,0.195,0.295
6384,0.190,0.250
6385,0.190,0.185
6386,0.200,0.155
6387,0.210,0.135
6388,0.205,0.160
6389,0.185,0.180
6390,0.165,0.155
6391,0.135,0.150
6392,0.150,0.150
6393,0.140,0.165
6394,0.125,0.200
6395,0.100,0.215
6396,0.070,0.210
6397,0.000,0.200
6398,-0.090,0.215
6399,-0.175,0.265
6400,-0.245,0.310
6401,-0.325,0.355
6402,-0.390,0.350
6403,-0.505,0.310
6404,-0.640,0.270
6405,-0.730,0.235
6406,-0.790,0.220
6407,-0.795,0.190
6408,-0.815,0.165
6409,-0.830,0.145
6410,-0.840,0.115
6411,-0.845,0.095
6412,-0.825,0.100
6413,-0.785,0.105
6414,-0.730,0.095
6415,-0.680,0.085
6416,-0.645,0.090
6417,-0.615,0.100
6418,-0.595,0.135
6419,-0.595,0.135
6420,-0.615,0.090
6421,-0.650,0.035
6422,-0.700,-0.035
6423,-0.720,-0.095
6424,-0.755,-0.165
6425,-0.770,-0.230
6426,-0.795,-0.365
6427,-0.815,-0.525
6428,-0.840,-0.645
6429,-0.835,-0.750
6430,-0.830,-0.800
6431,-0.820,-0.860
6432,-0.810,-0.915
6433,-0.820,-0.970
6434,-0.840,-1.025
6435,-0.850,-1.030
6436,-0.845,-1.025
6437,-0.835,-1.010
6438,-0.830,-1.040
6439,-0.835,-1.060
6440,-0.850,-1.090
6441,-0.855,-1.080
6442,-0.845,-1.055
6443,-0.835,-1.065
6444,-0.820,-1.070
6445,-0.830,-1.090
6446,-0.840,-1.120
6447,-0.845,-1.110
6448,-0.840,-1.090
6449,-0.815,-1.075
6450,-0.815,-1.080
6451,-0.825,-1.105
6452,-0.830,-1.130
6453,-0.825,-1.135
6454,-0.815,-1.125
6455,-0.805,-1.090
6456,-0.805,-1.115
6457,-0.805,-1.120
6458,-0.820,-1.140
6459,-0.820,-1.140
6460,-0.805,-1.115
6461,-0.795,-1.095
6462,-0.780,-1.090
6463,-0.780,-1.115
6464,-0.795,-1.135
6465,-0.785,-1.130
6466,-0.770,-1.105
6467,-0.770,-1.080
6468,-0.755,-1.080
6469,-0.760,-1.085
6470,-0.775,-1.095
6471,-0.760,-1.085
6472,-0.735,-1.070
6473,-0.715,-1.050
6474,-0.710,-1.030
6475,-0.710,-1.045
6476,-0.725,-1.050
6477,-0.725,-1.060
6478,-0.710,-1.030
6479,-0.690,-1.005
6480,-0.690,-0.980
6481,-0.670,-1.000
6482,-0.680,-0.990
6483,-0.660,-0.985
6484,-0.645,-0.965
6485,-0.615,-0.925
6486,-0.605,-0.905
6487,-0.595,-0.905
6488,-0.615,-0.920
6489,-0.610,-0.910
6490,-0.585,-0.885
6491,-0.560,-0.865
6492,-0.545,-0.850
6493,-0.550,-0.840
6494,-0.550,-0.845
6495,-0.565,-0.845
6496,-0.535,-0.835
6497,-0.530,-0.805
6498,-0.515,-0.800
6499,-0.510,-0.790
6500,-0.505,-0.790
6501,-0.515,-0.795
6502,-0.510,-0.785
6503,-0.510,-0.765
6504,-0.505,-0.750
6505,-0.500,-0.740
6506,-0.490,-0.745
6507,-0.490,-0.750
6508,-0.465,-0.730
6509,-0.445,-0.705
6510,-0.435,-0.690
6511,-0.415,-0.675
6512,-0.425,-0.685
6513,-0.420,-0.680
6514,-0.425,-0.675
6515,-0.400,-0.660
6516,-0.400,-0.650
6517,-0.405,-0.640
6518,-0.410,-0.640
6519,-0.400,-0.630
6520,-0.385,-0.610
6521,-0.375,-0.600
6522,-0.370,-0.585
6523,-0.370,-0.580
6524,-0.380,-0.570
6525,-0.385,-0.565
6526,-0.355,-0.550
6527,-0.330,-0.535
6528,-0.315,-0.540
6529,-0.310,-0.520
6530,-0.315,-0.515
6531,-0.310,-0.515
6532,-0.300,-0.495
6533,-0.300,-0.480
6534,-0.280,-0.480
6535,-0.275,-0.470
6536,-0.270,-0.470
6537,-0.275,-0.465
6538,-0.270,-0.450
6539,-0.245,-0.440
6540,-0.230,-0.435
6541,-0.230,-0.425
6542,-0.245,-0.420
6543,-0.245,-0.410
6544,-0.245,-0.390
6545,-0.235,-0.390
6546,-0.220,-0.385
6547,-0.215,-0.370
6548,-0.215,-0.365
6549,-0.225,-0.345
6550,-0.205,-0.340
6551,-0.185,-0.325
6552,-0.180,-0.315
6553,-0.170,-0.310
6554,-0.190,-0.295
6555,-0.200,-0.285
6556,-0.180,-0.260
6557,-0.170,-0.250
6558,-0.165,-0.235
6559,-0.155,-0.235
6560,-0.155,-0.220
6561,-0.170,-0.200
6562,-0.155,-0.190
6563,-0.150,-0.180
6564,-0.135,-0.180
6565,-0.145,-0.170
6566,-0.145,-0.155
6567,-0.150,-0.135
6568,-0.140,-0.120
6569,-0.125,-0.110
6570,-0.130,-0.110
6571,-0.125,-0.120
6572,-0.125,-0.110
6573,-0.145,-0.095
6574,-0.125,-0.075
6575,-0.110,-0.075
6576,-0.090,-0.075
6577,-0.105,-0.085
6578,-0.115,-0.070
6579,-0.120,-0.060
6580,-0.105,-0.040
6581,-0.105,-0.035
6582,-0.100,-0.050
6583,-0.110,-0.050
6584,-0.100,-0.055
6585,-0.115,-0.035
6586,-0.115,-0.025
6587,-0.095,-0.025
6588,-0.100,-0.030
6589,-0.105,-0.050
6590,-0.110,-0.050
6591,-0.100,-0.035
6592,-0.095,-0.020
6593,-0.090,0.005
6594,-0.075,-0.015
6595,-0.080,-0.030
6596,-0.095,-0.040
6597,-0.095,-0.040
6598,-0.085,-0.010
6599,-0.075,0.005
6600,-0.070,-0.005
6601,-0.070,-0.020
6602,-0.085,-0.040
6603,-0.085,-0.015
6604,-0.100,-0.015
6605,-0.095,0.005
6606,-0.090,-0.005
6607,-0.080,-0.020
6608,-0.100,-0.035
6609,-0.100,-0.010
6610,-0.090,0.000
6611,-0.080,0.015
6612,-0.075,0.005
6613,-0.075,-0.005
6614,-0.075,-0.020
6615,-0.085,-0.010
6616,-0.090,0.005
6617,-0.080,0.025
6618,-0.070,0.010
6619,-0.060,-0.015
6620,-0.080,-0.020
6621,-0.090,-0.010
6622,-0.080,0.015
6623,-0.070,0.030
6624,-0.065,0.015
