'sample interval','MLII','V1'
'0.00277778 sec','mV','mV'
0,-0.445,0.260
1,-0.445,0.260
2,-0.445,0.260
3,-0.445,0.260
4,-0.445,0.260
5,-0.445,0.260
6,-0.445,0.260
7,-0.445,0.260
8,-0.450,0.260
9,-0.430,0.250
10,-0.435,0.250
11,-0.405,0.260
12,-0.385,0.270
13,-0.365,0.250
14,-0.355,0.255
15,-0.340,0.235
16,-0.325,0.235
17,-0.305,0.245
18,-0.285,0.265
19,-0.260,0.250
20,-0.245,0.235
21,-0.225,0.225
22,-0.240,0.215
23,-0.225,0.225
24,-0.210,0.230
25,-0.195,0.230
26,-0.190,0.220
27,-0.195,0.205
28,-0.205,0.205
29,-0.205,0.215
30,-0.200,0.215
31,-0.205,0.215
32,-0.210,0.200
33,-0.215,0.190
34,-0.235,0.190
35,-0.235,0.195
36,-0.220,0.200
37,-0.235,0.195
38,-0.240,0.195
39,-0.255,0.185
40,-0.280,0.180
41,-0.275,0.180
42,-0.265,0.195
43,-0.270,0.200
44,-0.270,0.190
45,-0.285,0.175
46,-0.305,0.170
47,-0.305,0.165
48,-0.295,0.185
49,-0.290,0.170
50,-0.300,0.190
51,-0.305,0.180
52,-0.315,0.175
53,-0.310,0.185
54,-0.315,0.200
55,-0.295,0.190
56,-0.300,0.170
57,-0.310,0.175
58,-0.315,0.170
59,-0.315,0.190
60,-0.320,0.195
61,-0.315,0.165
62,-0.305,0.175
63,-0.310,0.150
64,-0.330,0.155
65,-0.325,0.170
66,-0.330,0.180
67,-0.320,0.175
68,-0.320,0.160
69,-0.310,0.145
70,-0.325,0.140
71,-0.330,0.160
72,-0.330,0.175
73,-0.325,0.160
74,-0.325,0.155
75,-0.335,0.145
76,-0.335,0.150
77,-0.330,0.155
78,-0.320,0.170
79,-0.320,0.170
80,-0.335,0.155
81,-0.335,0.140
82,-0.345,0.140
83,-0.340,0.155
84,-0.325,0.160
85,-0.320,0.155
86,-0.325,0.140
87,-0.350,0.140
88,-0.360,0.135
89,-0.350,0.135
90,-0.325,0.155
91,-0.310,0.135
92,-0.325,0.145
93,-0.335,0.135
94,-0.340,0.140
95,-0.340,0.150
96,-0.330,0.150
97,-0.325,0.150
98,-0.335,0.140
99,-0.340,0.130
100,-0.345,0.130
101,-0.330,0.150
102,-0.335,0.155
103,-0.325,0.150
104,-0.325,0.145
105,-0.335,0.130
106,-0.340,0.135
107,-0.325,0.140
108,-0.325,0.145
109,-0.320,0.140
110,-0.325,0.140
111,-0.330,0.140
112,-0.345,0.135
113,-0.325,0.150
114,-0.325,0.170
115,-0.325,0.155
116,-0.320,0.150
117,-0.325,0.135
118,-0.330,0.140
119,-0.335,0.140
120,-0.305,0.175
121,-0.310,0.195
122,-0.295,0.210
123,-0.285,0.210
124,-0.290,0.215
125,-0.245,0.215
126,-0.230,0.225
127,-0.210,0.225
128,-0.230,0.220
129,-0.245,0.220
130,-0.245,0.205
131,-0.225,0.195
132,-0.190,0.185
133,-0.155,0.170
134,-0.145,0.160
135,-0.150,0.160
136,-0.155,0.170
137,-0.150,0.165
138,-0.140,0.180
139,-0.130,0.165
140,-0.120,0.145
141,-0.125,0.135
142,-0.140,0.135
143,-0.145,0.160
144,-0.150,0.165
145,-0.155,0.145
146,-0.150,0.140
147,-0.175,0.125
148,-0.200,0.125
149,-0.240,0.120
150,-0.280,0.120
151,-0.325,0.125
152,-0.360,0.110
153,-0.380,0.100
154,-0.390,0.095
155,-0.380,0.110
156,-0.380,0.125
157,-0.370,0.115
158,-0.380,0.100
159,-0.395,0.095
160,-0.415,0.090
161,-0.395,0.105
162,-0.395,0.105
163,-0.380,0.105
164,-0.370,0.105
165,-0.375,0.110
166,-0.390,0.110
167,-0.385,0.105
168,-0.380,0.125
169,-0.365,0.115
170,-0.375,0.110
171,-0.370,0.095
172,-0.400,0.095
173,-0.385,0.105
174,-0.370,0.110
175,-0.375,0.110
176,-0.370,0.085
177,-0.370,0.085
178,-0.360,0.060
179,-0.355,0.050
180,-0.355,0.060
181,-0.365,0.070
182,-0.370,0.055
183,-0.370,0.030
184,-0.355,0.000
185,-0.300,-0.025
186,-0.210,-0.070
187,-0.085,-0.130
188,0.050,-0.215
189,0.235,-0.310
190,0.400,-0.375
191,0.590,-0.425
192,0.775,-0.415
193,0.915,-0.395
194,1.025,-0.345
195,1.100,-0.305
196,1.160,-0.275
197,1.180,-0.245
198,1.090,-0.200
199,0.960,-0.165
200,0.825,-0.125
201,0.710,-0.095
202,0.575,-0.055
203,0.410,-0.005
204,0.255,0.040
205,0.145,0.040
206,0.095,0.065
207,0.005,0.085
208,-0.105,0.095
209,-0.195,0.125
210,-0.245,0.145
211,-0.285,0.140
212,-0.325,0.155
213,-0.375,0.165
214,-0.430,0.165
215,-0.470,0.195
216,-0.495,0.195
217,-0.505,0.180
218,-0.520,0.170
219,-0.550,0.160
220,-0.560,0.155
221,-0.550,0.170
222,-0.540,0.195
223,-0.520,0.195
224,-0.540,0.190
225,-0.540,0.180
226,-0.550,0.170
227,-0.545,0.175
228,-0.530,0.195
229,-0.515,0.200
230,-0.530,0.190
231,-0.530,0.185
232,-0.535,0.195
233,-0.545,0.200
234,-0.525,0.205
235,-0.515,0.210
236,-0.510,0.205
237,-0.525,0.200
238,-0.535,0.205
239,-0.520,0.205
240,-0.510,0.220
241,-0.505,0.225
242,-0.510,0.215
243,-0.525,0.190
244,-0.535,0.205
245,-0.535,0.205
246,-0.515,0.215
247,-0.510,0.215
248,-0.515,0.225
249,-0.520,0.220
250,-0.530,0.205
251,-0.545,0.220
252,-0.535,0.230
253,-0.525,0.225
254,-0.515,0.220
255,-0.530,0.225
256,-0.535,0.225
257,-0.530,0.250
258,-0.515,0.245
259,-0.520,0.250
260,-0.530,0.235
261,-0.525,0.220
262,-0.515,0.230
263,-0.520,0.240
264,-0.495,0.245
265,-0.480,0.255
266,-0.490,0.240
267,-0.485,0.240
268,-0.495,0.235
269,-0.470,0.250
270,-0.470,0.270
271,-0.450,0.265
272,-0.445,0.265
273,-0.430,0.250
274,-0.435,0.250
275,-0.420,0.260
276,-0.400,0.275
277,-0.375,0.250
278,-0.370,0.245
279,-0.360,0.260
280,-0.350,0.260
281,-0.330,0.270
282,-0.300,0.280
283,-0.260,0.265
284,-0.250,0.255
285,-0.240,0.240
286,-0.235,0.240
287,-0.230,0.235
288,-0.210,0.245
289,-0.205,0.240
290,-0.180,0.230
291,-0.175,0.215
292,-0.185,0.210
293,-0.170,0.215
294,-0.165,0.215
295,-0.160,0.215
296,-0.155,0.215
297,-0.170,0.185
298,-0.170,0.195
299,-0.175,0.205
300,-0.175,0.205
301,-0.185,0.195
302,-0.185,0.185
303,-0.195,0.175
304,-0.200,0.175
305,-0.215,0.180
306,-0.220,0.205
307,-0.215,0.185
308,-0.230,0.195
309,-0.265,0.175
310,-0.280,0.165
311,-0.265,0.170
312,-0.260,0.190
313,-0.265,0.185
314,-0.255,0.180
315,-0.280,0.175
316,-0.310,0.165
317,-0.305,0.190
318,-0.290,0.190
319,-0.285,0.185
320,-0.300,0.180
321,-0.285,0.180
322,-0.290,0.170
323,-0.290,0.185
324,-0.290,0.195
325,-0.295,0.175
326,-0.295,0.165
327,-0.310,0.160
328,-0.310,0.165
329,-0.310,0.170
330,-0.315,0.175
331,-0.315,0.185
332,-0.315,0.180
333,-0.325,0.170
334,-0.330,0.165
335,-0.325,0.160
336,-0.310,0.170
337,-0.315,0.165
338,-0.320,0.155
339,-0.325,0.140
340,-0.360,0.155
341,-0.335,0.165
342,-0.320,0.165
343,-0.310,0.160
344,-0.320,0.150
345,-0.320,0.145
346,-0.330,0.145
347,-0.330,0.145
348,-0.310,0.165
349,-0.290,0.155
350,-0.300,0.150
351,-0.325,0.130
352,-0.330,0.125
353,-0.345,0.130
354,-0.325,0.140
355,-0.320,0.145
356,-0.320,0.130
357,-0.310,0.145
358,-0.315,0.145
359,-0.320,0.155
360,-0.320,0.155
361,-0.315,0.145
362,-0.310,0.130
363,-0.330,0.125
364,-0.340,0.125
365,-0.335,0.140
366,-0.325,0.150
367,-0.320,0.145
368,-0.320,0.135
369,-0.325,0.125
370,-0.345,0.130
371,-0.335,0.130
372,-0.320,0.140
373,-0.320,0.145
374,-0.320,0.145
375,-0.330,0.135
376,-0.360,0.125
377,-0.345,0.140
378,-0.320,0.145
379,-0.320,0.145
380,-0.330,0.135
381,-0.340,0.125
382,-0.355,0.145
383,-0.345,0.145
384,-0.330,0.190
385,-0.305,0.195
386,-0.300,0.195
387,-0.295,0.215
388,-0.305,0.215
389,-0.285,0.230
390,-0.245,0.235
391,-0.225,0.235
392,-0.225,0.230
393,-0.245,0.215
394,-0.260,0.195
395,-0.250,0.200
396,-0.220,0.200
397,-0.205,0.195
398,-0.175,0.195
399,-0.180,0.175
400,-0.175,0.165
401,-0.170,0.165
402,-0.145,0.155
403,-0.120,0.150
404,-0.145,0.145
405,-0.150,0.130
406,-0.165,0.140
407,-0.170,0.150
408,-0.165,0.175
409,-0.170,0.155
410,-0.185,0.150
411,-0.205,0.130
412,-0.240,0.115
413,-0.270,0.125
414,-0.325,0.140
415,-0.360,0.135
416,-0.390,0.130
417,-0.395,0.135
418,-0.405,0.110
419,-0.405,0.130
420,-0.415,0.130
421,-0.410,0.125
422,-0.400,0.115
423,-0.410,0.115
424,-0.420,0.115
425,-0.420,0.130
426,-0.400,0.145
427,-0.395,0.130
428,-0.395,0.120
429,-0.400,0.110
430,-0.390,0.110
431,-0.390,0.130
432,-0.385,0.130
433,-0.380,0.145
434,-0.390,0.125
435,-0.400,0.120
436,-0.395,0.110
437,-0.385,0.130
438,-0.375,0.130
439,-0.370,0.120
440,-0.365,0.105
441,-0.385,0.095
442,-0.390,0.095
443,-0.385,0.110
444,-0.390,0.120
445,-0.390,0.100
446,-0.385,0.080
447,-0.370,0.040
448,-0.330,-0.015
449,-0.225,-0.050
450,-0.090,-0.120
451,0.090,-0.225
452,0.270,-0.315
453,0.460,-0.380
454,0.640,-0.380
455,0.830,-0.340
456,0.980,-0.270
457,1.085,-0.220
458,1.175,-0.215
459,1.175,-0.200
460,1.065,-0.175
461,0.910,-0.125
462,0.780,-0.065
463,0.660,-0.055
464,0.530,-0.015
465,0.385,0.025
466,0.245,0.050
467,0.175,0.080
468,0.155,0.110
469,0.095,0.125
470,0.000,0.140
471,-0.115,0.140
472,-0.190,0.155
473,-0.250,0.175
474,-0.295,0.195
475,-0.350,0.215
476,-0.415,0.220
477,-0.455,0.190
478,-0.490,0.195
479,-0.495,0.190
480,-0.495,0.205
481,-0.510,0.205
482,-0.520,0.200
483,-0.540,0.205
484,-0.560,0.205
485,-0.550,0.205
486,-0.540,0.210
487,-0.520,0.220
488,-0.515,0.215
489,-0.520,0.195
490,-0.530,0.200
491,-0.525,0.205
492,-0.495,0.220
493,-0.475,0.215
494,-0.485,0.215
495,-0.495,0.195
496,-0.510,0.195
497,-0.515,0.200
498,-0.505,0.210
499,-0.495,0.205
500,-0.500,0.200
501,-0.490,0.220
502,-0.495,0.220
503,-0.490,0.235
504,-0.490,0.240
505,-0.485,0.235
506,-0.500,0.220
507,-0.505,0.225
508,-0.515,0.225
509,-0.515,0.235
510,-0.510,0.235
511,-0.505,0.230
512,-0.505,0.225
513,-0.500,0.210
514,-0.505,0.210
515,-0.510,0.220
516,-0.500,0.230
517,-0.500,0.230
518,-0.500,0.220
519,-0.505,0.200
520,-0.525,0.210
521,-0.515,0.215
522,-0.515,0.220
523,-0.515,0.235
524,-0.495,0.235
525,-0.500,0.225
526,-0.510,0.215
527,-0.495,0.225
528,-0.490,0.250
529,-0.470,0.235
530,-0.475,0.245
531,-0.480,0.225
532,-0.475,0.235
533,-0.450,0.240
534,-0.440,0.235
535,-0.415,0.250
536,-0.410,0.235
537,-0.420,0.240
538,-0.400,0.235
539,-0.385,0.245
540,-0.345,0.250
541,-0.325,0.250
542,-0.320,0.235
543,-0.335,0.235
544,-0.325,0.225
545,-0.305,0.230
546,-0.285,0.225
547,-0.255,0.225
548,-0.240,0.225
549,-0.235,0.210
550,-0.235,0.210
551,-0.230,0.200
552,-0.205,0.215
553,-0.190,0.200
554,-0.200,0.205
555,-0.200,0.205
556,-0.220,0.190
557,-0.205,0.190
558,-0.220,0.195
559,-0.205,0.205
560,-0.215,0.180
561,-0.245,0.175
562,-0.260,0.185
563,-0.250,0.190
564,-0.255,0.190
565,-0.250,0.180
566,-0.265,0.165
567,-0.280,0.155
568,-0.300,0.165
569,-0.295,0.180
570,-0.300,0.195
571,-0.300,0.180
572,-0.305,0.180
573,-0.310,0.175
574,-0.330,0.180
575,-0.330,0.185
576,-0.320,0.190
577,-0.315,0.190
578,-0.320,0.190
579,-0.330,0.185
580,-0.345,0.180
581,-0.345,0.195
582,-0.340,0.200
583,-0.335,0.195
584,-0.335,0.190
585,-0.340,0.185
586,-0.355,0.170
587,-0.340,0.175
588,-0.345,0.175
589,-0.340,0.170
590,-0.350,0.170
591,-0.350,0.155
592,-0.365,0.170
593,-0.365,0.185
594,-0.350,0.195
595,-0.335,0.170
596,-0.335,0.180
597,-0.350,0.160
598,-0.360,0.160
599,-0.370,0.165
600,-0.360,0.170
601,-0.345,0.170
602,-0.350,0.160
603,-0.365,0.155
604,-0.365,0.145
605,-0.370,0.160
606,-0.355,0.165
607,-0.355,0.160
608,-0.360,0.160
609,-0.365,0.145
610,-0.365,0.150
611,-0.355,0.160
612,-0.335,0.160
613,-0.340,0.150
614,-0.355,0.145
615,-0.375,0.145
616,-0.385,0.155
617,-0.375,0.155
618,-0.360,0.170
619,-0.350,0.160
620,-0.355,0.160
621,-0.365,0.145
622,-0.375,0.145
623,-0.370,0.155
624,-0.360,0.165
625,-0.355,0.160
626,-0.355,0.160
627,-0.365,0.140
628,-0.365,0.140
629,-0.355,0.150
630,-0.335,0.155
631,-0.325,0.165
632,-0.335,0.155
633,-0.360,0.155
634,-0.375,0.145
635,-0.355,0.165
636,-0.335,0.185
637,-0.320,0.190
638,-0.320,0.210
639,-0.290,0.215
640,-0.300,0.220
641,-0.275,0.230
642,-0.250,0.230
643,-0.220,0.205
644,-0.240,0.215
645,-0.255,0.200
646,-0.245,0.190
647,-0.215,0.190
648,-0.180,0.195
649,-0.170,0.190
650,-0.165,0.185
651,-0.145,0.170
652,-0.135,0.185
653,-0.125,0.175
654,-0.115,0.175
655,-0.105,0.155
656,-0.115,0.160
657,-0.130,0.155
658,-0.170,0.150
659,-0.170,0.150
660,-0.180,0.165
661,-0.180,0.165
662,-0.210,0.140
663,-0.255,0.125
664,-0.315,0.130
665,-0.350,0.140
666,-0.370,0.145
667,-0.375,0.130
668,-0.370,0.120
669,-0.390,0.105
670,-0.405,0.105
671,-0.400,0.115
672,-0.390,0.130
673,-0.375,0.125
674,-0.380,0.120
675,-0.385,0.110
676,-0.405,0.110
677,-0.385,0.120
678,-0.375,0.125
679,-0.375,0.125
680,-0.380,0.125
681,-0.375,0.110
682,-0.380,0.110
683,-0.370,0.130
684,-0.355,0.140
685,-0.350,0.140
686,-0.355,0.135
687,-0.365,0.115
688,-0.375,0.100
689,-0.360,0.110
690,-0.350,0.100
691,-0.340,0.100
692,-0.340,0.075
693,-0.355,0.075
694,-0.380,0.085
695,-0.380,0.090
696,-0.360,0.090
697,-0.320,0.060
698,-0.230,0.020
699,-0.100,-0.040
700,0.055,-0.110
701,0.240,-0.180
702,0.415,-0.225
703,0.610,-0.285
704,0.775,-0.320
705,0.925,-0.320
706,1.030,-0.250
707,1.105,-0.175
708,1.155,-0.140
709,1.140,-0.155
710,1.035,-0.140
711,0.885,-0.115
712,0.755,-0.080
713,0.650,-0.040
714,0.540,0.005
715,0.370,0.035
716,0.190,0.070
717,0.080,0.080
718,-0.015,0.100
719,-0.080,0.120
720,-0.175,0.145
721,-0.245,0.135
722,-0.305,0.150
723,-0.365,0.165
724,-0.410,0.175
725,-0.450,0.205
726,-0.470,0.220
727,-0.490,0.220
728,-0.495,0.210
729,-0.535,0.185
730,-0.560,0.185
731,-0.570,0.190
732,-0.565,0.205
733,-0.555,0.205
734,-0.560,0.195
735,-0.565,0.170
736,-0.585,0.175
737,-0.570,0.200
738,-0.555,0.210
739,-0.550,0.205
740,-0.545,0.195
741,-0.555,0.190
742,-0.570,0.185
743,-0.560,0.210
744,-0.550,0.215
745,-0.545,0.200
746,-0.525,0.190
747,-0.530,0.195
748,-0.545,0.205
749,-0.535,0.210
750,-0.530,0.220
751,-0.530,0.205
752,-0.520,0.205
753,-0.525,0.190
754,-0.535,0.185
755,-0.535,0.210
756,-0.525,0.225
757,-0.535,0.215
758,-0.525,0.205
759,-0.530,0.195
760,-0.550,0.190
761,-0.535,0.200
762,-0.530,0.210
763,-0.520,0.215
764,-0.535,0.210
765,-0.545,0.205
766,-0.550,0.205
767,-0.540,0.205
768,-0.525,0.225
769,-0.525,0.210
770,-0.535,0.220
771,-0.540,0.195
772,-0.530,0.210
773,-0.520,0.230
774,-0.510,0.240
775,-0.500,0.235
776,-0.505,0.215
777,-0.515,0.210
778,-0.520,0.200
779,-0.510,0.220
780,-0.505,0.240
781,-0.495,0.250
782,-0.480,0.235
783,-0.475,0.220
784,-0.475,0.210
785,-0.455,0.225
786,-0.425,0.225
787,-0.400,0.225
788,-0.410,0.225
789,-0.405,0.215
790,-0.400,0.210
791,-0.385,0.220
792,-0.370,0.230
793,-0.345,0.225
794,-0.315,0.215
795,-0.310,0.210
796,-0.315,0.220
797,-0.290,0.225
798,-0.260,0.225
799,-0.250,0.220
800,-0.235,0.205
801,-0.230,0.210
802,-0.240,0.200
803,-0.225,0.200
804,-0.220,0.215
805,-0.205,0.200
806,-0.200,0.190
807,-0.180,0.185
808,-0.185,0.185
809,-0.180,0.170
810,-0.185,0.190
811,-0.170,0.180
812,-0.190,0.190
813,-0.210,0.185
814,-0.225,0.175
815,-0.230,0.175
816,-0.215,0.180
817,-0.215,0.180
818,-0.230,0.180
819,-0.250,0.180
820,-0.260,0.180
821,-0.270,0.185
822,-0.255,0.195
823,-0.255,0.195
824,-0.265,0.185
825,-0.275,0.165
826,-0.275,0.165
827,-0.280,0.170
828,-0.285,0.180
829,-0.270,0.190
830,-0.270,0.180
831,-0.295,0.170
832,-0.300,0.165
833,-0.310,0.160
834,-0.310,0.175
835,-0.295,0.165
836,-0.295,0.165
837,-0.295,0.145
838,-0.315,0.150
839,-0.315,0.160
840,-0.325,0.170
841,-0.315,0.170
842,-0.315,0.175
843,-0.315,0.150
844,-0.325,0.145
845,-0.335,0.155
846,-0.330,0.165
847,-0.330,0.145
848,-0.320,0.140
849,-0.320,0.135
850,-0.325,0.145
851,-0.325,0.140
852,-0.310,0.165
853,-0.310,0.155
854,-0.315,0.155
855,-0.305,0.135
856,-0.310,0.145
857,-0.320,0.130
858,-0.320,0.145
859,-0.320,0.145
860,-0.320,0.145
861,-0.320,0.135
862,-0.330,0.135
863,-0.320,0.135
864,-0.315,0.135
865,-0.305,0.125
866,-0.315,0.120
867,-0.315,0.120
868,-0.340,0.120
869,-0.335,0.125
870,-0.325,0.135
871,-0.315,0.140
872,-0.310,0.120
873,-0.330,0.125
874,-0.340,0.110
875,-0.320,0.140
876,-0.305,0.155
877,-0.295,0.145
878,-0.300,0.135
879,-0.315,0.140
880,-0.330,0.125
881,-0.330,0.125
882,-0.310,0.135
883,-0.295,0.145
884,-0.300,0.140
885,-0.320,0.125
886,-0.330,0.120
887,-0.325,0.130
888,-0.310,0.135
889,-0.295,0.140
890,-0.310,0.140
891,-0.320,0.135
892,-0.315,0.150
893,-0.295,0.165
894,-0.280,0.195
895,-0.265,0.205
896,-0.245,0.205
897,-0.245,0.200
898,-0.245,0.185
899,-0.240,0.195
900,-0.220,0.215
901,-0.215,0.210
902,-0.230,0.210
903,-0.210,0.180
904,-0.195,0.165
905,-0.180,0.160
906,-0.160,0.165
907,-0.135,0.165
908,-0.125,0.170
909,-0.130,0.150
910,-0.130,0.135
911,-0.120,0.135
912,-0.095,0.135
913,-0.105,0.135
914,-0.105,0.130
915,-0.130,0.125
916,-0.150,0.120
917,-0.140,0.115
918,-0.145,0.125
919,-0.170,0.115
920,-0.230,0.110
921,-0.280,0.095
922,-0.325,0.080
923,-0.340,0.095
924,-0.340,0.100
925,-0.335,0.095
926,-0.360,0.090
927,-0.365,0.075
928,-0.375,0.085
929,-0.370,0.085
930,-0.355,0.085
931,-0.340,0.080
932,-0.345,0.080
933,-0.350,0.070
934,-0.345,0.075
935,-0.350,0.085
936,-0.350,0.090
937,-0.330,0.080
938,-0.315,0.075
939,-0.325,0.060
940,-0.340,0.065
941,-0.330,0.075
942,-0.335,0.085
943,-0.315,0.080
944,-0.310,0.075
945,-0.310,0.055
946,-0.320,0.055
947,-0.315,0.040
948,-0.305,0.045
949,-0.305,0.025
950,-0.315,0.025
951,-0.325,0.035
952,-0.335,0.030
953,-0.330,0.030
954,-0.275,0.000
955,-0.165,-0.050
956,-0.010,-0.135
957,0.185,-0.220
958,0.355,-0.305
959,0.560,-0.370
960,0.770,-0.380
961,0.945,-0.355
962,1.050,-0.305
963,1.140,-0.270
964,1.180,-0.240
965,1.140,-0.240
966,1.035,-0.205
967,0.895,-0.165
968,0.770,-0.120
969,0.675,-0.115
970,0.570,-0.090
971,0.460,-0.050
972,0.310,0.000
973,0.170,0.010
974,0.065,0.015
975,-0.030,0.025
976,-0.110,0.055
977,-0.195,0.080
978,-0.270,0.100
979,-0.330,0.105
980,-0.365,0.115
981,-0.420,0.125
982,-0.485,0.145
983,-0.500,0.165
984,-0.510,0.180
985,-0.500,0.155
986,-0.505,0.140
987,-0.515,0.135
988,-0.535,0.120
989,-0.545,0.140
990,-0.540,0.155
991,-0.540,0.160
992,-0.540,0.150
993,-0.535,0.150
994,-0.520,0.155
995,-0.515,0.155
996,-0.515,0.155
997,-0.510,0.150
998,-0.510,0.145
999,-0.505,0.150
1000,-0.500,0.155
1001,-0.495,0.170
1002,-0.490,0.155
1003,-0.490,0.150
1004,-0.495,0.145
1005,-0.495,0.145
1006,-0.485,0.155
1007,-0.465,0.155
1008,-0.470,0.150
1009,-0.470,0.150
1010,-0.475,0.140
1011,-0.495,0.140
1012,-0.490,0.140
1013,-0.470,0.155
1014,-0.470,0.160
1015,-0.485,0.155
1016,-0.480,0.140
1017,-0.500,0.140
1018,-0.485,0.145
1019,-0.475,0.155
1020,-0.485,0.150
1021,-0.480,0.140
1022,-0.490,0.145
1023,-0.495,0.150
1024,-0.505,0.155
1025,-0.510,0.165
1026,-0.475,0.165
1027,-0.480,0.160
1028,-0.485,0.145
1029,-0.500,0.150
1030,-0.495,0.150
1031,-0.485,0.180
1032,-0.475,0.165
1033,-0.465,0.170
1034,-0.470,0.155
1035,-0.485,0.160
1036,-0.465,0.160
1037,-0.450,0.170
1038,-0.425,0.165
1039,-0.420,0.155
1040,-0.400,0.150
1041,-0.415,0.165
1042,-0.395,0.170
1043,-0.385,0.175
1044,-0.380,0.175
1045,-0.375,0.175
1046,-0.370,0.160
1047,-0.370,0.160
1048,-0.345,0.155
1049,-0.315,0.175
1050,-0.285,0.180
1051,-0.280,0.175
1052,-0.255,0.160
1053,-0.260,0.150
1054,-0.235,0.150
1055,-0.215,0.160
1056,-0.195,0.155
1057,-0.190,0.150
1058,-0.180,0.135
1059,-0.175,0.135
1060,-0.165,0.145
1061,-0.155,0.145
1062,-0.140,0.140
1063,-0.145,0.135
1064,-0.150,0.115
1065,-0.155,0.110
1066,-0.175,0.135
1067,-0.175,0.140
1068,-0.160,0.120
1069,-0.175,0.110
1070,-0.200,0.100
1071,-0.215,0.095
1072,-0.220,0.100
1073,-0.215,0.110
1074,-0.225,0.115
1075,-0.230,0.100
1076,-0.230,0.100
1077,-0.240,0.105
1078,-0.235,0.110
1079,-0.240,0.120
1080,-0.245,0.100
1081,-0.255,0.085
1082,-0.245,0.085
1083,-0.245,0.080
1084,-0.255,0.105
1085,-0.245,0.110
1086,-0.240,0.105
1087,-0.255,0.090
1088,-0.265,0.080
1089,-0.280,0.085
1090,-0.275,0.105
1091,-0.270,0.110
1092,-0.260,0.110
1093,-0.260,0.110
1094,-0.270,0.090
1095,-0.280,0.075
1096,-0.285,0.110
1097,-0.280,0.095
1098,-0.270,0.095
1099,-0.270,0.095
1100,-0.275,0.090
1101,-0.270,0.080
1102,-0.270,0.095
1103,-0.270,0.100
1104,-0.265,0.085
1105,-0.255,0.085
1106,-0.275,0.070
1107,-0.290,0.075
1108,-0.280,0.075
1109,-0.270,0.090
1110,-0.280,0.085
1111,-0.285,0.075
1112,-0.280,0.065
1113,-0.280,0.060
1114,-0.275,0.075
1115,-0.275,0.075
1116,-0.260,0.075
1117,-0.265,0.065
1118,-0.280,0.055
1119,-0.285,0.040
1120,-0.280,0.055
1121,-0.270,0.065
1122,-0.250,0.055
1123,-0.270,0.065
1124,-0.290,0.060
1125,-0.280,0.060
1126,-0.290,0.055
1127,-0.265,0.080
1128,-0.260,0.075
1129,-0.255,0.065
1130,-0.270,0.060
1131,-0.285,0.055
1132,-0.285,0.060
1133,-0.275,0.085
1134,-0.260,0.070
1135,-0.270,0.060
1136,-0.265,0.060
1137,-0.280,0.050
1138,-0.280,0.060
1139,-0.260,0.070
1140,-0.265,0.065
1141,-0.275,0.060
1142,-0.280,0.045
1143,-0.295,0.055
1144,-0.275,0.075
1145,-0.250,0.070
1146,-0.245,0.060
1147,-0.255,0.060
1148,-0.270,0.060
1149,-0.285,0.060
1150,-0.285,0.090
1151,-0.265,0.115
1152,-0.240,0.120
1153,-0.235,0.140
1154,-0.225,0.135
1155,-0.205,0.145
1156,-0.170,0.150
1157,-0.145,0.150
1158,-0.150,0.140
1159,-0.180,0.135
1160,-0.175,0.120
1161,-0.170,0.100
1162,-0.130,0.085
1163,-0.100,0.100
1164,-0.085,0.090
1165,-0.090,0.090
1166,-0.075,0.075
1167,-0.085,0.070
1168,-0.090,0.085
1169,-0.075,0.065
1170,-0.055,0.050
1171,-0.065,0.055
1172,-0.075,0.060
1173,-0.090,0.075
1174,-0.110,0.075
1175,-0.110,0.065
1176,-0.120,0.040
1177,-0.130,0.035
1178,-0.190,0.020
1179,-0.260,0.030
1180,-0.300,0.030
1181,-0.325,0.035
1182,-0.330,0.050
1183,-0.335,0.035
1184,-0.340,0.025
1185,-0.335,0.025
1186,-0.330,0.030
1187,-0.340,0.045
1188,-0.340,0.030
1189,-0.335,0.035
1190,-0.335,0.025
1191,-0.340,0.030
1192,-0.325,0.035
1193,-0.335,0.040
1194,-0.325,0.035
1195,-0.320,0.030
1196,-0.325,0.045
1197,-0.325,0.035
1198,-0.325,0.045
1199,-0.310,0.050
1200,-0.295,0.050
1201,-0.305,0.035
1202,-0.305,0.015
1203,-0.305,0.020
1204,-0.280,0.020
1205,-0.270,0.025
1206,-0.275,0.015
1207,-0.290,0.020
1208,-0.315,-0.010
1209,-0.310,-0.015
1210,-0.290,-0.030
1211,-0.245,-0.085
1212,-0.160,-0.135
1213,-0.045,-0.225
1214,0.115,-0.320
1215,0.300,-0.410
1216,0.515,-0.465
1217,0.740,-0.465
1218,0.935,-0.410
1219,1.075,-0.355
1220,1.195,-0.300
1221,1.235,-0.300
1222,1.195,-0.300
1223,1.080,-0.255
1224,0.960,-0.205
1225,0.835,-0.185
1226,0.740,-0.150
1227,0.625,-0.110
1228,0.465,-0.060
1229,0.310,-0.010
1230,0.215,-0.005
1231,0.140,0.015
1232,0.025,0.025
1233,-0.080,0.030
1234,-0.160,0.070
1235,-0.230,0.080
1236,-0.270,0.110
1237,-0.325,0.115
1238,-0.385,0.120
1239,-0.445,0.110
1240,-0.460,0.115
1241,-0.460,0.120
1242,-0.485,0.115
1243,-0.485,0.110
1244,-0.495,0.105
1245,-0.500,0.110
1246,-0.495,0.115
1247,-0.510,0.120
1248,-0.515,0.130
1249,-0.505,0.115
1250,-0.495,0.105
1251,-0.495,0.115
1252,-0.495,0.130
1253,-0.475,0.130
1254,-0.475,0.135
1255,-0.480,0.135
1256,-0.485,0.120
1257,-0.490,0.110
1258,-0.500,0.125
1259,-0.485,0.130
1260,-0.470,0.135
1261,-0.470,0.130
1262,-0.465,0.135
1263,-0.470,0.130
1264,-0.465,0.130
1265,-0.465,0.145
1266,-0.480,0.130
1267,-0.475,0.135
1268,-0.480,0.130
1269,-0.480,0.135
1270,-0.480,0.150
1271,-0.465,0.155
1272,-0.470,0.155
1273,-0.470,0.145
1274,-0.475,0.145
1275,-0.485,0.145
1276,-0.465,0.155
1277,-0.460,0.160
1278,-0.455,0.165
1279,-0.450,0.160
1280,-0.460,0.155
1281,-0.480,0.150
1282,-0.460,0.150
1283,-0.450,0.165
1284,-0.440,0.165
1285,-0.445,0.175
1286,-0.450,0.155
1287,-0.465,0.165
1288,-0.465,0.170
1289,-0.465,0.185
1290,-0.455,0.175
1291,-0.440,0.165
1292,-0.430,0.170
1293,-0.435,0.175
1294,-0.420,0.175
1295,-0.410,0.190
1296,-0.390,0.180
1297,-0.370,0.160
1298,-0.365,0.165
1299,-0.360,0.165
1300,-0.330,0.170
1301,-0.315,0.185
1302,-0.295,0.180
1303,-0.275,0.180
1304,-0.280,0.175
1305,-0.270,0.180
1306,-0.240,0.175
1307,-0.220,0.185
1308,-0.200,0.170
1309,-0.185,0.160
1310,-0.180,0.155
1311,-0.175,0.145
1312,-0.160,0.160
1313,-0.135,0.150
1314,-0.115,0.150
1315,-0.125,0.145
1316,-0.130,0.140
1317,-0.155,0.130
1318,-0.150,0.130
1319,-0.140,0.140
1320,-0.135,0.140
1321,-0.140,0.125
1322,-0.160,0.100
1323,-0.175,0.100
1324,-0.175,0.110
1325,-0.180,0.115
1326,-0.170,0.125
1327,-0.185,0.105
1328,-0.200,0.115
1329,-0.215,0.115
1330,-0.220,0.110
1331,-0.225,0.120
1332,-0.235,0.120
1333,-0.235,0.110
1334,-0.240,0.105
1335,-0.250,0.105
1336,-0.250,0.100
1337,-0.240,0.120
1338,-0.235,0.120
1339,-0.250,0.115
1340,-0.250,0.115
1341,-0.280,0.100
1342,-0.270,0.115
1343,-0.270,0.120
1344,-0.260,0.120
1345,-0.275,0.110
1346,-0.275,0.110
1347,-0.300,0.110
1348,-0.285,0.105
1349,-0.275,0.120
1350,-0.265,0.120
1351,-0.270,0.120
1352,-0.280,0.100
1353,-0.295,0.095
1354,-0.290,0.110
1355,-0.285,0.115
1356,-0.265,0.120
1357,-0.285,0.105
1358,-0.295,0.095
1359,-0.295,0.095
1360,-0.310,0.105
1361,-0.290,0.115
1362,-0.280,0.105
1363,-0.285,0.095
1364,-0.290,0.090
1365,-0.290,0.075
1366,-0.295,0.110
1367,-0.290,0.105
1368,-0.285,0.115
1369,-0.290,0.110
1370,-0.285,0.085
1371,-0.310,0.095
1372,-0.300,0.090
1373,-0.305,0.095
1374,-0.295,0.090
1375,-0.290,0.095
1376,-0.290,0.090
1377,-0.290,0.095
1378,-0.295,0.085
1379,-0.300,0.095
1380,-0.280,0.095
1381,-0.280,0.090
1382,-0.285,0.090
1383,-0.300,0.085
1384,-0.290,0.105
1385,-0.285,0.100
1386,-0.275,0.085
1387,-0.270,0.090
1388,-0.275,0.080
1389,-0.300,0.090
1390,-0.290,0.085
1391,-0.275,0.110
1392,-0.275,0.100
1393,-0.270,0.100
1394,-0.285,0.100
1395,-0.295,0.090
1396,-0.285,0.100
1397,-0.280,0.095
1398,-0.265,0.105
1399,-0.270,0.100
1400,-0.270,0.095
1401,-0.270,0.105
1402,-0.275,0.115
1403,-0.255,0.125
1404,-0.255,0.130
1405,-0.255,0.140
1406,-0.265,0.125
1407,-0.270,0.160
1408,-0.225,0.180
1409,-0.205,0.175
1410,-0.195,0.180
1411,-0.185,0.175
1412,-0.195,0.150
1413,-0.200,0.155
1414,-0.195,0.155
1415,-0.175,0.155
1416,-0.145,0.140
1417,-0.130,0.130
1418,-0.130,0.115
1419,-0.125,0.115
1420,-0.110,0.130
1421,-0.095,0.135
1422,-0.060,0.125
1423,-0.070,0.095
1424,-0.075,0.090
1425,-0.105,0.085
1426,-0.100,0.105
1427,-0.085,0.120
1428,-0.085,0.115
1429,-0.090,0.100
1430,-0.115,0.080
1431,-0.130,0.090
1432,-0.155,0.075
1433,-0.180,0.090
1434,-0.220,0.080
1435,-0.275,0.075
1436,-0.305,0.075
1437,-0.355,0.070
1438,-0.350,0.075
1439,-0.335,0.080
1440,-0.330,0.075
1441,-0.340,0.075
1442,-0.350,0.070
1443,-0.370,0.070
1444,-0.345,0.080
1445,-0.340,0.070
1446,-0.330,0.070
1447,-0.330,0.070
1448,-0.340,0.050
1449,-0.340,0.055
1450,-0.330,0.070
1451,-0.325,0.085
1452,-0.320,0.080
1453,-0.320,0.070
1454,-0.330,0.060
1455,-0.340,0.060
1456,-0.320,0.075
1457,-0.305,0.080
1458,-0.295,0.075
1459,-0.290,0.065
1460,-0.300,0.065
1461,-0.320,0.040
1462,-0.300,0.030
1463,-0.310,0.050
1464,-0.310,0.050
1465,-0.315,0.055
1466,-0.310,0.035
1467,-0.300,0.045
1468,-0.235,0.005
1469,-0.140,-0.030
1470,0.000,-0.115
1471,0.180,-0.205
1472,0.365,-0.295
1473,0.555,-0.355
1474,0.755,-0.360
1475,0.940,-0.325
1476,1.075,-0.265
1477,1.160,-0.215
1478,1.210,-0.225
1479,1.165,-0.215
1480,1.065,-0.180
1481,0.940,-0.135
1482,0.835,-0.110
1483,0.755,-0.095
1484,0.655,-0.080
1485,0.525,-0.045
1486,0.360,0.025
1487,0.220,0.055
1488,0.135,0.070
1489,0.070,0.055
1490,-0.020,0.075
1491,-0.130,0.100
1492,-0.215,0.110
1493,-0.275,0.145
1494,-0.315,0.155
1495,-0.360,0.165
1496,-0.410,0.165
1497,-0.445,0.160
1498,-0.455,0.165
1499,-0.465,0.175
1500,-0.465,0.165
1501,-0.470,0.155
1502,-0.485,0.165
1503,-0.495,0.165
1504,-0.505,0.170
1505,-0.500,0.170
1506,-0.495,0.180
1507,-0.500,0.170
1508,-0.495,0.165
1509,-0.500,0.175
1510,-0.495,0.190
1511,-0.480,0.190
1512,-0.470,0.185
1513,-0.475,0.165
1514,-0.470,0.160
1515,-0.485,0.175
1516,-0.475,0.190
1517,-0.465,0.195
1518,-0.465,0.180
1519,-0.470,0.180
1520,-0.495,0.165
1521,-0.495,0.175
1522,-0.485,0.175
1523,-0.475,0.185
1524,-0.470,0.185
1525,-0.480,0.175
1526,-0.485,0.170
1527,-0.505,0.160
1528,-0.495,0.170
1529,-0.475,0.170
1530,-0.460,0.175
1531,-0.465,0.170
1532,-0.480,0.160
1533,-0.485,0.170
1534,-0.495,0.185
1535,-0.475,0.200
1536,-0.485,0.185
1537,-0.485,0.180
1538,-0.475,0.175
1539,-0.495,0.175
1540,-0.505,0.200
1541,-0.490,0.210
1542,-0.485,0.200
1543,-0.470,0.205
1544,-0.470,0.185
1545,-0.470,0.190
1546,-0.485,0.205
1547,-0.465,0.200
1548,-0.465,0.200
1549,-0.465,0.200
1550,-0.460,0.205
1551,-0.450,0.205
1552,-0.455,0.210
1553,-0.430,0.210
1554,-0.410,0.210
1555,-0.410,0.205
1556,-0.410,0.195
1557,-0.405,0.205
1558,-0.380,0.220
1559,-0.350,0.215
1560,-0.340,0.205
1561,-0.330,0.190
1562,-0.325,0.195
1563,-0.300,0.190
1564,-0.270,0.195
1565,-0.245,0.215
1566,-0.240,0.210
1567,-0.225,0.210
1568,-0.230,0.190
1569,-0.230,0.190
1570,-0.210,0.185
1571,-0.195,0.190
1572,-0.175,0.200
1573,-0.175,0.180
1574,-0.175,0.180
1575,-0.175,0.170
1576,-0.170,0.185
1577,-0.155,0.195
1578,-0.140,0.185
1579,-0.155,0.165
1580,-0.175,0.160
1581,-0.190,0.155
1582,-0.180,0.160
1583,-0.195,0.165
1584,-0.205,0.175
1585,-0.200,0.175
1586,-0.205,0.155
1587,-0.230,0.145
1588,-0.230,0.150
1589,-0.225,0.165
1590,-0.210,0.160
1591,-0.225,0.165
1592,-0.240,0.155
1593,-0.245,0.165
1594,-0.250,0.165
1595,-0.245,0.170
1596,-0.245,0.175
1597,-0.245,0.175
1598,-0.260,0.155
1599,-0.280,0.160
1600,-0.290,0.170
1601,-0.280,0.180
1602,-0.260,0.170
1603,-0.260,0.165
1604,-0.285,0.160
1605,-0.295,0.160
1606,-0.285,0.175
1607,-0.280,0.175
1608,-0.265,0.170
1609,-0.270,0.165
1610,-0.275,0.150
1611,-0.305,0.155
1612,-0.300,0.160
1613,-0.295,0.150
1614,-0.275,0.150
1615,-0.280,0.150
1616,-0.295,0.155
1617,-0.300,0.145
1618,-0.295,0.145
1619,-0.290,0.155
1620,-0.285,0.150
1621,-0.290,0.145
1622,-0.300,0.145
1623,-0.300,0.140
1624,-0.290,0.145
1625,-0.285,0.150
1626,-0.295,0.140
1627,-0.280,0.145
1628,-0.285,0.130
1629,-0.295,0.135
1630,-0.285,0.140
1631,-0.290,0.150
1632,-0.275,0.145
1633,-0.285,0.140
1634,-0.305,0.130
1635,-0.305,0.140
1636,-0.305,0.140
1637,-0.285,0.135
1638,-0.285,0.135
1639,-0.290,0.130
1640,-0.295,0.125
1641,-0.305,0.125
1642,-0.305,0.135
1643,-0.295,0.140
1644,-0.285,0.145
1645,-0.280,0.140
1646,-0.280,0.135
1647,-0.295,0.125
1648,-0.290,0.135
1649,-0.285,0.140
1650,-0.275,0.140
1651,-0.285,0.140
1652,-0.280,0.125
1653,-0.295,0.125
1654,-0.290,0.130
1655,-0.290,0.135
1656,-0.285,0.125
1657,-0.280,0.120
1658,-0.290,0.120
1659,-0.300,0.120
1660,-0.275,0.125
1661,-0.275,0.145
1662,-0.275,0.130
1663,-0.275,0.130
1664,-0.290,0.140
1665,-0.285,0.150
1666,-0.270,0.165
1667,-0.265,0.190
1668,-0.245,0.190
1669,-0.230,0.205
1670,-0.220,0.205
1671,-0.220,0.195
1672,-0.210,0.200
1673,-0.180,0.200
1674,-0.180,0.200
1675,-0.190,0.200
1676,-0.190,0.170
1677,-0.190,0.155
1678,-0.150,0.165
1679,-0.125,0.160
1680,-0.105,0.160
1681,-0.095,0.140
1682,-0.090,0.145
1683,-0.090,0.135
1684,-0.075,0.135
1685,-0.060,0.135
1686,-0.065,0.130
1687,-0.080,0.130
1688,-0.095,0.125
1689,-0.110,0.115
1690,-0.105,0.120
1691,-0.100,0.130
1692,-0.100,0.115
1693,-0.125,0.110
1694,-0.170,0.095
1695,-0.225,0.100
1696,-0.270,0.105
1697,-0.295,0.105
1698,-0.305,0.100
1699,-0.325,0.090
1700,-0.345,0.080
1701,-0.340,0.085
1702,-0.335,0.085
1703,-0.325,0.090
1704,-0.320,0.090
1705,-0.330,0.080
1706,-0.340,0.075
1707,-0.350,0.070
1708,-0.340,0.090
1709,-0.320,0.105
1710,-0.320,0.090
1711,-0.320,0.095
1712,-0.320,0.075
1713,-0.325,0.080
1714,-0.325,0.085
1715,-0.320,0.095
1716,-0.300,0.090
1717,-0.295,0.080
1718,-0.305,0.065
1719,-0.310,0.070
1720,-0.310,0.075
1721,-0.305,0.085
1722,-0.290,0.075
1723,-0.280,0.060
1724,-0.305,0.035
1725,-0.310,0.035
1726,-0.315,0.060
1727,-0.325,0.065
1728,-0.310,0.060
1729,-0.300,0.035
1730,-0.255,-0.005
1731,-0.180,-0.050
1732,-0.045,-0.100
1733,0.135,-0.175
1734,0.320,-0.270
1735,0.495,-0.345
1736,0.675,-0.385
1737,0.855,-0.380
1738,1.015,-0.315
1739,1.135,-0.250
1740,1.200,-0.230
1741,1.205,-0.230
1742,1.100,-0.210
1743,0.950,-0.165
1744,0.820,-0.130
1745,0.745,-0.095
1746,0.660,-0.090
1747,0.520,-0.055
1748,0.355,-0.030
1749,0.240,0.000
1750,0.155,0.025
1751,0.140,0.045
1752,0.080,0.055
1753,-0.020,0.075
1754,-0.125,0.105
1755,-0.220,0.110
1756,-0.290,0.135
1757,-0.325,0.155
1758,-0.355,0.165
1759,-0.395,0.180
1760,-0.435,0.165
1761,-0.455,0.160
1762,-0.460,0.180
1763,-0.475,0.180
1764,-0.480,0.170
1765,-0.495,0.170
1766,-0.500,0.145
1767,-0.510,0.160
1768,-0.500,0.175
1769,-0.485,0.180
1770,-0.475,0.175
1771,-0.480,0.170
1772,-0.495,0.170
1773,-0.490,0.165
1774,-0.485,0.170
1775,-0.475,0.175
1776,-0.445,0.180
1777,-0.460,0.170
1778,-0.485,0.165
1779,-0.495,0.175
1780,-0.490,0.180
1781,-0.480,0.175
1782,-0.465,0.170
1783,-0.465,0.180
1784,-0.470,0.170
1785,-0.480,0.170
1786,-0.475,0.170
1787,-0.460,0.195
1788,-0.470,0.185
1789,-0.460,0.180
1790,-0.470,0.175
1791,-0.470,0.170
1792,-0.480,0.185
1793,-0.485,0.190
1794,-0.475,0.180
1795,-0.475,0.180
1796,-0.490,0.170
1797,-0.510,0.165
1798,-0.510,0.180
1799,-0.510,0.195
1800,-0.495,0.190
1801,-0.500,0.175
1802,-0.510,0.175
1803,-0.505,0.175
1804,-0.495,0.185
1805,-0.505,0.205
1806,-0.490,0.200
1807,-0.490,0.190
1808,-0.495,0.185
1809,-0.495,0.175
1810,-0.485,0.180
1811,-0.470,0.195
1812,-0.465,0.190
1813,-0.485,0.200
1814,-0.480,0.195
1815,-0.485,0.195
1816,-0.470,0.190
1817,-0.440,0.200
1818,-0.430,0.200
1819,-0.440,0.190
1820,-0.435,0.180
1821,-0.425,0.185
1822,-0.405,0.200
1823,-0.400,0.210
1824,-0.385,0.200
1825,-0.365,0.190
1826,-0.355,0.180
1827,-0.350,0.185
1828,-0.330,0.190
1829,-0.315,0.195
1830,-0.290,0.200
1831,-0.275,0.190
1832,-0.270,0.190
1833,-0.265,0.185
1834,-0.250,0.180
1835,-0.245,0.195
1836,-0.215,0.185
1837,-0.200,0.180
1838,-0.190,0.170
1839,-0.195,0.165
1840,-0.175,0.155
1841,-0.160,0.175
1842,-0.155,0.165
1843,-0.150,0.165
1844,-0.160,0.140
1845,-0.165,0.140
1846,-0.160,0.140
1847,-0.155,0.150
1848,-0.155,0.155
1849,-0.170,0.150
1850,-0.185,0.150
1851,-0.200,0.130
1852,-0.210,0.135
1853,-0.195,0.135
1854,-0.200,0.140
1855,-0.210,0.130
1856,-0.235,0.125
1857,-0.240,0.135
1858,-0.245,0.140
1859,-0.235,0.140
1860,-0.220,0.130
1861,-0.230,0.115
1862,-0.255,0.115
1863,-0.270,0.130
1864,-0.275,0.125
1865,-0.265,0.140
1866,-0.260,0.140
1867,-0.265,0.145
1868,-0.265,0.130
1869,-0.275,0.120
1870,-0.285,0.135
1871,-0.275,0.135
1872,-0.265,0.120
1873,-0.260,0.125
1874,-0.275,0.120
1875,-0.290,0.110
1876,-0.280,0.120
1877,-0.295,0.145
1878,-0.280,0.120
1879,-0.285,0.125
1880,-0.290,0.110
1881,-0.310,0.115
1882,-0.295,0.110
1883,-0.285,0.120
1884,-0.285,0.120
1885,-0.295,0.115
1886,-0.310,0.095
1887,-0.325,0.095
1888,-0.310,0.100
1889,-0.295,0.110
1890,-0.285,0.110
1891,-0.295,0.095
1892,-0.305,0.085
1893,-0.305,0.080
1894,-0.310,0.105
1895,-0.295,0.100
1896,-0.290,0.090
1897,-0.290,0.095
1898,-0.300,0.075
1899,-0.305,0.065
1900,-0.295,0.085
1901,-0.300,0.090
1902,-0.300,0.090
1903,-0.295,0.095
1904,-0.285,0.075
1905,-0.295,0.070
1906,-0.290,0.085
1907,-0.280,0.090
1908,-0.275,0.080
1909,-0.290,0.085
1910,-0.305,0.070
1911,-0.305,0.075
1912,-0.295,0.080
1913,-0.285,0.085
1914,-0.275,0.075
1915,-0.290,0.080
1916,-0.295,0.065
1917,-0.310,0.055
1918,-0.300,0.080
1919,-0.295,0.080
1920,-0.275,0.075
1921,-0.275,0.070
1922,-0.290,0.060
1923,-0.300,0.070
1924,-0.305,0.070
1925,-0.290,0.075
1926,-0.290,0.080
1927,-0.285,0.075
1928,-0.280,0.065
1929,-0.285,0.055
1930,-0.290,0.075
1931,-0.285,0.085
1932,-0.280,0.080
1933,-0.285,0.075
1934,-0.275,0.070
1935,-0.285,0.070
1936,-0.275,0.090
1937,-0.265,0.105
1938,-0.265,0.120
1939,-0.265,0.150
1940,-0.265,0.150
1941,-0.255,0.160
1942,-0.220,0.155
1943,-0.185,0.165
1944,-0.175,0.170
1945,-0.180,0.175
1946,-0.200,0.160
1947,-0.215,0.145
1948,-0.190,0.145
1949,-0.160,0.130
1950,-0.125,0.115
1951,-0.115,0.105
1952,-0.110,0.100
1953,-0.115,0.105
1954,-0.115,0.110
1955,-0.100,0.115
1956,-0.075,0.090
1957,-0.075,0.085
1958,-0.085,0.065
1959,-0.100,0.070
1960,-0.095,0.090
1961,-0.085,0.095
1962,-0.100,0.100
1963,-0.120,0.095
1964,-0.125,0.075
1965,-0.145,0.060
1966,-0.165,0.065
1967,-0.195,0.060
1968,-0.245,0.060
1969,-0.300,0.050
1970,-0.325,0.035
1971,-0.350,0.045
1972,-0.350,0.050
1973,-0.340,0.065
1974,-0.340,0.065
1975,-0.350,0.050
1976,-0.360,0.045
1977,-0.370,0.040
1978,-0.355,0.045
1979,-0.340,0.060
1980,-0.335,0.045
1981,-0.345,0.050
1982,-0.335,0.035
1983,-0.350,0.035
1984,-0.350,0.055
1985,-0.340,0.060
1986,-0.340,0.040
1987,-0.335,0.040
1988,-0.335,0.040
1989,-0.350,0.050
1990,-0.340,0.055
1991,-0.325,0.060
1992,-0.310,0.055
1993,-0.295,0.030
1994,-0.325,0.025
1995,-0.325,0.030
1996,-0.310,0.035
1997,-0.320,0.035
1998,-0.315,0.030
1999,-0.315,0.020
2000,-0.330,0.015
2001,-0.335,0.010
2002,-0.320,-0.015
2003,-0.275,-0.040
2004,-0.215,-0.100
2005,-0.100,-0.170
2006,0.010,-0.260
2007,0.165,-0.345
2008,0.340,-0.415
2009,0.525,-0.435
2010,0.705,-0.440
2011,0.860,-0.420
2012,0.980,-0.385
2013,1.080,-0.335
2014,1.180,-0.290
2015,1.205,-0.275
2016,1.155,-0.255
2017,1.025,-0.220
2018,0.880,-0.180
2019,0.770,-0.150
2020,0.685,-0.135
2021,0.595,-0.080
2022,0.480,-0.050
2023,0.330,-0.015
2024,0.220,-0.010
2025,0.165,0.015
2026,0.090,0.040
2027,0.015,0.075
2028,-0.080,0.090
2029,-0.175,0.090
2030,-0.250,0.090
2031,-0.310,0.125
2032,-0.360,0.150
2033,-0.415,0.165
2034,-0.465,0.170
2035,-0.490,0.160
2036,-0.505,0.145
2037,-0.520,0.145
2038,-0.525,0.155
2039,-0.535,0.150
2040,-0.530,0.160
2041,-0.530,0.155
2042,-0.525,0.145
2043,-0.550,0.155
2044,-0.550,0.160
2045,-0.555,0.175
2046,-0.530,0.170
2047,-0.525,0.165
2048,-0.530,0.160
2049,-0.530,0.165
2050,-0.525,0.175
2051,-0.525,0.185
2052,-0.520,0.180
2053,-0.525,0.175
2054,-0.530,0.165
2055,-0.520,0.165
2056,-0.505,0.170
2057,-0.510,0.185
2058,-0.505,0.200
2059,-0.505,0.195
2060,-0.520,0.180
2061,-0.525,0.170
2062,-0.520,0.180
2063,-0.505,0.195
2064,-0.505,0.190
2065,-0.505,0.190
2066,-0.520,0.185
2067,-0.525,0.185
2068,-0.535,0.195
2069,-0.530,0.205
2070,-0.525,0.195
2071,-0.525,0.195
2072,-0.525,0.190
2073,-0.530,0.190
2074,-0.525,0.195
2075,-0.525,0.210
2076,-0.520,0.205
2077,-0.525,0.210
2078,-0.535,0.200
2079,-0.530,0.205
2080,-0.530,0.210
2081,-0.520,0.220
2082,-0.515,0.215
2083,-0.530,0.225
2084,-0.525,0.205
2085,-0.530,0.210
2086,-0.530,0.220
2087,-0.510,0.235
2088,-0.495,0.235
2089,-0.495,0.225
2090,-0.495,0.215
2091,-0.505,0.220
2092,-0.490,0.225
2093,-0.465,0.230
2094,-0.440,0.235
2095,-0.435,0.230
2096,-0.435,0.220
2097,-0.445,0.230
2098,-0.430,0.230
2099,-0.405,0.240
2100,-0.375,0.240
2101,-0.365,0.235
2102,-0.345,0.230
2103,-0.335,0.225
2104,-0.335,0.245
2105,-0.315,0.255
2106,-0.290,0.250
2107,-0.300,0.230
2108,-0.275,0.225
2109,-0.275,0.235
2110,-0.250,0.230
2111,-0.230,0.250
2112,-0.220,0.240
2113,-0.220,0.220
2114,-0.210,0.220
2115,-0.215,0.210
2116,-0.190,0.215
2117,-0.180,0.210
2118,-0.165,0.195
2119,-0.170,0.200
2120,-0.185,0.190
2121,-0.205,0.185
2122,-0.195,0.185
2123,-0.190,0.190
2124,-0.185,0.190
2125,-0.185,0.180
2126,-0.200,0.180
2127,-0.210,0.170
2128,-0.225,0.175
2129,-0.220,0.185
2130,-0.220,0.195
2131,-0.235,0.180
2132,-0.240,0.170
2133,-0.260,0.170
2134,-0.270,0.185
2135,-0.275,0.185
2136,-0.270,0.180
2137,-0.275,0.180
2138,-0.280,0.165
2139,-0.290,0.175
2140,-0.285,0.185
2141,-0.275,0.195
2142,-0.275,0.175
2143,-0.290,0.170
2144,-0.295,0.160
2145,-0.310,0.165
2146,-0.310,0.175
2147,-0.295,0.185
2148,-0.275,0.185
2149,-0.295,0.170
2150,-0.300,0.175
2151,-0.315,0.180
2152,-0.320,0.180
2153,-0.310,0.180
2154,-0.295,0.175
2155,-0.300,0.165
2156,-0.315,0.175
2157,-0.335,0.165
2158,-0.320,0.165
2159,-0.315,0.180
2160,-0.305,0.170
2161,-0.315,0.170
2162,-0.320,0.150
2163,-0.325,0.145
2164,-0.320,0.160
2165,-0.315,0.165
2166,-0.315,0.160
2167,-0.310,0.160
2168,-0.330,0.145
2169,-0.335,0.150
2170,-0.315,0.150
2171,-0.320,0.150
2172,-0.310,0.135
2173,-0.310,0.150
2174,-0.325,0.135
2175,-0.335,0.120
2176,-0.325,0.145
2177,-0.310,0.155
2178,-0.305,0.140
2179,-0.300,0.140
2180,-0.315,0.120
2181,-0.320,0.115
2182,-0.310,0.130
2183,-0.305,0.145
2184,-0.290,0.140
2185,-0.300,0.140
2186,-0.315,0.140
2187,-0.310,0.120
2188,-0.315,0.120
2189,-0.305,0.145
2190,-0.305,0.135
2191,-0.310,0.130
2192,-0.315,0.125
2193,-0.315,0.115
2194,-0.310,0.120
2195,-0.300,0.140
2196,-0.290,0.135
2197,-0.310,0.135
2198,-0.315,0.120
2199,-0.330,0.125
2200,-0.315,0.140
2201,-0.295,0.150
2202,-0.295,0.150
2203,-0.300,0.150
2204,-0.300,0.135
2205,-0.315,0.135
2206,-0.300,0.135
2207,-0.290,0.150
2208,-0.285,0.150
2209,-0.285,0.150
2210,-0.295,0.140
2211,-0.305,0.140
2212,-0.310,0.155
2213,-0.295,0.180
2214,-0.280,0.195
2215,-0.270,0.205
2216,-0.255,0.210
2217,-0.250,0.220
2218,-0.220,0.230
2219,-0.205,0.235
2220,-0.190,0.235
2221,-0.195,0.225
2222,-0.210,0.220
2223,-0.220,0.195
2224,-0.195,0.180
2225,-0.175,0.185
2226,-0.160,0.160
2227,-0.155,0.165
2228,-0.150,0.160
2229,-0.145,0.170
2230,-0.130,0.165
2231,-0.110,0.170
2232,-0.095,0.155
2233,-0.110,0.145
2234,-0.105,0.135
2235,-0.125,0.135
2236,-0.135,0.155
2237,-0.130,0.160
2238,-0.125,0.155
2239,-0.140,0.130
2240,-0.155,0.110
2241,-0.200,0.105
2242,-0.240,0.120
2243,-0.275,0.145
2244,-0.300,0.125
2245,-0.320,0.120
2246,-0.345,0.110
2247,-0.380,0.105
2248,-0.385,0.120
2249,-0.370,0.120
2250,-0.355,0.110
2251,-0.365,0.085
2252,-0.375,0.090
2253,-0.380,0.100
2254,-0.365,0.125
2255,-0.355,0.135
2256,-0.355,0.125
2257,-0.360,0.115
2258,-0.360,0.105
2259,-0.370,0.110
2260,-0.355,0.115
2261,-0.345,0.120
2262,-0.345,0.110
2263,-0.335,0.095
2264,-0.340,0.105
2265,-0.340,0.105
2266,-0.340,0.105
2267,-0.325,0.105
2268,-0.315,0.095
2269,-0.320,0.085
2270,-0.335,0.070
2271,-0.345,0.055
2272,-0.325,0.080
2273,-0.345,0.075
2274,-0.325,0.060
2275,-0.315,0.025
2276,-0.285,-0.020
2277,-0.185,-0.090
2278,-0.025,-0.170
2279,0.165,-0.255
2280,0.375,-0.360
2281,0.595,-0.405
2282,0.760,-0.415
2283,0.945,-0.375
2284,1.090,-0.310
2285,1.200,-0.255
2286,1.280,-0.220
2287,1.255,-0.220
2288,1.145,-0.210
2289,0.995,-0.165
2290,0.850,-0.110
2291,0.730,-0.075
2292,0.625,-0.035
2293,0.470,0.015
2294,0.305,0.050
2295,0.175,0.065
2296,0.100,0.095
2297,0.035,0.120
2298,-0.060,0.120
2299,-0.145,0.125
2300,-0.235,0.135
2301,-0.290,0.150
2302,-0.335,0.170
2303,-0.385,0.190
2304,-0.435,0.200
2305,-0.460,0.190
2306,-0.490,0.190
2307,-0.495,0.185
2308,-0.510,0.195
2309,-0.525,0.205
2310,-0.535,0.205
2311,-0.540,0.205
2312,-0.535,0.185
2313,-0.555,0.195
2314,-0.560,0.200
2315,-0.530,0.210
2316,-0.520,0.210
2317,-0.520,0.195
2318,-0.525,0.195
2319,-0.540,0.195
2320,-0.530,0.210
2321,-0.525,0.210
2322,-0.520,0.210
2323,-0.520,0.205
2324,-0.515,0.195
2325,-0.525,0.190
2326,-0.515,0.200
2327,-0.500,0.220
2328,-0.500,0.225
2329,-0.505,0.220
2330,-0.510,0.205
2331,-0.530,0.210
2332,-0.530,0.210
2333,-0.510,0.220
2334,-0.510,0.230
2335,-0.505,0.215
2336,-0.505,0.215
2337,-0.510,0.220
2338,-0.530,0.225
2339,-0.510,0.230
2340,-0.500,0.230
2341,-0.505,0.220
2342,-0.515,0.220
2343,-0.525,0.200
2344,-0.520,0.235
2345,-0.500,0.240
2346,-0.495,0.235
2347,-0.495,0.235
2348,-0.515,0.230
2349,-0.520,0.220
2350,-0.525,0.240
2351,-0.510,0.265
2352,-0.510,0.255
2353,-0.510,0.245
2354,-0.500,0.220
2355,-0.500,0.230
2356,-0.490,0.245
2357,-0.480,0.250
2358,-0.485,0.245
2359,-0.470,0.230
2360,-0.460,0.245
2361,-0.465,0.235
2362,-0.450,0.250
2363,-0.435,0.260
2364,-0.420,0.260
2365,-0.415,0.245
2366,-0.410,0.230
2367,-0.410,0.230
2368,-0.400,0.250
2369,-0.360,0.260
2370,-0.340,0.250
2371,-0.330,0.245
2372,-0.310,0.240
2373,-0.310,0.235
2374,-0.300,0.255
2375,-0.275,0.255
2376,-0.255,0.250
2377,-0.235,0.260
2378,-0.230,0.245
2379,-0.235,0.240
2380,-0.210,0.240
2381,-0.190,0.240
2382,-0.175,0.220
2383,-0.160,0.215
2384,-0.160,0.210
2385,-0.160,0.210
2386,-0.165,0.215
2387,-0.170,0.230
2388,-0.180,0.225
2389,-0.175,0.210
2390,-0.185,0.195
2391,-0.205,0.180
2392,-0.205,0.180
2393,-0.200,0.190
2394,-0.210,0.185
2395,-0.220,0.190
2396,-0.225,0.165
2397,-0.250,0.175
2398,-0.250,0.190
2399,-0.250,0.190
2400,-0.260,0.190
2401,-0.260,0.180
2402,-0.270,0.180
2403,-0.295,0.175
2404,-0.285,0.185
2405,-0.260,0.195
2406,-0.260,0.190
2407,-0.270,0.180
2408,-0.275,0.180
2409,-0.305,0.165
2410,-0.300,0.180
2411,-0.295,0.190
2412,-0.295,0.205
2413,-0.290,0.185
2414,-0.285,0.180
2415,-0.300,0.180
2416,-0.305,0.180
2417,-0.300,0.185
2418,-0.295,0.190
2419,-0.300,0.175
2420,-0.310,0.185
2421,-0.315,0.175
2422,-0.315,0.180
2423,-0.305,0.185
2424,-0.300,0.185
2425,-0.305,0.185
2426,-0.300,0.170
2427,-0.320,0.175
2428,-0.320,0.180
2429,-0.315,0.180
2430,-0.320,0.190
2431,-0.325,0.175
2432,-0.320,0.155
2433,-0.330,0.150
2434,-0.330,0.160
2435,-0.320,0.175
2436,-0.305,0.170
2437,-0.310,0.165
2438,-0.315,0.160
2439,-0.320,0.145
2440,-0.315,0.155
2441,-0.305,0.165
2442,-0.300,0.160
2443,-0.305,0.150
2444,-0.305,0.135
2445,-0.330,0.130
2446,-0.320,0.145
2447,-0.305,0.165
2448,-0.300,0.155
2449,-0.305,0.150
2450,-0.295,0.145
2451,-0.300,0.130
2452,-0.325,0.145
2453,-0.305,0.145
2454,-0.290,0.145
2455,-0.295,0.145
2456,-0.300,0.135
2457,-0.315,0.135
2458,-0.320,0.145
2459,-0.310,0.150
2460,-0.305,0.150
2461,-0.300,0.145
2462,-0.310,0.125
2463,-0.320,0.130
2464,-0.310,0.135
2465,-0.305,0.155
2466,-0.295,0.155
2467,-0.295,0.130
2468,-0.310,0.130
2469,-0.315,0.130
2470,-0.320,0.135
2471,-0.310,0.150
2472,-0.310,0.150
2473,-0.305,0.160
2474,-0.310,0.160
2475,-0.305,0.155
2476,-0.305,0.185
2477,-0.290,0.215
2478,-0.260,0.220
2479,-0.250,0.215
2480,-0.240,0.210
2481,-0.250,0.210
2482,-0.235,0.195
2483,-0.220,0.205
2484,-0.210,0.200
2485,-0.225,0.200
2486,-0.220,0.185
2487,-0.225,0.170
2488,-0.180,0.175
2489,-0.160,0.170
2490,-0.145,0.175
2491,-0.125,0.175
2492,-0.135,0.155
2493,-0.125,0.150
2494,-0.110,0.150
2495,-0.105,0.130
2496,-0.110,0.135
2497,-0.115,0.135
2498,-0.135,0.140
2499,-0.155,0.135
2500,-0.155,0.135
2501,-0.170,0.145
2502,-0.175,0.135
2503,-0.195,0.120
2504,-0.235,0.110
2505,-0.280,0.090
2506,-0.325,0.110
2507,-0.330,0.115
2508,-0.345,0.110
2509,-0.360,0.115
2510,-0.375,0.085
2511,-0.380,0.080
2512,-0.375,0.085
2513,-0.380,0.115
2514,-0.380,0.110
2515,-0.380,0.100
2516,-0.390,0.090
2517,-0.375,0.090
2518,-0.355,0.105
2519,-0.355,0.120
2520,-0.350,0.100
2521,-0.345,0.100
2522,-0.345,0.100
2523,-0.350,0.105
2524,-0.345,0.120
2525,-0.340,0.120
2526,-0.330,0.100
2527,-0.325,0.100
2528,-0.335,0.100
2529,-0.340,0.090
2530,-0.340,0.105
2531,-0.320,0.110
2532,-0.310,0.090
2533,-0.325,0.060
2534,-0.320,0.055
2535,-0.335,0.055
2536,-0.340,0.085
2537,-0.320,0.085
2538,-0.315,0.080
2539,-0.275,0.055
2540,-0.195,0.015
2541,-0.050,-0.035
2542,0.115,-0.085
2543,0.315,-0.150
2544,0.480,-0.225
2545,0.670,-0.300
2546,0.830,-0.345
2547,0.955,-0.335
2548,1.080,-0.255
2549,1.165,-0.190
2550,1.220,-0.175
2551,1.200,-0.185
2552,1.090,-0.180
2553,0.930,-0.130
2554,0.810,-0.095
2555,0.720,-0.070
2556,0.615,-0.040
2557,0.440,-0.005
2558,0.260,0.020
2559,0.125,0.050
2560,0.035,0.065
2561,-0.030,0.085
2562,-0.095,0.100
2563,-0.195,0.100
2564,-0.280,0.110
2565,-0.330,0.120
2566,-0.365,0.145
2567,-0.385,0.175
2568,-0.420,0.175
2569,-0.465,0.175
2570,-0.495,0.155
2571,-0.515,0.160
2572,-0.525,0.175
2573,-0.530,0.175
2574,-0.525,0.165
2575,-0.530,0.160
2576,-0.525,0.160
2577,-0.540,0.155
2578,-0.535,0.170
2579,-0.525,0.180
2580,-0.520,0.175
2581,-0.520,0.170
2582,-0.535,0.160
2583,-0.515,0.160
2584,-0.515,0.170
2585,-0.500,0.175
2586,-0.520,0.180
2587,-0.520,0.165
2588,-0.510,0.155
2589,-0.525,0.155
2590,-0.520,0.175
2591,-0.495,0.190
2592,-0.490,0.175
2593,-0.520,0.160
2594,-0.510,0.160
2595,-0.515,0.155
2596,-0.510,0.165
2597,-0.505,0.180
2598,-0.505,0.165
2599,-0.510,0.170
2600,-0.500,0.145
2601,-0.515,0.155
2602,-0.520,0.165
2603,-0.515,0.165
2604,-0.515,0.160
2605,-0.525,0.155
2606,-0.510,0.155
2607,-0.520,0.165
2608,-0.505,0.155
2609,-0.500,0.180
2610,-0.500,0.180
2611,-0.510,0.175
2612,-0.510,0.165
2613,-0.510,0.175
2614,-0.510,0.175
2615,-0.500,0.190
2616,-0.500,0.180
2617,-0.500,0.165
2618,-0.500,0.165
2619,-0.495,0.170
2620,-0.485,0.185
2621,-0.455,0.200
2622,-0.460,0.195
2623,-0.440,0.185
2624,-0.460,0.180
2625,-0.455,0.170
2626,-0.435,0.190
2627,-0.405,0.190
2628,-0.400,0.185
2629,-0.395,0.185
2630,-0.400,0.180
2631,-0.400,0.180
2632,-0.370,0.185
2633,-0.345,0.195
2634,-0.325,0.180
2635,-0.315,0.175
2636,-0.305,0.165
2637,-0.290,0.165
2638,-0.270,0.180
2639,-0.245,0.185
2640,-0.225,0.165
2641,-0.225,0.165
2642,-0.205,0.145
2643,-0.220,0.125
2644,-0.195,0.145
2645,-0.185,0.170
2646,-0.175,0.160
2647,-0.180,0.155
2648,-0.190,0.130
2649,-0.195,0.130
2650,-0.185,0.130
2651,-0.190,0.145
2652,-0.200,0.145
2653,-0.195,0.140
2654,-0.220,0.125
2655,-0.240,0.120
2656,-0.240,0.140
2657,-0.240,0.140
2658,-0.230,0.135
2659,-0.235,0.135
2660,-0.240,0.135
2661,-0.265,0.130
2662,-0.265,0.135
2663,-0.255,0.150
2664,-0.255,0.140
2665,-0.260,0.130
2666,-0.265,0.125
2667,-0.270,0.125
2668,-0.280,0.130
2669,-0.265,0.140
2670,-0.250,0.140
2671,-0.270,0.140
2672,-0.280,0.115
2673,-0.290,0.120
2674,-0.280,0.125
2675,-0.275,0.145
2676,-0.280,0.140
2677,-0.275,0.120
2678,-0.280,0.125
2679,-0.290,0.120
2680,-0.295,0.125
2681,-0.290,0.135
2682,-0.300,0.120
2683,-0.280,0.120
2684,-0.300,0.105
2685,-0.295,0.115
2686,-0.295,0.120
2687,-0.280,0.140
2688,-0.280,0.115
2689,-0.280,0.110
2690,-0.290,0.090
2691,-0.300,0.090
2692,-0.275,0.115
2693,-0.270,0.110
2694,-0.275,0.105
2695,-0.285,0.105
2696,-0.285,0.090
2697,-0.290,0.080
2698,-0.275,0.100
2699,-0.280,0.090
2700,-0.265,0.100
2701,-0.270,0.085
2702,-0.290,0.075
2703,-0.300,0.095
2704,-0.275,0.090
2705,-0.285,0.095
2706,-0.270,0.085
2707,-0.275,0.095
2708,-0.280,0.080
2709,-0.285,0.075
2710,-0.280,0.090
2711,-0.265,0.110
2712,-0.270,0.100
2713,-0.260,0.085
2714,-0.275,0.075
2715,-0.280,0.075
2716,-0.275,0.095
2717,-0.255,0.095
2718,-0.245,0.080
2719,-0.245,0.080
2720,-0.265,0.080
2721,-0.285,0.075
2722,-0.275,0.090
2723,-0.275,0.090
2724,-0.255,0.085
2725,-0.255,0.090
2726,-0.255,0.075
2727,-0.270,0.080
2728,-0.265,0.090
2729,-0.255,0.085
2730,-0.235,0.090
2731,-0.230,0.105
2732,-0.235,0.105
2733,-0.250,0.120
2734,-0.235,0.145
2735,-0.205,0.165
2736,-0.175,0.165
2737,-0.155,0.160
2738,-0.160,0.150
2739,-0.160,0.145
2740,-0.160,0.155
2741,-0.155,0.155
2742,-0.150,0.140
2743,-0.140,0.120
2744,-0.115,0.100
2745,-0.105,0.090
2746,-0.080,0.105
2747,-0.070,0.110
2748,-0.055,0.105
2749,-0.045,0.085
2750,-0.045,0.070
2751,-0.055,0.065
2752,-0.050,0.075
2753,-0.065,0.090
2754,-0.070,0.095
2755,-0.070,0.090
2756,-0.080,0.075
2757,-0.100,0.060
2758,-0.120,0.055
2759,-0.160,0.060
2760,-0.195,0.060
2761,-0.250,0.045
2762,-0.290,0.040
2763,-0.315,0.035
2764,-0.315,0.045
2765,-0.320,0.055
2766,-0.295,0.045
2767,-0.310,0.040
2768,-0.320,0.025
2769,-0.315,0.025
2770,-0.315,0.030
2771,-0.295,0.055
2772,-0.275,0.055
2773,-0.280,0.040
2774,-0.290,0.035
2775,-0.315,0.035
2776,-0.295,0.050
2777,-0.290,0.050
2778,-0.290,0.050
2779,-0.275,0.050
2780,-0.290,0.035
2781,-0.300,0.035
2782,-0.290,0.045
2783,-0.275,0.045
2784,-0.265,0.020
2785,-0.255,0.000
2786,-0.265,-0.010
2787,-0.290,0.000
2788,-0.295,0.005
2789,-0.285,0.010
2790,-0.255,-0.005
2791,-0.220,-0.045
2792,-0.155,-0.095
2793,-0.075,-0.140
2794,0.060,-0.205
2795,0.210,-0.270
2796,0.380,-0.360
2797,0.555,-0.430
2798,0.745,-0.455
2799,0.915,-0.430
2800,1.065,-0.370
2801,1.165,-0.315
2802,1.250,-0.295
2803,1.220,-0.285
2804,1.095,-0.255
2805,0.930,-0.190
2806,0.795,-0.150
2807,0.680,-0.115
2808,0.570,-0.065
2809,0.410,-0.045
2810,0.275,-0.045
2811,0.195,-0.025
2812,0.130,-0.005
2813,0.035,0.030
2814,-0.055,0.050
2815,-0.130,0.060
2816,-0.195,0.070
2817,-0.255,0.075
2818,-0.310,0.110
2819,-0.345,0.135
2820,-0.370,0.130
2821,-0.405,0.120
2822,-0.425,0.105
2823,-0.440,0.110
2824,-0.450,0.110
2825,-0.450,0.115
2826,-0.450,0.105
2827,-0.465,0.100
2828,-0.460,0.100
2829,-0.480,0.110
2830,-0.460,0.120
2831,-0.445,0.125
2832,-0.430,0.120
2833,-0.435,0.115
2834,-0.450,0.105
2835,-0.465,0.085
2836,-0.460,0.115
2837,-0.450,0.140
2838,-0.445,0.125
2839,-0.430,0.125
2840,-0.440,0.105
2841,-0.440,0.105
2842,-0.455,0.120
2843,-0.430,0.130
2844,-0.440,0.130
2845,-0.435,0.125
2846,-0.435,0.120
2847,-0.445,0.115
2848,-0.445,0.135
2849,-0.435,0.130
2850,-0.435,0.135
2851,-0.435,0.115
2852,-0.445,0.110
2853,-0.440,0.125
2854,-0.435,0.140
2855,-0.430,0.145
2856,-0.430,0.150
2857,-0.440,0.135
2858,-0.440,0.125
2859,-0.435,0.125
2860,-0.435,0.135
2861,-0.430,0.165
2862,-0.420,0.155
2863,-0.430,0.150
2864,-0.440,0.135
2865,-0.440,0.145
2866,-0.445,0.155
2867,-0.435,0.165
2868,-0.410,0.145
2869,-0.415,0.155
2870,-0.415,0.145
2871,-0.430,0.155
2872,-0.415,0.160
2873,-0.405,0.170
2874,-0.390,0.185
2875,-0.380,0.175
2876,-0.385,0.155
2877,-0.395,0.165
2878,-0.385,0.185
2879,-0.360,0.180
2880,-0.330,0.185
2881,-0.320,0.175
2882,-0.310,0.175
2883,-0.310,0.155
2884,-0.310,0.160
2885,-0.280,0.180
2886,-0.245,0.175
2887,-0.225,0.175
2888,-0.210,0.160
2889,-0.205,0.155
2890,-0.195,0.155
2891,-0.165,0.155
2892,-0.150,0.165
2893,-0.140,0.155
2894,-0.135,0.150
2895,-0.115,0.145
2896,-0.110,0.145
2897,-0.095,0.155
2898,-0.095,0.150
2899,-0.105,0.135
2900,-0.110,0.120
2901,-0.115,0.120
2902,-0.105,0.130
2903,-0.110,0.135
2904,-0.110,0.115
2905,-0.125,0.110
2906,-0.140,0.110
2907,-0.150,0.105
2908,-0.155,0.115
2909,-0.150,0.115
2910,-0.155,0.115
2911,-0.170,0.100
2912,-0.175,0.095
2913,-0.190,0.100
2914,-0.180,0.105
2915,-0.170,0.110
2916,-0.175,0.105
2917,-0.175,0.095
2918,-0.190,0.095
2919,-0.210,0.100
2920,-0.200,0.110
2921,-0.200,0.125
2922,-0.195,0.115
2923,-0.200,0.100
2924,-0.215,0.090
2925,-0.220,0.100
2926,-0.225,0.100
2927,-0.215,0.120
2928,-0.195,0.115
2929,-0.220,0.105
2930,-0.205,0.095
2931,-0.230,0.085
2932,-0.230,0.100
2933,-0.220,0.100
2934,-0.215,0.105
2935,-0.215,0.100
2936,-0.230,0.080
2937,-0.250,0.075
2938,-0.240,0.080
2939,-0.230,0.095
2940,-0.220,0.085
2941,-0.215,0.075
2942,-0.230,0.075
2943,-0.230,0.070
2944,-0.220,0.080
2945,-0.225,0.085
2946,-0.230,0.085
2947,-0.230,0.065
2948,-0.220,0.065
2949,-0.230,0.060
2950,-0.230,0.070
2951,-0.225,0.085
2952,-0.215,0.075
2953,-0.220,0.070
2954,-0.220,0.055
2955,-0.225,0.045
2956,-0.225,0.075
2957,-0.210,0.070
2958,-0.215,0.075
2959,-0.210,0.070
2960,-0.215,0.065
2961,-0.215,0.045
2962,-0.215,0.050
2963,-0.210,0.070
2964,-0.200,0.070
2965,-0.215,0.065
2966,-0.225,0.055
2967,-0.230,0.055
2968,-0.215,0.065
2969,-0.200,0.065
2970,-0.205,0.070
2971,-0.205,0.060
2972,-0.200,0.050
2973,-0.215,0.065
2974,-0.195,0.075
2975,-0.190,0.075
2976,-0.175,0.070
2977,-0.190,0.065
2978,-0.210,0.055
2979,-0.220,0.050
2980,-0.215,0.075
2981,-0.195,0.100
2982,-0.190,0.110
2983,-0.185,0.115
2984,-0.175,0.145
2985,-0.150,0.155
2986,-0.115,0.145
2987,-0.095,0.150
2988,-0.090,0.160
2989,-0.110,0.150
2990,-0.120,0.150
2991,-0.130,0.130
2992,-0.110,0.130
2993,-0.070,0.125
2994,-0.050,0.110
2995,-0.040,0.090
2996,-0.035,0.090
2997,-0.050,0.080
2998,-0.040,0.085
2999,-0.005,0.080
3000,0.010,0.070
3001,0.000,0.070
3002,-0.020,0.065
3003,-0.045,0.065
3004,-0.045,0.075
3005,-0.040,0.070
3006,-0.055,0.065
3007,-0.090,0.045
3008,-0.160,0.035
3009,-0.220,0.040
3010,-0.270,0.050
3011,-0.260,0.060
3012,-0.265,0.045
3013,-0.265,0.040
3014,-0.275,0.035
3015,-0.290,0.035
3016,-0.280,0.045
3017,-0.285,0.045
3018,-0.270,0.045
3019,-0.255,0.030
3020,-0.265,0.035
3021,-0.265,0.030
3022,-0.260,0.040
3023,-0.260,0.045
3024,-0.260,0.040
3025,-0.260,0.035
3026,-0.265,0.030
3027,-0.265,0.030
3028,-0.245,0.035
3029,-0.235,0.040
3030,-0.230,0.040
3031,-0.220,0.030
3032,-0.225,0.030
3033,-0.245,0.015
3034,-0.225,0.000
3035,-0.215,0.015
3036,-0.205,0.005
3037,-0.205,0.005
3038,-0.230,-0.010
3039,-0.245,-0.030
3040,-0.225,-0.050
3041,-0.190,-0.075
3042,-0.105,-0.150
3043,0.025,-0.215
3044,0.200,-0.320
3045,0.390,-0.410
3046,0.615,-0.460
3047,0.830,-0.475
3048,1.005,-0.455
3049,1.130,-0.410
3050,1.210,-0.370
3051,1.270,-0.345
3052,1.320,-0.310
3053,1.275,-0.275
3054,1.145,-0.230
3055,0.970,-0.200
3056,0.840,-0.160
3057,0.715,-0.120
3058,0.550,-0.080
3059,0.410,-0.025
3060,0.310,-0.005
3061,0.235,0.010
3062,0.155,0.010
3063,0.040,0.040
3064,-0.060,0.060
3065,-0.140,0.080
3066,-0.185,0.085
3067,-0.240,0.100
3068,-0.290,0.120
3069,-0.350,0.130
3070,-0.370,0.140
3071,-0.370,0.135
3072,-0.385,0.115
3073,-0.405,0.120
3074,-0.430,0.115
3075,-0.435,0.105
3076,-0.430,0.130
3077,-0.430,0.140
3078,-0.430,0.125
3079,-0.420,0.125
3080,-0.435,0.125
3081,-0.435,0.125
3082,-0.430,0.145
3083,-0.420,0.155
3084,-0.395,0.160
3085,-0.405,0.145
3086,-0.405,0.155
3087,-0.420,0.145
3088,-0.415,0.150
3089,-0.390,0.155
3090,-0.380,0.145
3091,-0.395,0.145
3092,-0.410,0.140
3093,-0.420,0.140
3094,-0.415,0.145
3095,-0.405,0.155
3096,-0.385,0.160
3097,-0.390,0.145
3098,-0.415,0.140
3099,-0.420,0.135
3100,-0.415,0.150
3101,-0.395,0.160
3102,-0.390,0.160
3103,-0.390,0.155
3104,-0.400,0.150
3105,-0.440,0.150
3106,-0.445,0.165
3107,-0.420,0.180
3108,-0.405,0.155
3109,-0.415,0.140
3110,-0.410,0.155
3111,-0.425,0.160
3112,-0.425,0.175
3113,-0.420,0.175
3114,-0.405,0.175
3115,-0.420,0.185
3116,-0.430,0.165
3117,-0.430,0.170
3118,-0.430,0.170
3119,-0.420,0.185
3120,-0.405,0.190
3121,-0.400,0.190
3122,-0.410,0.170
3123,-0.405,0.165
3124,-0.390,0.165
3125,-0.380,0.200
3126,-0.365,0.190
3127,-0.345,0.195
3128,-0.335,0.195
3129,-0.330,0.180
3130,-0.315,0.180
3131,-0.305,0.190
3132,-0.280,0.200
3133,-0.275,0.190
3134,-0.270,0.185
3135,-0.270,0.190
3136,-0.250,0.195
3137,-0.225,0.200
3138,-0.205,0.195
3139,-0.195,0.180
3140,-0.180,0.175
3141,-0.185,0.170
3142,-0.160,0.170
3143,-0.135,0.185
3144,-0.110,0.175
3145,-0.100,0.170
3146,-0.100,0.155
3147,-0.105,0.135
3148,-0.110,0.145
3149,-0.100,0.145
3150,-0.080,0.145
3151,-0.095,0.140
3152,-0.095,0.140
3153,-0.125,0.140
3154,-0.115,0.135
3155,-0.110,0.150
3156,-0.115,0.135
3157,-0.115,0.120
3158,-0.125,0.115
3159,-0.155,0.115
3160,-0.150,0.135
3161,-0.135,0.150
3162,-0.145,0.135
3163,-0.145,0.135
3164,-0.150,0.120
3165,-0.165,0.120
3166,-0.175,0.140
3167,-0.170,0.150
3168,-0.180,0.145
3169,-0.185,0.135
3170,-0.200,0.125
3171,-0.200,0.125
3172,-0.195,0.135
3173,-0.190,0.135
3174,-0.200,0.130
3175,-0.190,0.130
3176,-0.200,0.135
3177,-0.205,0.135
3178,-0.205,0.140
3179,-0.205,0.145
3180,-0.195,0.125
3181,-0.200,0.135
3182,-0.215,0.115
3183,-0.225,0.120
3184,-0.225,0.130
3185,-0.220,0.125
3186,-0.225,0.130
3187,-0.235,0.120
3188,-0.235,0.110
3189,-0.230,0.115
3190,-0.215,0.115
3191,-0.215,0.120
3192,-0.210,0.125
3193,-0.210,0.120
3194,-0.215,0.110
3195,-0.225,0.110
3196,-0.210,0.115
3197,-0.205,0.110
3198,-0.200,0.090
3199,-0.215,0.095
3200,-0.225,0.090
3201,-0.235,0.090
3202,-0.230,0.095
3203,-0.215,0.110
3204,-0.195,0.090
3205,-0.195,0.095
3206,-0.205,0.095
3207,-0.230,0.090
3208,-0.225,0.110
3209,-0.215,0.120
3210,-0.205,0.100
3211,-0.210,0.105
3212,-0.225,0.080
3213,-0.230,0.080
3214,-0.215,0.095
3215,-0.220,0.110
3216,-0.225,0.100
3217,-0.230,0.095
3218,-0.225,0.090
3219,-0.220,0.080
3220,-0.220,0.090
3221,-0.205,0.095
3222,-0.205,0.110
3223,-0.210,0.100
3224,-0.215,0.090
3225,-0.225,0.100
3226,-0.220,0.110
3227,-0.220,0.120
3228,-0.220,0.110
3229,-0.215,0.100
3230,-0.220,0.095
3231,-0.230,0.095
3232,-0.215,0.115
3233,-0.200,0.130
3234,-0.205,0.130
3235,-0.205,0.130
3236,-0.215,0.155
3237,-0.205,0.170
3238,-0.180,0.190
3239,-0.145,0.195
3240,-0.120,0.190
3241,-0.120,0.185
3242,-0.135,0.165
3243,-0.145,0.145
3244,-0.125,0.150
3245,-0.095,0.150
3246,-0.065,0.130
3247,-0.045,0.135
3248,-0.050,0.125
3249,-0.050,0.125
3250,-0.035,0.115
3251,-0.020,0.115
3252,0.000,0.095
3253,-0.010,0.080
3254,-0.035,0.090
3255,-0.050,0.100
3256,-0.065,0.105
3257,-0.050,0.115
3258,-0.060,0.090
3259,-0.090,0.075
3260,-0.130,0.070
3261,-0.190,0.060
3262,-0.235,0.095
3263,-0.260,0.090
3264,-0.280,0.085
3265,-0.285,0.070
3266,-0.300,0.055
3267,-0.300,0.055
3268,-0.295,0.075
3269,-0.295,0.070
3270,-0.270,0.080
3271,-0.265,0.075
3272,-0.270,0.070
3273,-0.290,0.065
3274,-0.290,0.070
3275,-0.285,0.075
3276,-0.275,0.065
3277,-0.270,0.070
3278,-0.270,0.060
3279,-0.285,0.065
3280,-0.275,0.070
3281,-0.255,0.065
3282,-0.250,0.060
3283,-0.245,0.050
3284,-0.255,0.050
3285,-0.270,0.040
3286,-0.260,0.045
3287,-0.255,0.055
3288,-0.255,0.040
3289,-0.250,0.035
3290,-0.270,0.030
3291,-0.280,0.015
3292,-0.240,0.005
3293,-0.170,-0.035
3294,-0.030,-0.115
3295,0.130,-0.200
3296,0.305,-0.315
3297,0.500,-0.395
3298,0.725,-0.415
3299,0.940,-0.380
3300,1.100,-0.305
3301,1.215,-0.260
3302,1.260,-0.245
3303,1.200,-0.230
3304,1.065,-0.165
3305,0.930,-0.135
3306,0.800,-0.110
3307,0.660,-0.090
3308,0.495,-0.050
3309,0.340,-0.005
3310,0.235,0.030
3311,0.195,0.065
3312,0.170,0.070
3313,0.085,0.080
3314,-0.025,0.090
3315,-0.130,0.115
3316,-0.195,0.130
3317,-0.250,0.160
3318,-0.305,0.175
3319,-0.355,0.165
3320,-0.395,0.160
3321,-0.420,0.160
3322,-0.420,0.165
3323,-0.425,0.160
3324,-0.440,0.180
3325,-0.440,0.175
3326,-0.460,0.165
3327,-0.455,0.160
3328,-0.460,0.160
3329,-0.450,0.175
3330,-0.435,0.165
3331,-0.440,0.165
3332,-0.450,0.160
3333,-0.450,0.165
3334,-0.440,0.175
3335,-0.425,0.185
3336,-0.410,0.180
3337,-0.420,0.170
3338,-0.435,0.165
3339,-0.440,0.165
3340,-0.430,0.175
3341,-0.425,0.195
3342,-0.415,0.190
3343,-0.425,0.180
3344,-0.425,0.185
3345,-0.425,0.175
3346,-0.420,0.190
3347,-0.410,0.190
3348,-0.405,0.190
3349,-0.415,0.175
3350,-0.420,0.175
3351,-0.425,0.170
3352,-0.435,0.185
3353,-0.430,0.195
3354,-0.425,0.185
3355,-0.410,0.175
3356,-0.425,0.170
3357,-0.425,0.185
3358,-0.425,0.200
3359,-0.425,0.210
3360,-0.430,0.195
3361,-0.440,0.185
3362,-0.440,0.170
3363,-0.430,0.175
3364,-0.425,0.195
3365,-0.420,0.215
3366,-0.405,0.210
3367,-0.410,0.200
3368,-0.425,0.195
3369,-0.410,0.200
3370,-0.415,0.205
3371,-0.405,0.210
3372,-0.410,0.215
3373,-0.395,0.205
3374,-0.400,0.200
3375,-0.405,0.210
3376,-0.385,0.225
3377,-0.365,0.220
3378,-0.345,0.215
3379,-0.330,0.210
3380,-0.325,0.195
3381,-0.320,0.200
3382,-0.310,0.220
3383,-0.290,0.220
3384,-0.280,0.225
3385,-0.265,0.210
3386,-0.260,0.215
3387,-0.270,0.200
3388,-0.245,0.215
3389,-0.220,0.220
3390,-0.190,0.215
3391,-0.170,0.215
3392,-0.160,0.195
3393,-0.170,0.190
3394,-0.155,0.210
3395,-0.140,0.210
3396,-0.125,0.200
3397,-0.130,0.195
3398,-0.125,0.195
3399,-0.125,0.180
3400,-0.110,0.190
3401,-0.105,0.195
3402,-0.110,0.190
3403,-0.110,0.180
3404,-0.120,0.175
3405,-0.125,0.165
3406,-0.140,0.185
3407,-0.135,0.180
3408,-0.130,0.175
3409,-0.150,0.160
3410,-0.155,0.160
3411,-0.180,0.155
3412,-0.185,0.170
3413,-0.180,0.180
3414,-0.165,0.160
3415,-0.175,0.160
3416,-0.200,0.155
3417,-0.200,0.165
3418,-0.200,0.175
3419,-0.210,0.180
3420,-0.190,0.170
3421,-0.210,0.170
3422,-0.210,0.150
3423,-0.210,0.145
3424,-0.220,0.165
3425,-0.210,0.180
3426,-0.210,0.170
3427,-0.225,0.170
3428,-0.220,0.165
3429,-0.235,0.150
3430,-0.225,0.155
3431,-0.215,0.170
3432,-0.220,0.140
3433,-0.235,0.135
3434,-0.245,0.145
3435,-0.260,0.145
3436,-0.250,0.140
3437,-0.245,0.170
3438,-0.255,0.140
3439,-0.255,0.135
3440,-0.255,0.130
3441,-0.255,0.135
3442,-0.250,0.145
3443,-0.250,0.150
3444,-0.240,0.140
3445,-0.245,0.120
3446,-0.245,0.115
3447,-0.245,0.130
3448,-0.250,0.130
3449,-0.245,0.130
3450,-0.235,0.120
3451,-0.235,0.120
3452,-0.245,0.115
3453,-0.245,0.115
3454,-0.245,0.130
3455,-0.245,0.145
3456,-0.240,0.125
3457,-0.265,0.115
3458,-0.250,0.105
3459,-0.265,0.115
3460,-0.245,0.120
3461,-0.230,0.130
3462,-0.230,0.120
3463,-0.240,0.115
3464,-0.250,0.120
3465,-0.265,0.100
3466,-0.255,0.115
3467,-0.245,0.120
3468,-0.230,0.120
3469,-0.235,0.125
3470,-0.235,0.105
3471,-0.250,0.095
3472,-0.245,0.110
3473,-0.235,0.125
3474,-0.240,0.110
3475,-0.240,0.110
3476,-0.255,0.095
3477,-0.270,0.090
3478,-0.250,0.110
3479,-0.245,0.120
3480,-0.250,0.110
3481,-0.240,0.105
3482,-0.260,0.105
3483,-0.260,0.110
3484,-0.265,0.115
3485,-0.245,0.125
3486,-0.240,0.110
3487,-0.245,0.120
3488,-0.240,0.115
3489,-0.240,0.110
3490,-0.240,0.150
3491,-0.220,0.175
3492,-0.210,0.185
3493,-0.190,0.200
3494,-0.170,0.200
3495,-0.180,0.180
3496,-0.165,0.195
3497,-0.150,0.195
3498,-0.150,0.190
3499,-0.175,0.185
3500,-0.175,0.180
3501,-0.165,0.160
3502,-0.125,0.170
3503,-0.095,0.155
3504,-0.070,0.160
3505,-0.065,0.155
3506,-0.075,0.135
3507,-0.070,0.135
3508,-0.060,0.130
3509,-0.030,0.135
3510,-0.025,0.135
3511,-0.035,0.120
3512,-0.055,0.125
3513,-0.075,0.110
3514,-0.065,0.125
3515,-0.070,0.120
3516,-0.095,0.095
3517,-0.115,0.085
3518,-0.160,0.080
3519,-0.220,0.085
3520,-0.255,0.090
3521,-0.280,0.100
3522,-0.280,0.090
3523,-0.290,0.085
3524,-0.310,0.070
3525,-0.320,0.085
3526,-0.310,0.080
3527,-0.295,0.095
3528,-0.295,0.090
3529,-0.295,0.070
3530,-0.305,0.070
3531,-0.305,0.055
3532,-0.295,0.070
3533,-0.280,0.085
3534,-0.275,0.080
3535,-0.280,0.075
3536,-0.290,0.070
3537,-0.305,0.070
3538,-0.285,0.075
3539,-0.275,0.080
3540,-0.275,0.085
3541,-0.265,0.070
3542,-0.255,0.060
3543,-0.265,0.055
3544,-0.265,0.060
3545,-0.260,0.065
3546,-0.245,0.045
3547,-0.245,0.040
3548,-0.260,0.030
3549,-0.270,0.040
3550,-0.265,0.060
3551,-0.230,0.055
3552,-0.170,0.020
3553,-0.070,-0.020
3554,0.070,-0.070
3555,0.230,-0.125
3556,0.410,-0.195
3557,0.580,-0.255
3558,0.750,-0.335
3559,0.880,-0.365
3560,1.005,-0.345
3561,1.105,-0.280
3562,1.190,-0.215
3563,1.245,-0.195
3564,1.200,-0.195
3565,1.065,-0.180
3566,0.905,-0.155
3567,0.760,-0.120
3568,0.660,-0.075
3569,0.530,-0.030
3570,0.375,0.000
3571,0.235,0.005
3572,0.135,0.015
3573,0.075,0.030
3574,0.000,0.055
3575,-0.085,0.080
3576,-0.155,0.095
3577,-0.220,0.085
3578,-0.260,0.090
3579,-0.300,0.110
3580,-0.330,0.130
3581,-0.355,0.160
3582,-0.390,0.155
3583,-0.410,0.140
3584,-0.445,0.140
3585,-0.450,0.130
3586,-0.450,0.145
3587,-0.445,0.150
3588,-0.460,0.150
3589,-0.455,0.145
3590,-0.465,0.125
3591,-0.470,0.125
3592,-0.445,0.150
3593,-0.435,0.155
3594,-0.435,0.150
3595,-0.430,0.150
3596,-0.445,0.135
3597,-0.435,0.135
3598,-0.435,0.135
3599,-0.415,0.145
3600,-0.400,0.150
3601,-0.405,0.135
3602,-0.420,0.135
3603,-0.435,0.145
3604,-0.425,0.140
3605,-0.420,0.145
3606,-0.430,0.140
3607,-0.435,0.145
3608,-0.450,0.135
3609,-0.450,0.145
3610,-0.435,0.145
3611,-0.425,0.165
3612,-0.415,0.165
3613,-0.425,0.155
3614,-0.445,0.125
3615,-0.460,0.130
3616,-0.455,0.150
3617,-0.430,0.155
3618,-0.430,0.160
3619,-0.430,0.155
3620,-0.435,0.145
3621,-0.445,0.155
3622,-0.440,0.160
3623,-0.425,0.180
3624,-0.425,0.165
3625,-0.440,0.170
3626,-0.435,0.160
3627,-0.455,0.165
3628,-0.445,0.170
3629,-0.435,0.195
3630,-0.430,0.195
3631,-0.430,0.185
3632,-0.420,0.165
3633,-0.430,0.160
3634,-0.425,0.175
3635,-0.425,0.195
3636,-0.410,0.185
3637,-0.405,0.175
3638,-0.400,0.175
3639,-0.395,0.170
3640,-0.385,0.175
3641,-0.355,0.185
3642,-0.360,0.185
3643,-0.340,0.180
3644,-0.340,0.170
3645,-0.340,0.165
3646,-0.330,0.175
3647,-0.310,0.190
3648,-0.300,0.175
3649,-0.290,0.170
3650,-0.285,0.160
3651,-0.280,0.170
3652,-0.250,0.185
3653,-0.235,0.190
3654,-0.200,0.195
3655,-0.190,0.175
3656,-0.190,0.170
3657,-0.185,0.165
3658,-0.165,0.160
3659,-0.155,0.160
3660,-0.130,0.160
3661,-0.120,0.155
3662,-0.125,0.150
3663,-0.125,0.155
3664,-0.115,0.150
3665,-0.115,0.160
3666,-0.110,0.145
3667,-0.105,0.140
3668,-0.115,0.130
3669,-0.125,0.130
3670,-0.140,0.135
3671,-0.135,0.145
3672,-0.135,0.140
3673,-0.160,0.125
3674,-0.175,0.115
3675,-0.175,0.110
3676,-0.165,0.130
3677,-0.170,0.125
3678,-0.180,0.125
3679,-0.175,0.125
3680,-0.195,0.130
3681,-0.210,0.115
3682,-0.200,0.125
3683,-0.195,0.125
3684,-0.195,0.125
3685,-0.205,0.125
3686,-0.210,0.110
3687,-0.230,0.110
3688,-0.225,0.120
3689,-0.220,0.135
3690,-0.210,0.125
3691,-0.220,0.120
3692,-0.230,0.115
3693,-0.255,0.110
3694,-0.230,0.115
3695,-0.230,0.130
3696,-0.220,0.115
3697,-0.225,0.130
3698,-0.230,0.110
3699,-0.245,0.100
3700,-0.245,0.105
3701,-0.245,0.115
3702,-0.235,0.120
3703,-0.240,0.105
3704,-0.240,0.095
3705,-0.235,0.085
3706,-0.245,0.105
3707,-0.230,0.115
3708,-0.225,0.120
3709,-0.225,0.095
3710,-0.240,0.085
3711,-0.250,0.080
3712,-0.230,0.085
3713,-0.230,0.095
3714,-0.215,0.095
3715,-0.240,0.080
3716,-0.245,0.080
3717,-0.245,0.085
3718,-0.225,0.080
3719,-0.225,0.090
3720,-0.225,0.075
3721,-0.225,0.075
3722,-0.235,0.070
3723,-0.240,0.075
3724,-0.230,0.085
3725,-0.230,0.095
3726,-0.220,0.090
3727,-0.225,0.075
3728,-0.230,0.060
3729,-0.255,0.065
3730,-0.240,0.080
3731,-0.240,0.080
3732,-0.235,0.085
3733,-0.235,0.085
3734,-0.245,0.065
3735,-0.260,0.070
3736,-0.240,0.070
3737,-0.225,0.080
3738,-0.225,0.075
3739,-0.230,0.065
3740,-0.260,0.070
3741,-0.235,0.065
3742,-0.240,0.075
3743,-0.235,0.080
3744,-0.240,0.075
3745,-0.240,0.075
3746,-0.225,0.050
3747,-0.230,0.065
3748,-0.230,0.075
3749,-0.215,0.080
3750,-0.230,0.095
3751,-0.230,0.075
3752,-0.240,0.065
3753,-0.250,0.060
3754,-0.235,0.065
3755,-0.235,0.080
3756,-0.225,0.090
3757,-0.225,0.090
3758,-0.230,0.105
3759,-0.230,0.130
3760,-0.210,0.145
3761,-0.215,0.175
3762,-0.165,0.160
3763,-0.160,0.165
3764,-0.130,0.145
3765,-0.140,0.145
3766,-0.140,0.160
3767,-0.160,0.165
3768,-0.145,0.145
3769,-0.130,0.120
3770,-0.115,0.105
3771,-0.115,0.095
3772,-0.090,0.100
3773,-0.075,0.110
3774,-0.060,0.100
3775,-0.060,0.095
3776,-0.055,0.080
3777,-0.055,0.065
3778,-0.040,0.060
3779,-0.025,0.075
3780,-0.035,0.070
3781,-0.055,0.065
3782,-0.070,0.060
3783,-0.090,0.060
3784,-0.095,0.065
3785,-0.100,0.060
3786,-0.120,0.050
3787,-0.160,0.040
3788,-0.225,0.035
3789,-0.285,0.025
3790,-0.300,0.030
3791,-0.300,0.045
3792,-0.290,0.050
3793,-0.290,0.030
3794,-0.300,0.025
3795,-0.315,0.025
3796,-0.335,0.030
3797,-0.320,0.020
3798,-0.320,0.030
3799,-0.305,0.015
3800,-0.310,0.025
3801,-0.325,0.015
3802,-0.305,0.025
3803,-0.300,0.040
3804,-0.300,0.035
3805,-0.305,0.035
3806,-0.310,0.015
3807,-0.320,0.010
3808,-0.315,0.040
3809,-0.300,0.045
3810,-0.280,0.035
3811,-0.280,0.030
3812,-0.290,0.025
3813,-0.295,0.030
3814,-0.295,0.035
3815,-0.285,0.030
3816,-0.255,0.020
3817,-0.270,0.000
3818,-0.275,-0.020
3819,-0.290,-0.025
3820,-0.275,-0.025
3821,-0.270,-0.020
3822,-0.275,-0.030
3823,-0.265,-0.075
3824,-0.230,-0.130
3825,-0.155,-0.180
3826,-0.015,-0.230
3827,0.150,-0.315
3828,0.335,-0.395
3829,0.520,-0.460
3830,0.705,-0.495
3831,0.875,-0.470
3832,1.035,-0.400
3833,1.145,-0.330
3834,1.220,-0.300
3835,1.235,-0.310
3836,1.165,-0.315
3837,1.035,-0.285
3838,0.935,-0.225
3839,0.865,-0.180
3840,0.790,-0.160
3841,0.690,-0.130
3842,0.560,-0.100
3843,0.395,-0.070
3844,0.265,-0.040
3845,0.195,0.000
3846,0.145,0.010
3847,0.060,0.010
3848,-0.045,0.025
3849,-0.125,0.035
3850,-0.180,0.045
3851,-0.230,0.090
3852,-0.280,0.095
3853,-0.330,0.110
3854,-0.380,0.095
3855,-0.420,0.095
3856,-0.420,0.105
3857,-0.435,0.120
3858,-0.450,0.115
3859,-0.465,0.100
3860,-0.480,0.090
3861,-0.485,0.090
3862,-0.475,0.095
3863,-0.460,0.115
3864,-0.465,0.110
3865,-0.475,0.105
3866,-0.475,0.085
3867,-0.480,0.090
3868,-0.465,0.100
3869,-0.445,0.110
3870,-0.445,0.110
3871,-0.445,0.110
3872,-0.455,0.100
3873,-0.465,0.100
3874,-0.460,0.120
3875,-0.445,0.125
3876,-0.435,0.120
3877,-0.455,0.110
3878,-0.460,0.105
3879,-0.470,0.110
3880,-0.460,0.120
3881,-0.445,0.145
3882,-0.445,0.135
3883,-0.435,0.130
3884,-0.445,0.115
3885,-0.455,0.115
3886,-0.460,0.120
3887,-0.445,0.130
3888,-0.440,0.130
3889,-0.445,0.120
3890,-0.445,0.130
3891,-0.455,0.125
3892,-0.465,0.130
3893,-0.460,0.135
3894,-0.450,0.140
3895,-0.450,0.140
3896,-0.465,0.130
3897,-0.470,0.140
3898,-0.450,0.150
3899,-0.460,0.160
3900,-0.455,0.160
3901,-0.460,0.150
3902,-0.460,0.140
3903,-0.465,0.150
3904,-0.465,0.160
3905,-0.445,0.165
3906,-0.440,0.170
3907,-0.440,0.160
3908,-0.445,0.160
3909,-0.445,0.155
3910,-0.445,0.160
3911,-0.425,0.175
3912,-0.415,0.160
3913,-0.410,0.160
3914,-0.410,0.145
3915,-0.415,0.160
3916,-0.380,0.170
3917,-0.360,0.185
3918,-0.350,0.175
3919,-0.330,0.160
3920,-0.320,0.155
3921,-0.320,0.160
3922,-0.300,0.175
3923,-0.275,0.195
3924,-0.255,0.170
3925,-0.245,0.160
3926,-0.240,0.160
3927,-0.235,0.150
3928,-0.230,0.160
3929,-0.215,0.170
3930,-0.190,0.155
3931,-0.175,0.145
3932,-0.175,0.140
3933,-0.160,0.135
3934,-0.145,0.140
3935,-0.130,0.135
3936,-0.115,0.135
3937,-0.120,0.120
3938,-0.125,0.115
3939,-0.140,0.120
3940,-0.130,0.125
3941,-0.135,0.125
3942,-0.140,0.115
3943,-0.140,0.100
3944,-0.155,0.095
3945,-0.170,0.100
3946,-0.170,0.105
3947,-0.165,0.110
3948,-0.175,0.120
3949,-0.185,0.110
3950,-0.200,0.100
3951,-0.205,0.090
3952,-0.205,0.100
3953,-0.205,0.110
3954,-0.210,0.115
3955,-0.220,0.095
3956,-0.240,0.100
3957,-0.255,0.110
3958,-0.250,0.115
3959,-0.240,0.120
3960,-0.245,0.115
3961,-0.245,0.095
3962,-0.245,0.105
3963,-0.265,0.105
3964,-0.255,0.110
3965,-0.250,0.120
3966,-0.245,0.110
3967,-0.250,0.110
3968,-0.255,0.100
3969,-0.275,0.110
3970,-0.265,0.110
3971,-0.270,0.125
3972,-0.285,0.110
3973,-0.265,0.100
3974,-0.270,0.095
3975,-0.280,0.095
3976,-0.275,0.095
3977,-0.275,0.115
3978,-0.260,0.095
3979,-0.270,0.095
3980,-0.275,0.085
3981,-0.290,0.085
3982,-0.270,0.090
3983,-0.275,0.100
3984,-0.270,0.085
3985,-0.275,0.075
3986,-0.280,0.075
3987,-0.280,0.060
3988,-0.285,0.075
3989,-0.270,0.080
3990,-0.270,0.085
3991,-0.265,0.075
3992,-0.275,0.070
3993,-0.295,0.070
3994,-0.270,0.075
3995,-0.260,0.080
3996,-0.260,0.075
3997,-0.265,0.070
3998,-0.275,0.065
3999,-0.295,0.070
4000,-0.280,0.075
4001,-0.260,0.085
4002,-0.250,0.075
4003,-0.265,0.060
4004,-0.270,0.050
4005,-0.285,0.055
4006,-0.285,0.070
4007,-0.275,0.085
4008,-0.255,0.085
4009,-0.265,0.070
4010,-0.275,0.060
4011,-0.285,0.065
4012,-0.290,0.070
4013,-0.280,0.080
4014,-0.275,0.080
4015,-0.270,0.070
4016,-0.265,0.065
4017,-0.280,0.065
4018,-0.270,0.070
4019,-0.260,0.080
4020,-0.265,0.075
4021,-0.260,0.065
4022,-0.250,0.065
4023,-0.260,0.070
4024,-0.265,0.095
4025,-0.255,0.110
4026,-0.255,0.130
4027,-0.235,0.135
4028,-0.220,0.145
4029,-0.210,0.160
4030,-0.175,0.175
4031,-0.150,0.180
4032,-0.150,0.170
4033,-0.170,0.160
4034,-0.175,0.165
4035,-0.205,0.155
4036,-0.195,0.150
4037,-0.170,0.145
4038,-0.135,0.125
4039,-0.115,0.115
4040,-0.120,0.105
4041,-0.100,0.115
4042,-0.100,0.130
4043,-0.080,0.130
4044,-0.060,0.095
4045,-0.060,0.085
4046,-0.070,0.085
4047,-0.090,0.085
4048,-0.095,0.100
4049,-0.090,0.100
4050,-0.090,0.100
4051,-0.105,0.080
4052,-0.130,0.055
4053,-0.165,0.045
4054,-0.200,0.050
4055,-0.240,0.060
4056,-0.275,0.070
4057,-0.315,0.060
4058,-0.330,0.055
4059,-0.340,0.050
4060,-0.335,0.060
4061,-0.325,0.050
4062,-0.330,0.050
4063,-0.325,0.040
4064,-0.345,0.040
4065,-0.355,0.025
4066,-0.330,0.040
4067,-0.325,0.055
4068,-0.320,0.060
4069,-0.325,0.030
4070,-0.315,0.045
4071,-0.335,0.030
4072,-0.325,0.040
4073,-0.315,0.065
4074,-0.325,0.065
4075,-0.320,0.040
4076,-0.320,0.035
4077,-0.320,0.045
4078,-0.310,0.040
4079,-0.295,0.055
4080,-0.300,0.050
4081,-0.300,0.030
4082,-0.295,0.015
4083,-0.315,0.020
4084,-0.300,0.030
4085,-0.285,0.035
4086,-0.280,0.020
4087,-0.290,0.005
4088,-0.310,-0.010
4089,-0.300,-0.040
4090,-0.255,-0.070
4091,-0.160,-0.105
4092,-0.030,-0.170
4093,0.115,-0.255
4094,0.290,-0.345
4095,0.470,-0.410
4096,0.650,-0.460
4097,0.810,-0.460
4098,0.945,-0.445
4099,1.030,-0.400
4100,1.105,-0.345
4101,1.170,-0.300
4102,1.230,-0.275
4103,1.160,-0.240
4104,1.040,-0.210
4105,0.900,-0.175
4106,0.780,-0.155
4107,0.645,-0.115
4108,0.515,-0.050
4109,0.375,-0.005
4110,0.255,0.000
4111,0.175,0.030
4112,0.100,0.035
4113,0.010,0.050
4114,-0.080,0.065
4115,-0.150,0.085
4116,-0.215,0.095
4117,-0.275,0.100
4118,-0.330,0.110
4119,-0.380,0.125
4120,-0.420,0.150
4121,-0.430,0.155
4122,-0.440,0.140
4123,-0.465,0.125
4124,-0.485,0.120
4125,-0.500,0.105
4126,-0.525,0.125
4127,-0.520,0.140
4128,-0.510,0.140
4129,-0.500,0.140
4130,-0.515,0.130
4131,-0.525,0.130
4132,-0.525,0.125
4133,-0.510,0.150
4134,-0.500,0.140
4135,-0.490,0.150
4136,-0.495,0.135
4137,-0.505,0.130
4138,-0.500,0.160
4139,-0.490,0.165
4140,-0.480,0.150
4141,-0.490,0.165
4142,-0.500,0.140
4143,-0.490,0.140
4144,-0.490,0.170
4145,-0.485,0.180
4146,-0.480,0.160
4147,-0.490,0.170
4148,-0.480,0.160
4149,-0.495,0.150
4150,-0.495,0.155
4151,-0.485,0.170
4152,-0.480,0.175
4153,-0.480,0.170
4154,-0.480,0.165
4155,-0.505,0.165
4156,-0.510,0.185
4157,-0.495,0.195
4158,-0.485,0.180
4159,-0.485,0.180
4160,-0.495,0.160
4161,-0.510,0.170
4162,-0.520,0.190
4163,-0.495,0.210
4164,-0.500,0.205
4165,-0.485,0.190
4166,-0.490,0.180
4167,-0.495,0.170
4168,-0.500,0.180
4169,-0.485,0.195
4170,-0.485,0.200
4171,-0.490,0.190
4172,-0.500,0.190
4173,-0.495,0.195
4174,-0.480,0.210
4175,-0.480,0.205
4176,-0.475,0.195
4177,-0.475,0.185
4178,-0.475,0.180
4179,-0.485,0.190
4180,-0.460,0.220
4181,-0.445,0.215
4182,-0.425,0.210
4183,-0.430,0.210
4184,-0.425,0.185
4185,-0.420,0.195
4186,-0.395,0.200
4187,-0.380,0.210
4188,-0.375,0.200
4189,-0.365,0.210
4190,-0.360,0.210
4191,-0.355,0.195
4192,-0.335,0.200
4193,-0.305,0.210
4194,-0.285,0.210
4195,-0.275,0.200
4196,-0.265,0.195
4197,-0.255,0.190
4198,-0.240,0.195
4199,-0.215,0.195
4200,-0.195,0.185
4201,-0.180,0.185
4202,-0.175,0.175
4203,-0.195,0.170
4204,-0.180,0.155
4205,-0.180,0.180
4206,-0.155,0.175
4207,-0.155,0.180
4208,-0.165,0.155
4209,-0.180,0.155
4210,-0.180,0.170
4211,-0.200,0.185
4212,-0.210,0.155
4213,-0.220,0.160
4214,-0.220,0.140
4215,-0.230,0.150
4216,-0.225,0.160
4217,-0.235,0.160
4218,-0.250,0.150
4219,-0.260,0.145
4220,-0.270,0.135
4221,-0.280,0.140
4222,-0.270,0.150
4223,-0.270,0.175
4224,-0.270,0.165
4225,-0.280,0.155
4226,-0.300,0.140
4227,-0.310,0.145
4228,-0.305,0.155
4229,-0.285,0.155
4230,-0.290,0.160
4231,-0.300,0.160
4232,-0.330,0.150
4233,-0.340,0.145
4234,-0.330,0.155
4235,-0.310,0.165
4236,-0.300,0.150
4237,-0.310,0.150
4238,-0.320,0.145
4239,-0.335,0.125
4240,-0.330,0.140
4241,-0.320,0.160
4242,-0.325,0.145
4243,-0.330,0.135
4244,-0.330,0.120
4245,-0.355,0.120
4246,-0.345,0.140
4247,-0.345,0.150
4248,-0.345,0.145
4249,-0.335,0.135
4250,-0.345,0.125
4251,-0.350,0.125
4252,-0.345,0.130
4253,-0.335,0.135
4254,-0.330,0.140
4255,-0.335,0.130
4256,-0.340,0.125
4257,-0.340,0.135
4258,-0.335,0.140
4259,-0.345,0.135
4260,-0.330,0.135
4261,-0.340,0.120
4262,-0.355,0.105
4263,-0.355,0.120
4264,-0.345,0.120
4265,-0.330,0.135
4266,-0.345,0.135
4267,-0.335,0.125
4268,-0.335,0.110
4269,-0.340,0.115
4270,-0.345,0.125
4271,-0.335,0.140
4272,-0.325,0.130
4273,-0.330,0.125
4274,-0.335,0.110
4275,-0.350,0.110
4276,-0.340,0.115
4277,-0.335,0.125
4278,-0.315,0.130
4279,-0.310,0.120
4280,-0.335,0.110
4281,-0.345,0.105
4282,-0.340,0.120
4283,-0.335,0.125
4284,-0.335,0.125
4285,-0.335,0.120
4286,-0.345,0.105
4287,-0.355,0.105
4288,-0.340,0.115
4289,-0.330,0.130
4290,-0.320,0.130
4291,-0.325,0.130
4292,-0.330,0.120
4293,-0.340,0.120
4294,-0.335,0.130
4295,-0.330,0.150
4296,-0.325,0.165
4297,-0.325,0.185
4298,-0.325,0.190
4299,-0.305,0.185
4300,-0.285,0.205
4301,-0.250,0.220
4302,-0.240,0.200
4303,-0.240,0.185
4304,-0.250,0.165
4305,-0.260,0.165
4306,-0.240,0.170
4307,-0.205,0.180
4308,-0.180,0.160
4309,-0.175,0.150
4310,-0.175,0.155
4311,-0.180,0.145
4312,-0.160,0.150
4313,-0.145,0.170
4314,-0.135,0.135
4315,-0.130,0.130
4316,-0.135,0.125
4317,-0.150,0.115
4318,-0.160,0.140
4319,-0.170,0.140
4320,-0.160,0.115
4321,-0.165,0.115
4322,-0.180,0.100
4323,-0.230,0.090
4324,-0.270,0.105
4325,-0.315,0.110
4326,-0.355,0.110
4327,-0.365,0.110
4328,-0.390,0.085
4329,-0.405,0.090
4330,-0.395,0.085
4331,-0.390,0.090
4332,-0.395,0.090
4333,-0.390,0.075
4334,-0.390,0.080
4335,-0.400,0.080
4336,-0.390,0.085
4337,-0.385,0.100
4338,-0.380,0.095
4339,-0.375,0.070
4340,-0.395,0.075
4341,-0.405,0.085
4342,-0.390,0.090
4343,-0.380,0.100
4344,-0.360,0.085
4345,-0.365,0.070
4346,-0.365,0.060
4347,-0.380,0.070
4348,-0.370,0.080
4349,-0.360,0.080
4350,-0.345,0.075
4351,-0.345,0.070
4352,-0.350,0.050
4353,-0.365,0.030
4354,-0.350,0.030
4355,-0.355,0.040
4356,-0.350,0.030
4357,-0.355,0.040
4358,-0.360,0.035
4359,-0.350,0.030
4360,-0.285,0.010
4361,-0.185,-0.025
4362,-0.030,-0.110
4363,0.160,-0.195
4364,0.330,-0.285
4365,0.515,-0.355
4366,0.715,-0.355
4367,0.900,-0.315
4368,1.040,-0.245
4369,1.135,-0.190
4370,1.175,-0.185
4371,1.125,-0.190
4372,1.000,-0.200
4373,0.875,-0.145
4374,0.785,-0.115
4375,0.695,-0.100
4376,0.630,-0.080
4377,0.495,-0.045
4378,0.330,-0.005
4379,0.180,0.035
4380,0.095,0.035
4381,0.020,0.035
4382,-0.065,0.050
4383,-0.170,0.075
4384,-0.250,0.105
4385,-0.310,0.120
4386,-0.345,0.135
4387,-0.410,0.140
4388,-0.465,0.135
4389,-0.510,0.125
4390,-0.510,0.130
4391,-0.510,0.145
4392,-0.515,0.140
4393,-0.535,0.145
4394,-0.550,0.135
4395,-0.565,0.135
4396,-0.565,0.135
4397,-0.545,0.155
4398,-0.540,0.140
4399,-0.540,0.140
4400,-0.545,0.140
4401,-0.560,0.145
4402,-0.545,0.150
4403,-0.535,0.160
4404,-0.505,0.150
4405,-0.515,0.150
4406,-0.525,0.130
4407,-0.530,0.130
4408,-0.535,0.150
4409,-0.520,0.160
4410,-0.515,0.165
4411,-0.505,0.155
4412,-0.510,0.135
4413,-0.515,0.140
4414,-0.515,0.145
4415,-0.510,0.160
4416,-0.515,0.145
4417,-0.520,0.145
4418,-0.530,0.140
4419,-0.530,0.140
4420,-0.525,0.155
4421,-0.525,0.155
4422,-0.520,0.145
4423,-0.535,0.130
4424,-0.550,0.125
4425,-0.550,0.130
4426,-0.540,0.150
4427,-0.520,0.160
4428,-0.510,0.135
4429,-0.520,0.135
4430,-0.530,0.135
4431,-0.535,0.140
4432,-0.530,0.155
4433,-0.525,0.165
4434,-0.525,0.160
4435,-0.520,0.165
4436,-0.530,0.150
4437,-0.535,0.150
4438,-0.540,0.165
4439,-0.530,0.160
4440,-0.520,0.165
4441,-0.510,0.165
4442,-0.525,0.175
4443,-0.530,0.170
4444,-0.510,0.180
4445,-0.500,0.190
4446,-0.480,0.180
4447,-0.480,0.180
4448,-0.475,0.165
4449,-0.465,0.170
4450,-0.440,0.190
4451,-0.425,0.195
4452,-0.405,0.185
4453,-0.390,0.165
4454,-0.375,0.170
4455,-0.380,0.165
4456,-0.365,0.180
4457,-0.355,0.190
4458,-0.340,0.180
4459,-0.330,0.175
4460,-0.325,0.150
4461,-0.305,0.155
4462,-0.280,0.155
4463,-0.255,0.165
4464,-0.235,0.155
4465,-0.215,0.150
4466,-0.220,0.135
4467,-0.230,0.150
4468,-0.210,0.150
4469,-0.210,0.155
4470,-0.195,0.155
4471,-0.205,0.135
4472,-0.210,0.120
4473,-0.215,0.120
4474,-0.220,0.140
4475,-0.225,0.145
4476,-0.225,0.155
4477,-0.240,0.130
4478,-0.250,0.120
4479,-0.250,0.130
4480,-0.260,0.125
4481,-0.265,0.145
4482,-0.255,0.135
4483,-0.270,0.125
4484,-0.280,0.130
4485,-0.285,0.135
4486,-0.290,0.140
4487,-0.285,0.145
4488,-0.295,0.135
4489,-0.290,0.140
4490,-0.300,0.115
4491,-0.310,0.120
4492,-0.320,0.135
4493,-0.295,0.155
4494,-0.285,0.140
4495,-0.290,0.130
4496,-0.300,0.110
4497,-0.320,0.115
4498,-0.305,0.125
4499,-0.300,0.130
4500,-0.310,0.140
4501,-0.310,0.125
4502,-0.325,0.120
4503,-0.325,0.115
4504,-0.310,0.120
4505,-0.315,0.135
4506,-0.305,0.115
4507,-0.310,0.115
4508,-0.305,0.105
4509,-0.315,0.105
4510,-0.305,0.115
4511,-0.315,0.125
4512,-0.305,0.115
4513,-0.305,0.095
4514,-0.310,0.095
4515,-0.315,0.085
4516,-0.310,0.105
4517,-0.310,0.120
4518,-0.305,0.115
4519,-0.310,0.100
4520,-0.310,0.090
4521,-0.310,0.095
4522,-0.295,0.095
4523,-0.285,0.110
4524,-0.295,0.090
4525,-0.295,0.090
4526,-0.315,0.090
4527,-0.325,0.080
4528,-0.315,0.090
4529,-0.295,0.090
4530,-0.290,0.105
4531,-0.295,0.075
4532,-0.305,0.075
4533,-0.315,0.075
4534,-0.310,0.095
4535,-0.305,0.100
4536,-0.295,0.090
4537,-0.295,0.090
4538,-0.305,0.075
4539,-0.325,0.075
4540,-0.325,0.075
4541,-0.320,0.095
4542,-0.315,0.085
4543,-0.305,0.085
4544,-0.305,0.075
4545,-0.320,0.080
4546,-0.310,0.075
4547,-0.295,0.090
4548,-0.295,0.080
4549,-0.290,0.080
4550,-0.295,0.075
4551,-0.305,0.075
4552,-0.300,0.095
4553,-0.290,0.105
4554,-0.290,0.080
4555,-0.290,0.080
4556,-0.295,0.080
4557,-0.320,0.070
4558,-0.320,0.080
4559,-0.295,0.110
4560,-0.270,0.100
4561,-0.285,0.120
4562,-0.270,0.125
4563,-0.270,0.125
4564,-0.265,0.160
4565,-0.235,0.165
4566,-0.220,0.160
4567,-0.195,0.150
4568,-0.205,0.145
4569,-0.215,0.135
4570,-0.220,0.150
4571,-0.195,0.165
4572,-0.180,0.125
4573,-0.160,0.110
4574,-0.145,0.090
4575,-0.140,0.100
4576,-0.140,0.105
4577,-0.115,0.100
4578,-0.100,0.100
4579,-0.080,0.075
4580,-0.075,0.065
4581,-0.095,0.055
4582,-0.110,0.070
4583,-0.110,0.090
4584,-0.110,0.075
4585,-0.110,0.065
4586,-0.125,0.050
4587,-0.125,0.050
4588,-0.140,0.050
4589,-0.170,0.045
4590,-0.225,0.045
4591,-0.270,0.035
4592,-0.315,0.030
4593,-0.345,0.040
4594,-0.335,0.040
4595,-0.340,0.060
4596,-0.340,0.055
4597,-0.365,0.035
4598,-0.370,0.030
4599,-0.375,0.020
4600,-0.355,0.030
4601,-0.335,0.050
4602,-0.330,0.055
4603,-0.340,0.035
4604,-0.345,0.035
4605,-0.355,0.030
4606,-0.345,0.045
4607,-0.340,0.055
4608,-0.335,0.035
4609,-0.330,0.030
4610,-0.330,0.030
4611,-0.330,0.035
4612,-0.345,0.035
4613,-0.320,0.055
4614,-0.310,0.035
4615,-0.315,0.010
4616,-0.315,0.005
4617,-0.320,-0.005
4618,-0.315,0.000
4619,-0.305,0.010
4620,-0.325,0.005
4621,-0.315,-0.010
4622,-0.325,-0.030
4623,-0.300,-0.050
4624,-0.240,-0.085
4625,-0.145,-0.105
4626,-0.015,-0.145
4627,0.120,-0.200
4628,0.270,-0.300
4629,0.395,-0.385
4630,0.560,-0.450
4631,0.725,-0.460
4632,0.880,-0.430
4633,1.020,-0.380
4634,1.110,-0.325
4635,1.165,-0.305
4636,1.145,-0.280
4637,1.055,-0.225
4638,0.910,-0.190
4639,0.785,-0.170
4640,0.675,-0.145
4641,0.535,-0.115
4642,0.395,-0.065
4643,0.275,-0.035
4644,0.195,-0.020
4645,0.115,-0.015
4646,0.020,0.000
4647,-0.090,0.025
4648,-0.175,0.035
4649,-0.225,0.060
4650,-0.270,0.065
4651,-0.305,0.080
4652,-0.345,0.085
4653,-0.390,0.110
4654,-0.425,0.115
4655,-0.455,0.120
4656,-0.470,0.110
4657,-0.480,0.105
4658,-0.515,0.095
4659,-0.540,0.095
4660,-0.530,0.100
4661,-0.520,0.120
4662,-0.520,0.110
4663,-0.505,0.110
4664,-0.525,0.110
4665,-0.535,0.090
4666,-0.520,0.115
4667,-0.515,0.125
4668,-0.495,0.125
4669,-0.490,0.115
4670,-0.495,0.110
4671,-0.495,0.110
4672,-0.495,0.115
4673,-0.500,0.140
4674,-0.500,0.130
4675,-0.505,0.120
4676,-0.510,0.115
4677,-0.515,0.110
4678,-0.515,0.115
4679,-0.500,0.130
4680,-0.490,0.125
4681,-0.500,0.120
4682,-0.505,0.115
4683,-0.510,0.110
4684,-0.515,0.115
4685,-0.495,0.125
4686,-0.510,0.125
4687,-0.515,0.120
4688,-0.515,0.125
4689,-0.540,0.120
4690,-0.525,0.135
4691,-0.505,0.145
4692,-0.500,0.135
4693,-0.515,0.125
4694,-0.515,0.115
4695,-0.520,0.125
4696,-0.515,0.135
4697,-0.510,0.150
4698,-0.490,0.150
4699,-0.515,0.135
4700,-0.515,0.140
4701,-0.520,0.120
4702,-0.515,0.135
4703,-0.490,0.145
4704,-0.495,0.155
4705,-0.515,0.155
4706,-0.505,0.145
4707,-0.515,0.145
4708,-0.500,0.145
4709,-0.475,0.165
4710,-0.470,0.150
4711,-0.455,0.160
4712,-0.455,0.140
4713,-0.450,0.140
4714,-0.445,0.165
4715,-0.430,0.170
4716,-0.415,0.165
4717,-0.400,0.165
4718,-0.385,0.155
4719,-0.385,0.145
4720,-0.375,0.160
4721,-0.360,0.170
4722,-0.335,0.170
4723,-0.340,0.150
4724,-0.315,0.140
4725,-0.295,0.140
4726,-0.280,0.150
4727,-0.255,0.150
4728,-0.230,0.145
4729,-0.230,0.130
4730,-0.220,0.120
4731,-0.230,0.120
4732,-0.190,0.120
4733,-0.175,0.125
4734,-0.170,0.110
4735,-0.180,0.105
4736,-0.185,0.090
4737,-0.190,0.095
4738,-0.180,0.110
4739,-0.180,0.125
4740,-0.170,0.115
4741,-0.185,0.100
4742,-0.195,0.085
4743,-0.210,0.085
4744,-0.215,0.100
4745,-0.210,0.095
4746,-0.220,0.100
4747,-0.230,0.090
4748,-0.245,0.085
4749,-0.260,0.075
4750,-0.260,0.090
4751,-0.260,0.095
4752,-0.255,0.105
4753,-0.260,0.095
4754,-0.265,0.085
4755,-0.285,0.095
4756,-0.280,0.105
4757,-0.275,0.105
4758,-0.265,0.095
4759,-0.275,0.080
4760,-0.280,0.085
4761,-0.295,0.085
4762,-0.290,0.115
4763,-0.290,0.105
4764,-0.285,0.100
4765,-0.300,0.095
4766,-0.310,0.095
4767,-0.310,0.075
4768,-0.305,0.090
4769,-0.285,0.105
4770,-0.290,0.105
4771,-0.290,0.085
4772,-0.305,0.080
4773,-0.305,0.075
4774,-0.305,0.080
4775,-0.295,0.095
4776,-0.305,0.085
4777,-0.320,0.080
4778,-0.315,0.065
4779,-0.315,0.060
4780,-0.310,0.075
4781,-0.315,0.080
4782,-0.300,0.070
4783,-0.300,0.060
4784,-0.315,0.050
4785,-0.315,0.055
4786,-0.315,0.065
4787,-0.305,0.075
4788,-0.300,0.065
4789,-0.300,0.050
4790,-0.315,0.055
4791,-0.325,0.050
4792,-0.320,0.055
4793,-0.305,0.075
4794,-0.310,0.065
4795,-0.290,0.060
4796,-0.300,0.060
4797,-0.300,0.060
4798,-0.290,0.070
4799,-0.290,0.075
4800,-0.285,0.060
4801,-0.290,0.060
4802,-0.290,0.050
4803,-0.300,0.045
4804,-0.310,0.055
4805,-0.305,0.070
4806,-0.305,0.055
4807,-0.285,0.060
4808,-0.310,0.050
4809,-0.305,0.045
4810,-0.295,0.055
4811,-0.290,0.065
4812,-0.285,0.070
4813,-0.310,0.055
4814,-0.295,0.055
4815,-0.305,0.050
4816,-0.295,0.060
4817,-0.310,0.070
4818,-0.300,0.065
4819,-0.295,0.065
4820,-0.300,0.050
4821,-0.305,0.060
4822,-0.285,0.075
4823,-0.270,0.085
4824,-0.270,0.085
4825,-0.270,0.095
4826,-0.285,0.100
4827,-0.295,0.115
4828,-0.265,0.145
4829,-0.240,0.165
4830,-0.205,0.155
4831,-0.185,0.135
4832,-0.180,0.135
4833,-0.195,0.130
4834,-0.210,0.130
4835,-0.195,0.130
4836,-0.170,0.115
4837,-0.155,0.090
4838,-0.150,0.080
4839,-0.135,0.090
4840,-0.130,0.105
4841,-0.110,0.115
4842,-0.100,0.090
4843,-0.090,0.080
4844,-0.080,0.065
4845,-0.095,0.055
4846,-0.100,0.070
4847,-0.095,0.075
4848,-0.095,0.085
4849,-0.110,0.080
4850,-0.125,0.055
4851,-0.135,0.060
4852,-0.150,0.060
4853,-0.170,0.045
4854,-0.200,0.050
4855,-0.260,0.035
4856,-0.300,0.035
4857,-0.340,0.030
4858,-0.350,0.035
4859,-0.350,0.040
4860,-0.350,0.020
4861,-0.355,0.025
4862,-0.365,0.020
4863,-0.365,0.035
4864,-0.350,0.045
4865,-0.340,0.040
4866,-0.330,0.050
4867,-0.335,0.040
4868,-0.340,0.035
4869,-0.345,0.025
4870,-0.340,0.025
4871,-0.335,0.040
4872,-0.320,0.035
4873,-0.330,0.030
4874,-0.335,0.040
4875,-0.350,0.035
4876,-0.340,0.035
4877,-0.320,0.050
4878,-0.310,0.035
4879,-0.305,0.020
4880,-0.310,0.010
4881,-0.325,0.005
4882,-0.325,0.010
4883,-0.315,0.015
4884,-0.310,0.005
4885,-0.320,0.005
4886,-0.340,-0.010
4887,-0.365,-0.015
4888,-0.335,-0.030
4889,-0.285,-0.045
4890,-0.215,-0.100
4891,-0.150,-0.165
4892,-0.025,-0.255
4893,0.115,-0.340
4894,0.305,-0.410
4895,0.505,-0.455
4896,0.695,-0.470
4897,0.870,-0.430
4898,1.015,-0.370
4899,1.125,-0.320
4900,1.205,-0.285
4901,1.175,-0.250
4902,1.050,-0.205
4903,0.905,-0.180
4904,0.755,-0.160
4905,0.645,-0.135
4906,0.525,-0.085
4907,0.375,-0.025
4908,0.260,-0.010
4909,0.180,0.000
4910,0.110,0.000
4911,0.045,0.015
4912,-0.045,0.040
4913,-0.110,0.070
4914,-0.160,0.070
4915,-0.215,0.095
4916,-0.275,0.100
4917,-0.350,0.115
4918,-0.400,0.135
4919,-0.425,0.130
4920,-0.445,0.115
4921,-0.460,0.110
4922,-0.480,0.110
4923,-0.505,0.105
4924,-0.500,0.115
4925,-0.490,0.120
4926,-0.495,0.110
4927,-0.495,0.105
4928,-0.500,0.100
4929,-0.505,0.095
4930,-0.490,0.135
4931,-0.480,0.145
4932,-0.475,0.135
4933,-0.480,0.115
4934,-0.495,0.110
4935,-0.505,0.125
4936,-0.500,0.120
4937,-0.485,0.130
4938,-0.470,0.145
4939,-0.475,0.140
4940,-0.485,0.135
4941,-0.495,0.130
4942,-0.490,0.145
4943,-0.480,0.145
4944,-0.485,0.125
4945,-0.485,0.120
4946,-0.485,0.140
4947,-0.500,0.130
4948,-0.505,0.140
4949,-0.490,0.145
4950,-0.485,0.140
4951,-0.475,0.125
4952,-0.485,0.130
4953,-0.510,0.130
4954,-0.495,0.135
4955,-0.490,0.150
4956,-0.490,0.160
4957,-0.485,0.155
4958,-0.490,0.150
4959,-0.500,0.160
4960,-0.500,0.155
4961,-0.500,0.165
4962,-0.495,0.170
4963,-0.495,0.160
4964,-0.500,0.155
4965,-0.515,0.165
4966,-0.500,0.170
4967,-0.490,0.190
4968,-0.480,0.180
4969,-0.480,0.170
4970,-0.470,0.150
4971,-0.475,0.165
4972,-0.465,0.175
4973,-0.445,0.190
4974,-0.440,0.175
4975,-0.435,0.165
4976,-0.440,0.160
4977,-0.420,0.165
4978,-0.410,0.180
4979,-0.385,0.200
4980,-0.365,0.195
4981,-0.340,0.190
4982,-0.345,0.170
4983,-0.335,0.165
4984,-0.315,0.165
4985,-0.295,0.180
4986,-0.275,0.180
4987,-0.260,0.165
4988,-0.250,0.155
4989,-0.240,0.150
4990,-0.205,0.155
4991,-0.190,0.165
4992,-0.170,0.165
4993,-0.170,0.155
4994,-0.180,0.130
4995,-0.195,0.135
4996,-0.190,0.140
4997,-0.175,0.150
4998,-0.165,0.145
4999,-0.170,0.130
5000,-0.185,0.120
5001,-0.200,0.110
5002,-0.200,0.115
5003,-0.200,0.125
5004,-0.195,0.130
5005,-0.205,0.105
5006,-0.230,0.100
5007,-0.245,0.110
5008,-0.255,0.110
5009,-0.240,0.130
5010,-0.240,0.110
5011,-0.255,0.100
5012,-0.265,0.095
5013,-0.280,0.100
5014,-0.285,0.120
5015,-0.275,0.130
5016,-0.270,0.110
5017,-0.270,0.105
5018,-0.280,0.100
5019,-0.295,0.100
5020,-0.300,0.105
5021,-0.300,0.120
5022,-0.300,0.115
5023,-0.305,0.090
5024,-0.315,0.095
5025,-0.315,0.085
5026,-0.320,0.105
5027,-0.315,0.130
5028,-0.310,0.125
5029,-0.315,0.105
5030,-0.330,0.110
5031,-0.325,0.100
5032,-0.325,0.100
5033,-0.320,0.095
5034,-0.315,0.090
5035,-0.320,0.100
5036,-0.320,0.090
5037,-0.320,0.090
5038,-0.325,0.100
5039,-0.320,0.110
5040,-0.325,0.095
5041,-0.330,0.090
5042,-0.335,0.075
5043,-0.335,0.090
5044,-0.315,0.100
5045,-0.305,0.110
5046,-0.305,0.105
5047,-0.320,0.085
5048,-0.330,0.075
5049,-0.355,0.075
5050,-0.345,0.100
5051,-0.315,0.115
5052,-0.305,0.095
5053,-0.305,0.100
5054,-0.325,0.080
5055,-0.335,0.070
5056,-0.335,0.095
5057,-0.320,0.075
5058,-0.320,0.080
5059,-0.320,0.080
5060,-0.330,0.080
5061,-0.325,0.080
5062,-0.330,0.085
5063,-0.320,0.090
5064,-0.310,0.085
5065,-0.305,0.090
5066,-0.315,0.080
5067,-0.330,0.065
5068,-0.325,0.075
5069,-0.310,0.090
5070,-0.315,0.095
5071,-0.315,0.075
5072,-0.315,0.075
5073,-0.325,0.065
5074,-0.320,0.080
5075,-0.305,0.085
5076,-0.290,0.095
5077,-0.300,0.095
5078,-0.290,0.080
5079,-0.305,0.080
5080,-0.300,0.090
5081,-0.300,0.105
5082,-0.300,0.095
5083,-0.305,0.115
5084,-0.305,0.130
5085,-0.285,0.150
5086,-0.250,0.155
5087,-0.230,0.165
5088,-0.215,0.155
5089,-0.215,0.140
5090,-0.230,0.135
5091,-0.260,0.135
5092,-0.235,0.135
5093,-0.205,0.140
5094,-0.185,0.130
5095,-0.165,0.110
5096,-0.165,0.095
5097,-0.170,0.100
5098,-0.135,0.100
5099,-0.110,0.120
5100,-0.095,0.100
5101,-0.105,0.075
5102,-0.115,0.075
5103,-0.145,0.085
5104,-0.150,0.085
5105,-0.140,0.100
5106,-0.150,0.090
5107,-0.145,0.065
5108,-0.170,0.045
5109,-0.220,0.050
5110,-0.260,0.065
5111,-0.310,0.070
5112,-0.340,0.060
5113,-0.345,0.045
5114,-0.370,0.040
5115,-0.380,0.040
5116,-0.375,0.050
5117,-0.375,0.065
5118,-0.370,0.045
5119,-0.380,0.035
5120,-0.375,0.045
5121,-0.385,0.030
5122,-0.365,0.050
5123,-0.360,0.055
5124,-0.345,0.050
5125,-0.345,0.040
5126,-0.345,0.035
5127,-0.365,0.040
5128,-0.365,0.030
5129,-0.355,0.050
5130,-0.340,0.045
5131,-0.350,0.040
5132,-0.345,0.035
5133,-0.345,0.035
5134,-0.325,0.045
5135,-0.325,0.065
5136,-0.320,0.030
5137,-0.315,0.015
5138,-0.315,-0.005
5139,-0.325,-0.005
5140,-0.320,0.015
5141,-0.320,0.015
5142,-0.310,0.025
5143,-0.310,-0.005
5144,-0.270,-0.040
5145,-0.165,-0.105
5146,-0.005,-0.160
5147,0.175,-0.230
5148,0.370,-0.325
5149,0.565,-0.380
5150,0.765,-0.395
5151,0.920,-0.360
5152,1.055,-0.290
5153,1.155,-0.245
5154,1.160,-0.260
5155,1.090,-0.270
5156,0.935,-0.245
5157,0.795,-0.200
5158,0.725,-0.145
5159,0.670,-0.125
5160,0.585,-0.105
5161,0.460,-0.075
5162,0.280,-0.060
5163,0.135,-0.025
5164,0.050,-0.010
5165,-0.005,0.015
5166,-0.090,0.035
5167,-0.175,0.040
5168,-0.265,0.060
5169,-0.325,0.065
5170,-0.370,0.095
5171,-0.410,0.100
5172,-0.430,0.110
5173,-0.455,0.105
5174,-0.460,0.090
5175,-0.485,0.095
5176,-0.490,0.110
5177,-0.495,0.120
5178,-0.495,0.110
5179,-0.500,0.095
5180,-0.500,0.090
5181,-0.510,0.100
5182,-0.510,0.115
5183,-0.505,0.130
5184,-0.495,0.115
5185,-0.495,0.115
5186,-0.500,0.085
5187,-0.505,0.105
5188,-0.500,0.110
5189,-0.485,0.120
5190,-0.475,0.115
5191,-0.470,0.110
5192,-0.480,0.095
5193,-0.480,0.100
5194,-0.490,0.095
5195,-0.485,0.100
5196,-0.470,0.100
5197,-0.465,0.095
5198,-0.475,0.095
5199,-0.500,0.115
5200,-0.485,0.115
5201,-0.475,0.110
5202,-0.470,0.105
5203,-0.480,0.090
5204,-0.490,0.095
5205,-0.490,0.090
5206,-0.490,0.105
5207,-0.490,0.120
5208,-0.490,0.110
5209,-0.480,0.110
5210,-0.505,0.100
5211,-0.510,0.110
5212,-0.500,0.115
5213,-0.500,0.125
5214,-0.500,0.110
5215,-0.515,0.110
5216,-0.510,0.120
5217,-0.510,0.120
5218,-0.490,0.120
5219,-0.475,0.130
5220,-0.470,0.120
5221,-0.480,0.110
5222,-0.495,0.115
5223,-0.500,0.115
5224,-0.490,0.125
5225,-0.470,0.150
5226,-0.455,0.145
5227,-0.460,0.130
5228,-0.455,0.115
5229,-0.465,0.120
5230,-0.445,0.140
5231,-0.430,0.155
5232,-0.400,0.125
5233,-0.400,0.125
5234,-0.405,0.115
5235,-0.410,0.105
5236,-0.385,0.120
5237,-0.360,0.125
5238,-0.330,0.115
5239,-0.320,0.115
5240,-0.315,0.120
5241,-0.315,0.120
5242,-0.295,0.130
5243,-0.280,0.135
5244,-0.260,0.135
5245,-0.250,0.115
5246,-0.230,0.105
5247,-0.225,0.105
5248,-0.205,0.110
5249,-0.195,0.105
5250,-0.175,0.115
5251,-0.175,0.090
5252,-0.170,0.085
5253,-0.185,0.080
5254,-0.180,0.085
5255,-0.175,0.095
5256,-0.165,0.095
5257,-0.180,0.095
5258,-0.180,0.085
5259,-0.200,0.070
5260,-0.195,0.090
5261,-0.195,0.100
5262,-0.205,0.085
5263,-0.220,0.085
5264,-0.230,0.065
5265,-0.245,0.065
5266,-0.240,0.075
5267,-0.230,0.085
5268,-0.225,0.075
5269,-0.245,0.075
5270,-0.255,0.065
5271,-0.255,0.075
5272,-0.250,0.085
5273,-0.255,0.095
5274,-0.255,0.090
5275,-0.275,0.080
5276,-0.280,0.070
5277,-0.285,0.060
5278,-0.275,0.075
5279,-0.265,0.075
5280,-0.265,0.080
5281,-0.275,0.075
5282,-0.285,0.060
5283,-0.295,0.070
5284,-0.295,0.065
5285,-0.295,0.085
5286,-0.280,0.075
5287,-0.285,0.050
5288,-0.295,0.045
5289,-0.310,0.045
5290,-0.305,0.060
5291,-0.285,0.055
5292,-0.275,0.050
5293,-0.290,0.055
5294,-0.295,0.035
5295,-0.295,0.035
5296,-0.290,0.045
5297,-0.290,0.050
5298,-0.285,0.040
5299,-0.275,0.030
5300,-0.285,0.010
5301,-0.290,0.015
5302,-0.285,0.025
5303,-0.275,0.035
5304,-0.270,0.025
5305,-0.270,0.035
5306,-0.285,0.020
5307,-0.300,0.025
5308,-0.300,0.050
5309,-0.285,0.045
5310,-0.275,0.030
5311,-0.290,0.025
5312,-0.290,0.020
5313,-0.305,0.015
5314,-0.285,0.020
5315,-0.290,0.030
5316,-0.275,0.020
5317,-0.285,0.025
5318,-0.295,0.015
5319,-0.305,0.000
5320,-0.285,0.015
5321,-0.275,0.030
5322,-0.275,0.025
5323,-0.270,0.020
5324,-0.280,0.015
5325,-0.295,0.015
5326,-0.290,0.020
5327,-0.275,0.030
5328,-0.265,0.015
5329,-0.270,0.015
5330,-0.285,0.015
5331,-0.290,0.000
5332,-0.280,0.020
5333,-0.265,0.035
5334,-0.260,0.030
5335,-0.260,0.020
5336,-0.270,0.025
5337,-0.275,0.035
5338,-0.270,0.045
5339,-0.250,0.085
5340,-0.245,0.085
5341,-0.240,0.090
5342,-0.225,0.090
5343,-0.215,0.085
5344,-0.190,0.095
5345,-0.175,0.100
5346,-0.160,0.090
5347,-0.170,0.080
5348,-0.195,0.065
5349,-0.195,0.060
5350,-0.155,0.050
5351,-0.115,0.070
5352,-0.100,0.060
5353,-0.080,0.050
5354,-0.075,0.045
5355,-0.080,0.025
5356,-0.070,0.010
5357,-0.060,0.030
5358,-0.075,0.030
5359,-0.085,0.045
5360,-0.110,0.040
5361,-0.135,0.020
5362,-0.110,0.020
5363,-0.115,0.025
5364,-0.130,0.000
5365,-0.185,-0.005
5366,-0.245,-0.020
5367,-0.300,-0.015
5368,-0.330,0.005
5369,-0.335,0.010
5370,-0.325,-0.005
5371,-0.335,-0.005
5372,-0.335,-0.015
5373,-0.335,-0.010
5374,-0.330,-0.015
5375,-0.315,0.005
5376,-0.320,0.000
5377,-0.320,-0.010
5378,-0.320,-0.015
5379,-0.325,-0.020
5380,-0.320,-0.005
5381,-0.305,0.000
5382,-0.305,-0.010
5383,-0.305,-0.005
5384,-0.310,-0.005
5385,-0.300,-0.005
5386,-0.290,0.005
5387,-0.285,0.005
5388,-0.285,0.005
5389,-0.295,-0.015
5390,-0.295,-0.035
5391,-0.305,-0.045
5392,-0.290,-0.040
5393,-0.275,-0.025
5394,-0.290,-0.020
5395,-0.285,-0.035
5396,-0.270,-0.055
5397,-0.215,-0.080
5398,-0.090,-0.125
5399,0.065,-0.175
5400,0.200,-0.260
5401,0.350,-0.360
5402,0.530,-0.445
5403,0.730,-0.470
5404,0.945,-0.425
5405,1.090,-0.350
5406,1.175,-0.305
5407,1.190,-0.305
5408,1.135,-0.285
5409,0.960,-0.235
5410,0.810,-0.195
5411,0.700,-0.155
5412,0.580,-0.130
5413,0.415,-0.090
5414,0.250,-0.065
5415,0.150,-0.060
5416,0.100,-0.040
5417,0.040,-0.015
5418,-0.045,0.000
5419,-0.125,0.005
5420,-0.190,0.015
5421,-0.260,0.030
5422,-0.305,0.065
5423,-0.345,0.090
5424,-0.380,0.090
5425,-0.405,0.070
5426,-0.445,0.060
5427,-0.470,0.060
5428,-0.485,0.070
5429,-0.480,0.085
5430,-0.460,0.075
5431,-0.465,0.075
5432,-0.475,0.075
5433,-0.485,0.070
5434,-0.465,0.065
5435,-0.450,0.090
5436,-0.455,0.085
5437,-0.450,0.080
5438,-0.450,0.075
5439,-0.470,0.070
5440,-0.460,0.095
5441,-0.460,0.095
5442,-0.450,0.085
5443,-0.440,0.080
5444,-0.445,0.070
5445,-0.470,0.075
5446,-0.460,0.085
5447,-0.450,0.095
5448,-0.445,0.085
5449,-0.435,0.085
5450,-0.460,0.060
5451,-0.470,0.075
5452,-0.465,0.075
5453,-0.460,0.100
5454,-0.435,0.100
5455,-0.445,0.080
5456,-0.460,0.075
5457,-0.460,0.075
5458,-0.455,0.075
5459,-0.470,0.095
5460,-0.460,0.095
5461,-0.465,0.100
5462,-0.465,0.080
5463,-0.475,0.090
5464,-0.465,0.090
5465,-0.465,0.105
5466,-0.465,0.100
5467,-0.460,0.090
5468,-0.475,0.090
5469,-0.480,0.090
5470,-0.475,0.110
5471,-0.455,0.125
5472,-0.460,0.110
5473,-0.450,0.105
5474,-0.445,0.090
5475,-0.440,0.095
5476,-0.425,0.100
5477,-0.410,0.120
5478,-0.400,0.100
5479,-0.405,0.110
5480,-0.400,0.095
5481,-0.395,0.090
5482,-0.380,0.090
5483,-0.355,0.120
5484,-0.335,0.105
5485,-0.330,0.105
5486,-0.315,0.090
5487,-0.315,0.080
5488,-0.285,0.105
5489,-0.260,0.115
5490,-0.240,0.105
5491,-0.230,0.105
5492,-0.225,0.095
5493,-0.210,0.085
5494,-0.175,0.090
5495,-0.150,0.090
5496,-0.135,0.090
5497,-0.150,0.075
5498,-0.160,0.055
5499,-0.145,0.050
5500,-0.145,0.060
5501,-0.130,0.065
5502,-0.135,0.055
5503,-0.130,0.045
5504,-0.145,0.050
5505,-0.160,0.035
5506,-0.150,0.040
5507,-0.160,0.050
5508,-0.150,0.050
5509,-0.170,0.040
5510,-0.190,0.025
5511,-0.205,0.035
5512,-0.190,0.035
5513,-0.200,0.050
5514,-0.195,0.040
5515,-0.195,0.030
5516,-0.195,0.035
5517,-0.210,0.030
5518,-0.225,0.040
5519,-0.215,0.055
5520,-0.215,0.040
5521,-0.220,0.035
5522,-0.240,0.035
5523,-0.245,0.015
5524,-0.240,0.045
5525,-0.235,0.045
5526,-0.225,0.060
5527,-0.235,0.035
5528,-0.230,0.030
5529,-0.250,0.025
5530,-0.250,0.025
5531,-0.255,0.020
5532,-0.260,0.020
5533,-0.270,0.005
5534,-0.270,-0.015
5535,-0.295,-0.020
5536,-0.300,-0.015
5537,-0.290,-0.030
5538,-0.280,-0.050
5539,-0.275,-0.095
5540,-0.275,-0.115
5541,-0.270,-0.135
5542,-0.255,-0.135
5543,-0.250,-0.120
5544,-0.220,-0.130
5545,-0.185,-0.175
5546,-0.150,-0.200
5547,-0.080,-0.265
5548,0.025,-0.320
5549,0.115,-0.375
5550,0.230,-0.415
5551,0.375,-0.415
5552,0.520,-0.395
5553,0.665,-0.355
5554,0.780,-0.300
5555,0.895,-0.245
5556,1.050,-0.180
5557,1.195,-0.075
5558,1.340,0.045
5559,1.455,0.200
5560,1.580,0.370
5561,1.695,0.525
5562,1.770,0.650
5563,1.765,0.730
5564,1.590,0.745
5565,1.295,0.690
5566,0.970,0.615
5567,0.715,0.560
5568,0.460,0.445
5569,0.180,0.355
5570,-0.080,0.275
5571,-0.295,0.230
5572,-0.430,0.175
5573,-0.510,0.135
5574,-0.535,0.080
5575,-0.560,0.030
5576,-0.585,-0.005
5577,-0.600,0.000
5578,-0.590,0.010
5579,-0.575,0.015
5580,-0.570,0.000
5581,-0.585,-0.015
5582,-0.585,-0.025
5583,-0.605,-0.035
5584,-0.585,-0.030
5585,-0.585,-0.035
5586,-0.580,-0.035
5587,-0.590,-0.055
5588,-0.605,-0.055
5589,-0.625,-0.050
5590,-0.635,-0.045
5591,-0.630,-0.030
5592,-0.645,-0.055
5593,-0.650,-0.075
5594,-0.675,-0.080
5595,-0.705,-0.090
5596,-0.710,-0.080
5597,-0.700,-0.095
5598,-0.670,-0.110
5599,-0.640,-0.130
5600,-0.635,-0.140
5601,-0.635,-0.135
5602,-0.630,-0.120
5603,-0.630,-0.105
5604,-0.635,-0.105
5605,-0.635,-0.110
5606,-0.615,-0.105
5607,-0.625,-0.090
5608,-0.610,-0.055
5609,-0.600,-0.030
5610,-0.595,-0.035
5611,-0.590,-0.040
5612,-0.590,-0.045
5613,-0.615,-0.055
5614,-0.625,-0.035
5615,-0.630,-0.020
5616,-0.590,-0.015
5617,-0.605,-0.025
5618,-0.610,-0.035
5619,-0.625,-0.040
5620,-0.630,-0.035
5621,-0.625,-0.025
5622,-0.615,-0.025
5623,-0.615,-0.020
5624,-0.630,-0.025
5625,-0.635,-0.035
5626,-0.635,-0.020
5627,-0.635,-0.015
5628,-0.630,-0.015
5629,-0.620,-0.025
5630,-0.625,-0.030
5631,-0.610,-0.010
5632,-0.605,-0.005
5633,-0.600,0.010
5634,-0.575,0.000
5635,-0.575,-0.005
5636,-0.565,-0.025
5637,-0.565,-0.020
5638,-0.545,-0.005
5639,-0.525,0.010
5640,-0.505,-0.005
5641,-0.490,0.000
5642,-0.495,-0.015
5643,-0.485,-0.015
5644,-0.470,0.000
5645,-0.435,0.010
5646,-0.420,0.010
5647,-0.400,0.010
5648,-0.385,0.015
5649,-0.375,0.015
5650,-0.345,0.025
5651,-0.315,0.030
5652,-0.285,0.030
5653,-0.275,0.025
5654,-0.280,0.035
5655,-0.275,0.045
5656,-0.250,0.050
5657,-0.245,0.060
5658,-0.235,0.055
5659,-0.215,0.050
5660,-0.225,0.035
5661,-0.225,0.035
5662,-0.225,0.045
5663,-0.210,0.070
5664,-0.205,0.050
5665,-0.210,0.040
5666,-0.205,0.035
5667,-0.225,0.045
5668,-0.220,0.055
5669,-0.205,0.065
5670,-0.195,0.055
5671,-0.205,0.050
5672,-0.205,0.035
5673,-0.220,0.040
5674,-0.225,0.040
5675,-0.220,0.050
5676,-0.210,0.045
5677,-0.200,0.040
5678,-0.210,0.040
5679,-0.210,0.030
5680,-0.215,0.045
5681,-0.210,0.055
5682,-0.200,0.040
5683,-0.210,0.035
5684,-0.205,0.025
5685,-0.220,0.015
5686,-0.210,0.045
5687,-0.215,0.040
5688,-0.205,0.030
5689,-0.205,0.020
5690,-0.215,0.010
5691,-0.225,0.010
5692,-0.225,0.015
5693,-0.215,0.030
5694,-0.220,0.030
5695,-0.225,0.030
5696,-0.235,0.025
5697,-0.250,0.010
5698,-0.250,0.025
5699,-0.235,0.020
5700,-0.220,0.020
5701,-0.215,0.005
5702,-0.225,0.000
5703,-0.245,-0.005
5704,-0.250,0.005
5705,-0.240,0.020
5706,-0.245,0.010
5707,-0.245,-0.005
5708,-0.255,-0.005
5709,-0.275,-0.010
5710,-0.250,0.005
5711,-0.245,0.015
5712,-0.240,0.005
5713,-0.250,-0.005
5714,-0.265,-0.030
5715,-0.275,-0.025
5716,-0.260,-0.015
5717,-0.250,-0.005
5718,-0.245,0.000
5719,-0.250,-0.005
5720,-0.260,-0.005
5721,-0.270,-0.015
5722,-0.270,0.000
5723,-0.270,-0.010
5724,-0.275,0.000
5725,-0.270,-0.025
5726,-0.270,-0.035
5727,-0.290,-0.015
5728,-0.265,-0.020
5729,-0.255,-0.020
5730,-0.255,-0.020
5731,-0.260,-0.035
5732,-0.280,-0.045
5733,-0.275,-0.035
5734,-0.275,-0.025
5735,-0.270,-0.010
5736,-0.255,-0.020
5737,-0.260,-0.015
5738,-0.270,-0.035
5739,-0.290,-0.035
5740,-0.275,-0.030
5741,-0.260,-0.015
5742,-0.260,-0.020
5743,-0.260,-0.030
5744,-0.275,-0.040
5745,-0.280,-0.040
5746,-0.280,-0.025
5747,-0.270,-0.010
5748,-0.270,-0.025
5749,-0.260,-0.025
5750,-0.280,-0.035
5751,-0.290,-0.030
5752,-0.285,-0.025
5753,-0.275,-0.005
5754,-0.270,-0.010
5755,-0.270,-0.020
5756,-0.270,-0.030
5757,-0.290,-0.035
5758,-0.270,-0.010
5759,-0.270,-0.015
5760,-0.280,-0.010
5761,-0.280,-0.010
5762,-0.280,-0.030
5763,-0.290,-0.020
5764,-0.275,-0.015
5765,-0.260,-0.020
5766,-0.260,-0.025
5767,-0.270,-0.030
5768,-0.270,-0.040
5769,-0.285,-0.025
5770,-0.265,-0.005
5771,-0.270,0.000
5772,-0.255,-0.010
5773,-0.255,-0.025
5774,-0.270,-0.035
5775,-0.275,-0.040
5776,-0.275,-0.030
5777,-0.265,-0.010
5778,-0.265,-0.020
5779,-0.270,-0.020
5780,-0.275,-0.020
5781,-0.285,-0.030
5782,-0.295,-0.030
5783,-0.285,-0.020
5784,-0.260,-0.030
5785,-0.250,-0.030
5786,-0.275,-0.040
5787,-0.280,-0.035
5788,-0.275,-0.030
5789,-0.280,-0.015
5790,-0.255,-0.030
5791,-0.255,-0.040
5792,-0.265,-0.040
5793,-0.280,-0.045
5794,-0.275,-0.030
5795,-0.265,-0.020
5796,-0.260,-0.025
5797,-0.275,-0.035
5798,-0.270,-0.035
5799,-0.275,-0.040
5800,-0.280,-0.040
5801,-0.260,-0.030
5802,-0.260,-0.020
5803,-0.265,-0.040
5804,-0.265,-0.035
5805,-0.265,-0.035
5806,-0.245,-0.025
5807,-0.235,-0.015
5808,-0.235,-0.015
5809,-0.250,-0.035
5810,-0.270,-0.040
5811,-0.280,-0.040
5812,-0.275,-0.015
5813,-0.260,-0.010
5814,-0.250,-0.025
5815,-0.250,-0.035
5816,-0.260,-0.035
5817,-0.265,-0.065
5818,-0.270,-0.035
5819,-0.250,-0.030
5820,-0.240,-0.025
5821,-0.260,-0.030
5822,-0.260,-0.040
5823,-0.280,-0.040
5824,-0.270,-0.030
5825,-0.265,-0.010
5826,-0.255,-0.020
5827,-0.255,-0.030
5828,-0.260,-0.030
5829,-0.265,-0.045
5830,-0.265,-0.030
5831,-0.250,-0.010
5832,-0.260,-0.020
5833,-0.265,-0.030
5834,-0.270,-0.040
5835,-0.275,-0.045
5836,-0.255,-0.030
5837,-0.250,-0.020
5838,-0.245,-0.020
5839,-0.260,-0.030
5840,-0.255,-0.030
5841,-0.265,-0.040
5842,-0.255,-0.030
5843,-0.255,-0.010
5844,-0.255,-0.030
5845,-0.265,-0.035
5846,-0.255,-0.040
5847,-0.265,-0.035
5848,-0.260,-0.025
5849,-0.245,0.010
5850,-0.220,0.020
5851,-0.220,0.020
5852,-0.225,0.030
5853,-0.210,0.045
5854,-0.195,0.035
5855,-0.170,0.050
5856,-0.160,0.035
5857,-0.150,0.040
5858,-0.180,0.030
5859,-0.175,0.020
5860,-0.160,0.005
5861,-0.125,-0.005
5862,-0.100,-0.015
5863,-0.100,-0.020
5864,-0.100,-0.040
5865,-0.105,-0.035
5866,-0.095,-0.010
5867,-0.085,0.000
5868,-0.080,-0.015
5869,-0.080,-0.035
5870,-0.070,-0.035
5871,-0.080,-0.040
5872,-0.090,-0.030
5873,-0.095,0.000
5874,-0.105,-0.005
5875,-0.100,-0.020
5876,-0.110,-0.045
5877,-0.160,-0.055
5878,-0.180,-0.055
5879,-0.225,-0.040
5880,-0.275,-0.045
5881,-0.310,-0.040
5882,-0.320,-0.045
5883,-0.315,-0.050
5884,-0.315,-0.035
5885,-0.310,-0.035
5886,-0.300,-0.050
5887,-0.315,-0.050
5888,-0.330,-0.065
5889,-0.335,-0.065
5890,-0.320,-0.050
5891,-0.315,-0.030
5892,-0.315,-0.025
5893,-0.315,-0.055
5894,-0.325,-0.060
5895,-0.330,-0.050
5896,-0.335,-0.045
5897,-0.315,-0.025
5898,-0.310,-0.025
5899,-0.300,-0.035
5900,-0.300,-0.060
5901,-0.295,-0.055
5902,-0.295,-0.050
5903,-0.290,-0.045
5904,-0.265,-0.055
5905,-0.275,-0.075
5906,-0.295,-0.075
5907,-0.305,-0.075
5908,-0.300,-0.055
5909,-0.300,-0.045
5910,-0.295,-0.055
5911,-0.270,-0.085
5912,-0.225,-0.145
5913,-0.130,-0.185
5914,0.030,-0.265
5915,0.200,-0.330
5916,0.370,-0.425
5917,0.555,-0.495
5918,0.755,-0.540
5919,0.910,-0.500
5920,1.055,-0.440
5921,1.150,-0.390
5922,1.215,-0.360
5923,1.180,-0.375
5924,1.060,-0.370
5925,0.895,-0.315
5926,0.785,-0.255
5927,0.710,-0.220
5928,0.640,-0.185
5929,0.505,-0.145
5930,0.345,-0.125
5931,0.200,-0.105
5932,0.110,-0.065
5933,0.035,-0.030
5934,-0.060,-0.020
5935,-0.165,-0.010
5936,-0.250,0.005
5937,-0.320,0.005
5938,-0.370,0.045
5939,-0.400,0.060
5940,-0.430,0.065
5941,-0.460,0.050
5942,-0.470,0.060
5943,-0.495,0.045
5944,-0.520,0.050
5945,-0.520,0.065
5946,-0.535,0.050
5947,-0.510,0.055
5948,-0.525,0.045
5949,-0.530,0.040
5950,-0.540,0.055
5951,-0.530,0.070
5952,-0.510,0.065
5953,-0.510,0.055
5954,-0.510,0.055
5955,-0.505,0.050
5956,-0.510,0.065
5957,-0.515,0.075
5958,-0.500,0.065
5959,-0.505,0.065
5960,-0.495,0.060
5961,-0.510,0.050
5962,-0.495,0.060
5963,-0.500,0.070
5964,-0.485,0.070
5965,-0.505,0.065
5966,-0.510,0.055
5967,-0.520,0.060
5968,-0.510,0.075
5969,-0.510,0.085
5970,-0.475,0.080
5971,-0.490,0.060
5972,-0.495,0.060
5973,-0.510,0.065
5974,-0.505,0.070
5975,-0.485,0.080
5976,-0.490,0.070
5977,-0.485,0.075
5978,-0.485,0.065
5979,-0.495,0.065
5980,-0.490,0.080
5981,-0.470,0.100
5982,-0.470,0.090
5983,-0.460,0.090
5984,-0.465,0.090
5985,-0.475,0.090
5986,-0.465,0.105
5987,-0.450,0.100
5988,-0.450,0.105
5989,-0.450,0.090
5990,-0.455,0.090
5991,-0.460,0.090
5992,-0.435,0.105
5993,-0.420,0.115
5994,-0.400,0.115
5995,-0.405,0.105
5996,-0.410,0.095
5997,-0.400,0.095
5998,-0.375,0.120
5999,-0.350,0.145
6000,-0.320,0.130
6001,-0.320,0.125
6002,-0.320,0.115
6003,-0.330,0.105
6004,-0.290,0.120
6005,-0.270,0.130
6006,-0.255,0.115
6007,-0.245,0.120
6008,-0.235,0.115
6009,-0.230,0.125
6010,-0.210,0.125
6011,-0.180,0.140
6012,-0.165,0.125
6013,-0.145,0.125
6014,-0.135,0.115
6015,-0.135,0.120
6016,-0.120,0.135
6017,-0.105,0.140
6018,-0.090,0.140
6019,-0.080,0.125
6020,-0.080,0.100
6021,-0.080,0.100
6022,-0.055,0.105
6023,-0.040,0.125
6024,-0.040,0.115
6025,-0.035,0.110
6026,-0.045,0.085
6027,-0.055,0.085
6028,-0.055,0.090
6029,-0.045,0.100
6030,-0.070,0.095
6031,-0.070,0.080
6032,-0.085,0.075
6033,-0.095,0.065
6034,-0.100,0.080
6035,-0.100,0.090
6036,-0.110,0.075
6037,-0.125,0.050
6038,-0.145,0.050
6039,-0.170,0.050
6040,-0.175,0.055
6041,-0.175,0.070
6042,-0.180,0.070
6043,-0.190,0.055
6044,-0.200,0.055
6045,-0.225,0.065
6046,-0.225,0.070
6047,-0.225,0.085
6048,-0.230,0.070
6049,-0.240,0.055
6050,-0.250,0.055
6051,-0.260,0.045
6052,-0.275,0.065
6053,-0.280,0.055
6054,-0.280,0.055
6055,-0.280,0.055
6056,-0.285,0.030
6057,-0.305,0.030
6058,-0.300,0.040
6059,-0.300,0.060
6060,-0.300,0.055
6061,-0.310,0.050
6062,-0.320,0.030
6063,-0.315,0.040
6064,-0.320,0.045
6065,-0.310,0.045
6066,-0.325,0.030
6067,-0.345,0.025
6068,-0.335,0.015
6069,-0.325,0.015
6070,-0.320,0.020
6071,-0.320,0.015
6072,-0.320,0.010
6073,-0.330,0.015
6074,-0.330,0.000
6075,-0.350,0.000
6076,-0.330,0.005
6077,-0.325,0.015
6078,-0.325,0.000
6079,-0.330,0.005
6080,-0.340,-0.010
6081,-0.345,-0.005
6082,-0.345,-0.020
6083,-0.330,0.015
6084,-0.325,-0.005
6085,-0.345,0.000
6086,-0.345,-0.005
6087,-0.345,-0.020
6088,-0.345,-0.010
6089,-0.325,0.010
6090,-0.330,-0.005
6091,-0.335,-0.020
6092,-0.335,-0.025
6093,-0.345,-0.015
6094,-0.335,-0.005
6095,-0.325,0.015
6096,-0.315,-0.005
6097,-0.325,-0.005
6098,-0.320,-0.015
6099,-0.320,-0.025
6100,-0.320,-0.015
6101,-0.320,0.010
6102,-0.320,-0.015
6103,-0.325,-0.015
6104,-0.325,-0.030
6105,-0.325,-0.020
6106,-0.315,-0.010
6107,-0.305,0.000
6108,-0.310,0.000
6109,-0.320,-0.015
6110,-0.320,-0.020
6111,-0.335,-0.015
6112,-0.325,-0.015
6113,-0.315,0.010
6114,-0.300,-0.005
6115,-0.310,0.000
6116,-0.315,0.000
6117,-0.310,0.010
6118,-0.305,0.030
6119,-0.275,0.050
6120,-0.260,0.055
6121,-0.250,0.055
6122,-0.240,0.050
6123,-0.235,0.040
6124,-0.235,0.055
6125,-0.230,0.060
6126,-0.220,0.050
6127,-0.205,0.035
6128,-0.185,0.015
6129,-0.180,0.015
6130,-0.175,0.010
6131,-0.145,0.025
6132,-0.145,0.020
6133,-0.135,0.020
6134,-0.120,-0.005
6135,-0.115,-0.020
6136,-0.100,-0.020
6137,-0.095,-0.020
6138,-0.100,-0.010
6139,-0.105,-0.015
6140,-0.135,-0.025
6141,-0.140,-0.020
6142,-0.160,-0.030
6143,-0.135,-0.035
6144,-0.150,-0.035
6145,-0.185,-0.055
6146,-0.230,-0.060
6147,-0.290,-0.065
6148,-0.320,-0.050
6149,-0.330,-0.035
6150,-0.335,-0.040
6151,-0.340,-0.050
6152,-0.360,-0.050
6153,-0.385,-0.045
6154,-0.380,-0.045
6155,-0.375,-0.040
6156,-0.360,-0.055
6157,-0.360,-0.055
6158,-0.370,-0.065
6159,-0.375,-0.065
6160,-0.370,-0.055
6161,-0.370,-0.045
6162,-0.375,-0.050
6163,-0.360,-0.060
6164,-0.355,-0.065
6165,-0.370,-0.060
6166,-0.355,-0.050
6167,-0.350,-0.055
6168,-0.340,-0.050
6169,-0.340,-0.055
6170,-0.335,-0.070
6171,-0.345,-0.065
6172,-0.345,-0.060
6173,-0.320,-0.055
6174,-0.320,-0.055
6175,-0.315,-0.075
6176,-0.340,-0.095
6177,-0.340,-0.100
6178,-0.340,-0.090
6179,-0.335,-0.080
6180,-0.335,-0.090
6181,-0.340,-0.090
6182,-0.330,-0.100
6183,-0.310,-0.120
6184,-0.230,-0.140
6185,-0.090,-0.180
6186,0.060,-0.255
6187,0.215,-0.320
6188,0.380,-0.400
6189,0.560,-0.470
6190,0.735,-0.485
6191,0.910,-0.475
6192,1.015,-0.430
6193,1.110,-0.380
6194,1.155,-0.345
6195,1.180,-0.330
6196,1.135,-0.325
6197,1.020,-0.290
6198,0.865,-0.265
6199,0.740,-0.240
6200,0.640,-0.235
6201,0.525,-0.195
6202,0.370,-0.150
6203,0.210,-0.125
6204,0.110,-0.120
6205,0.040,-0.105
6206,-0.025,-0.100
6207,-0.115,-0.075
6208,-0.195,-0.055
6209,-0.255,-0.035
6210,-0.295,-0.030
6211,-0.335,-0.025
6212,-0.390,-0.005
6213,-0.425,0.000
6214,-0.460,0.015
6215,-0.465,0.035
6216,-0.485,0.025
6217,-0.505,0.000
6218,-0.520,0.000
6219,-0.540,0.000
6220,-0.540,0.010
6221,-0.540,0.010
6222,-0.545,0.015
6223,-0.530,-0.010
6224,-0.540,-0.015
6225,-0.540,-0.005
6226,-0.540,0.010
6227,-0.515,0.010
6228,-0.510,0.015
6229,-0.510,0.005
6230,-0.520,-0.015
6231,-0.530,-0.015
6232,-0.535,0.000
6233,-0.530,0.005
6234,-0.510,0.005
6235,-0.505,-0.005
6236,-0.520,-0.005
6237,-0.535,0.000
6238,-0.510,0.020
6239,-0.510,0.030
6240,-0.500,0.010
6241,-0.500,0.015
6242,-0.520,0.005
6243,-0.525,-0.005
6244,-0.525,0.010
6245,-0.490,0.025
6246,-0.485,0.025
6247,-0.500,0.015
6248,-0.505,0.005
6249,-0.510,0.000
6250,-0.515,0.010
6251,-0.505,0.020
6252,-0.500,0.015
6253,-0.505,0.025
6254,-0.525,0.015
6255,-0.535,0.005
6256,-0.520,0.030
6257,-0.520,0.035
6258,-0.530,0.050
6259,-0.515,0.040
6260,-0.520,0.020
6261,-0.520,0.035
6262,-0.510,0.045
6263,-0.505,0.055
6264,-0.505,0.050
6265,-0.500,0.035
6266,-0.505,0.035
6267,-0.520,0.035
6268,-0.510,0.050
6269,-0.495,0.055
6270,-0.475,0.050
6271,-0.475,0.050
6272,-0.480,0.050
6273,-0.490,0.045
6274,-0.480,0.060
6275,-0.475,0.055
6276,-0.455,0.055
6277,-0.455,0.050
6278,-0.450,0.055
6279,-0.430,0.050
6280,-0.420,0.060
6281,-0.400,0.065
6282,-0.385,0.075
6283,-0.370,0.060
6284,-0.375,0.055
6285,-0.380,0.040
6286,-0.350,0.060
6287,-0.325,0.060
6288,-0.305,0.060
6289,-0.300,0.050
6290,-0.280,0.040
6291,-0.295,0.040
6292,-0.270,0.035
6293,-0.255,0.040
6294,-0.230,0.040
6295,-0.225,0.025
6296,-0.215,0.025
6297,-0.230,0.035
6298,-0.205,0.035
6299,-0.200,0.040
6300,-0.205,0.025
6301,-0.210,0.015
6302,-0.215,0.010
6303,-0.215,0.015
6304,-0.220,0.030
6305,-0.220,0.035
6306,-0.225,0.035
6307,-0.230,0.015
6308,-0.255,0.015
6309,-0.255,0.010
6310,-0.255,0.015
6311,-0.245,0.020
6312,-0.245,0.020
6313,-0.250,0.020
6314,-0.275,0.015
6315,-0.295,0.020
6316,-0.285,0.015
6317,-0.285,0.025
6318,-0.275,0.025
6319,-0.280,0.010
6320,-0.290,0.000
6321,-0.315,0.005
6322,-0.305,0.020
6323,-0.300,0.030
6324,-0.290,0.020
6325,-0.295,0.015
6326,-0.295,0.000
6327,-0.300,0.010
6328,-0.295,0.005
6329,-0.280,0.020
6330,-0.275,0.010
6331,-0.285,0.010
6332,-0.290,0.010
6333,-0.305,-0.010
6334,-0.300,0.015
6335,-0.290,0.015
6336,-0.300,0.005
6337,-0.305,-0.005
6338,-0.300,-0.005
6339,-0.310,-0.025
6340,-0.300,0.005
6341,-0.290,0.010
6342,-0.295,0.000
6343,-0.290,0.000
6344,-0.295,-0.010
6345,-0.300,-0.020
6346,-0.290,-0.020
6347,-0.285,-0.005
6348,-0.280,-0.015
6349,-0.280,-0.015
6350,-0.290,-0.025
6351,-0.295,-0.015
6352,-0.295,-0.020
6353,-0.290,-0.010
6354,-0.285,-0.020
6355,-0.285,-0.030
6356,-0.290,-0.030
6357,-0.305,-0.030
6358,-0.305,-0.015
6359,-0.290,-0.010
6360,-0.290,-0.015
6361,-0.290,-0.025
6362,-0.300,-0.030
6363,-0.305,-0.030
6364,-0.310,-0.025
6365,-0.285,-0.010
6366,-0.295,-0.020
6367,-0.300,-0.030
6368,-0.290,-0.035
6369,-0.295,-0.030
6370,-0.280,-0.025
6371,-0.285,-0.025
6372,-0.280,-0.025
6373,-0.290,-0.035
6374,-0.295,-0.035
6375,-0.290,-0.035
6376,-0.280,-0.020
6377,-0.285,-0.015
6378,-0.295,-0.025
6379,-0.300,-0.025
6380,-0.300,-0.040
6381,-0.300,-0.035
6382,-0.285,-0.030
6383,-0.270,-0.020
6384,-0.270,-0.020
6385,-0.270,-0.030
6386,-0.285,-0.025
6387,-0.300,-0.035
6388,-0.300,-0.030
6389,-0.305,-0.020
6390,-0.300,-0.020
6391,-0.290,-0.020
6392,-0.280,-0.005
6393,-0.285,0.005
6394,-0.265,0.040
6395,-0.245,0.065
6396,-0.230,0.065
6397,-0.210,0.065
6398,-0.190,0.035
6399,-0.195,0.035
6400,-0.185,0.045
6401,-0.195,0.065
6402,-0.195,0.055
6403,-0.190,0.020
6404,-0.165,0.005
6405,-0.160,-0.010
6406,-0.130,0.005
6407,-0.105,0.020
6408,-0.100,0.015
6409,-0.100,0.005
6410,-0.100,-0.025
6411,-0.090,-0.025
6412,-0.085,-0.020
6413,-0.080,-0.005
6414,-0.085,-0.005
6415,-0.090,-0.020
6416,-0.115,-0.030
6417,-0.120,-0.025
6418,-0.140,-0.020
6419,-0.140,-0.020
6420,-0.180,-0.020
6421,-0.220,-0.040
6422,-0.270,-0.040
6423,-0.325,-0.050
6424,-0.350,-0.050
6425,-0.340,-0.045
6426,-0.335,-0.055
6427,-0.345,-0.055
6428,-0.355,-0.070
6429,-0.375,-0.055
6430,-0.365,-0.045
6431,-0.350,-0.035
6432,-0.335,-0.045
6433,-0.335,-0.045
6434,-0.340,-0.050
6435,-0.360,-0.060
6436,-0.350,-0.050
6437,-0.345,-0.030
6438,-0.335,-0.040
6439,-0.330,-0.055
6440,-0.335,-0.065
6441,-0.345,-0.060
6442,-0.340,-0.040
6443,-0.330,-0.040
6444,-0.320,-0.025
6445,-0.325,-0.040
6446,-0.325,-0.050
6447,-0.330,-0.050
6448,-0.330,-0.055
6449,-0.315,-0.040
6450,-0.315,-0.065
6451,-0.310,-0.090
6452,-0.315,-0.100
6453,-0.330,-0.105
6454,-0.340,-0.090
6455,-0.340,-0.095
6456,-0.310,-0.115
6457,-0.275,-0.160
6458,-0.210,-0.225
6459,-0.090,-0.305
6460,0.080,-0.370
6461,0.265,-0.430
6462,0.470,-0.520
6463,0.680,-0.550
6464,0.845,-0.545
6465,0.965,-0.510
6466,1.085,-0.450
6467,1.160,-0.375
6468,1.210,-0.375
6469,1.195,-0.375
6470,1.080,-0.355
6471,0.940,-0.305
6472,0.840,-0.270
6473,0.760,-0.225
6474,0.675,-0.195
6475,0.540,-0.180
6476,0.380,-0.140
6477,0.245,-0.125
6478,0.175,-0.090
6479,0.115,-0.065
6480,0.040,-0.050
6481,-0.065,-0.045
6482,-0.170,-0.040
6483,-0.255,-0.020
6484,-0.305,-0.005
6485,-0.330,0.035
6486,-0.375,0.040
6487,-0.425,0.045
6488,-0.460,0.040
6489,-0.480,0.055
6490,-0.485,0.050
6491,-0.500,0.055
6492,-0.510,0.055
6493,-0.540,0.030
6494,-0.535,0.025
6495,-0.550,0.020
6496,-0.545,0.045
6497,-0.535,0.055
6498,-0.535,0.055
6499,-0.530,0.040
6500,-0.550,0.040
6501,-0.550,0.050
6502,-0.535,0.050
6503,-0.525,0.065
6504,-0.515,0.065
6505,-0.520,0.045
6506,-0.525,0.045
6507,-0.535,0.045
6508,-0.525,0.065
6509,-0.510,0.065
6510,-0.505,0.060
6511,-0.500,0.050
6512,-0.510,0.050
6513,-0.530,0.055
6514,-0.505,0.070
6515,-0.520,0.070
6516,-0.505,0.065
6517,-0.515,0.065
6518,-0.530,0.050
6519,-0.540,0.050
6520,-0.525,0.055
6521,-0.520,0.070
6522,-0.510,0.070
6523,-0.515,0.060
6524,-0.520,0.055
6525,-0.530,0.055
6526,-0.515,0.075
6527,-0.510,0.075
6528,-0.515,0.070
6529,-0.535,0.055
6530,-0.540,0.055
6531,-0.540,0.055
6532,-0.535,0.075
6533,-0.505,0.095
6534,-0.510,0.080
6535,-0.520,0.070
6536,-0.525,0.065
6537,-0.545,0.065
6538,-0.545,0.090
6539,-0.525,0.085
6540,-0.505,0.095
6541,-0.500,0.095
6542,-0.505,0.085
6543,-0.520,0.080
6544,-0.510,0.095
6545,-0.500,0.105
6546,-0.485,0.105
6547,-0.480,0.080
6548,-0.475,0.085
6549,-0.470,0.085
6550,-0.445,0.105
6551,-0.435,0.120
6552,-0.410,0.095
6553,-0.415,0.100
6554,-0.410,0.100
6555,-0.415,0.095
6556,-0.390,0.110
6557,-0.370,0.115
6558,-0.355,0.110
6559,-0.350,0.090
6560,-0.345,0.095
6561,-0.335,0.100
6562,-0.300,0.105
6563,-0.285,0.115
6564,-0.250,0.100
6565,-0.245,0.090
6566,-0.250,0.080
6567,-0.245,0.080
6568,-0.225,0.090
6569,-0.205,0.100
6570,-0.175,0.080
6571,-0.170,0.070
6572,-0.170,0.060
6573,-0.175,0.055
6574,-0.170,0.055
6575,-0.160,0.060
6576,-0.180,0.050
6577,-0.170,0.050
6578,-0.185,0.040
6579,-0.200,0.035
6580,-0.200,0.035
6581,-0.200,0.035
6582,-0.200,0.025
6583,-0.200,0.020
6584,-0.220,0.025
6585,-0.220,0.030
6586,-0.230,0.040
6587,-0.235,0.045
6588,-0.235,0.035
6589,-0.255,0.040
6590,-0.250,0.010
6591,-0.265,0.010
6592,-0.265,0.015
6593,-0.245,0.030
6594,-0.245,0.025
6595,-0.265,0.030
6596,-0.285,0.010
6597,-0.295,0.015
6598,-0.300,0.030
6599,-0.280,0.045
6600,-0.285,0.040
6601,-0.285,0.035
6602,-0.300,0.020
6603,-0.310,0.015
6604,-0.300,0.035
6605,-0.295,0.035
6606,-0.290,0.030
6607,-0.305,0.030
6608,-0.315,0.015
6609,-0.320,0.025
6610,-0.295,0.035
6611,-0.285,0.040
6612,-0.280,0.030
6613,-0.290,0.020
6614,-0.310,0.010
6615,-0.315,-0.005
6616,-0.315,0.010
6617,-0.310,0.030
6618,-0.310,0.015
6619,-0.325,0.010
6620,-0.310,0.005
6621,-0.335,0.000
6622,-0.320,0.010
6623,-0.300,0.010
6624,-0.295,0.000
6625,-0.320,-0.005
6626,-0.330,-0.015
6627,-0.335,-0.010
6628,-0.330,0.000
6629,-0.310,0.005
6630,-0.320,0.000
6631,-0.315,0.000
6632,-0.335,-0.015
6633,-0.330,-0.020
6634,-0.320,0.000
6635,-0.305,0.000
6636,-0.305,0.000
6637,-0.305,0.005
6638,-0.320,-0.010
6639,-0.330,-0.010
6640,-0.330,-0.005
6641,-0.320,0.000
6642,-0.300,0.000
6643,-0.310,0.000
6644,-0.315,-0.005
6645,-0.325,-0.010
6646,-0.300,-0.005
6647,-0.300,0.010
6648,-0.300,0.010
6649,-0.310,0.000
6650,-0.315,-0.005
6651,-0.325,-0.020
6652,-0.325,0.000
6653,-0.290,0.010
6654,-0.290,0.015
6655,-0.305,0.000
6656,-0.300,-0.010
6657,-0.315,-0.015
6658,-0.315,-0.005
6659,-0.295,0.000
6660,-0.285,-0.005
6661,-0.290,0.005
6662,-0.305,0.010
6663,-0.300,0.025
6664,-0.290,0.055
6665,-0.270,0.085
6666,-0.255,0.090
6667,-0.240,0.095
6668,-0.215,0.085
6669,-0.215,0.085
6670,-0.210,0.075
6671,-0.205,0.105
6672,-0.205,0.080
6673,-0.210,0.060
6674,-0.205,0.030
6675,-0.190,0.015
6676,-0.155,0.030
6677,-0.135,0.055
6678,-0.125,0.055
6679,-0.115,0.045
6680,-0.115,0.010
6681,-0.115,-0.005
6682,-0.105,-0.020
6683,-0.100,0.010
6684,-0.110,0.020
6685,-0.120,0.025
6686,-0.130,0.010
6687,-0.145,0.000
6688,-0.140,0.000
6689,-0.135,0.005
6690,-0.170,-0.015
6691,-0.220,-0.015
6692,-0.285,-0.030
6693,-0.345,-0.030
6694,-0.360,-0.010
6695,-0.360,-0.005
