'sample interval','MLII','V1'
'0.00277778 sec','mV','mV'
0,-0.010,-0.615
1,-0.010,-0.615
2,-0.010,-0.615
3,-0.010,-0.615
4,-0.010,-0.615
5,-0.010,-0.615
6,-0.010,-0.615
7,-0.010,-0.615
8,-0.010,-0.620
9,-0.035,-0.610
10,-0.070,-0.595
11,-0.100,-0.555
12,-0.125,-0.555
13,-0.150,-0.530
14,-0.160,-0.525
15,-0.175,-0.525
16,-0.180,-0.510
17,-0.195,-0.505
18,-0.225,-0.495
19,-0.255,-0.485
20,-0.310,-0.485
21,-0.340,-0.480
22,-0.370,-0.485
23,-0.385,-0.475
24,-0.400,-0.475
25,-0.405,-0.440
26,-0.395,-0.390
27,-0.395,-0.370
28,-0.390,-0.350
29,-0.395,-0.325
30,-0.385,-0.305
31,-0.390,-0.290
32,-0.395,-0.265
33,-0.395,-0.255
34,-0.415,-0.260
35,-0.410,-0.260
36,-0.400,-0.270
37,-0.355,-0.305
38,-0.320,-0.330
39,-0.275,-0.350
40,-0.215,-0.370
41,-0.160,-0.420
42,-0.135,-0.450
43,-0.120,-0.490
44,-0.115,-0.525
45,-0.105,-0.550
46,-0.090,-0.570
47,-0.080,-0.580
48,-0.075,-0.580
49,-0.050,-0.570
50,-0.055,-0.585
51,-0.085,-0.580
52,-0.130,-0.595
53,-0.190,-0.605
54,-0.265,-0.605
55,-0.325,-0.640
56,-0.380,-0.665
57,-0.425,-0.675
58,-0.450,-0.700
59,-0.465,-0.690
60,-0.500,-0.680
61,-0.500,-0.660
62,-0.500,-0.675
63,-0.490,-0.665
64,-0.475,-0.660
65,-0.470,-0.670
66,-0.475,-0.690
67,-0.485,-0.710
68,-0.485,-0.705
69,-0.505,-0.705
70,-0.505,-0.700
71,-0.510,-0.690
72,-0.495,-0.690
73,-0.490,-0.690
74,-0.485,-0.685
75,-0.480,-0.680
76,-0.500,-0.675
77,-0.505,-0.675
78,-0.500,-0.650
79,-0.490,-0.640
80,-0.490,-0.610
81,-0.485,-0.570
82,-0.505,-0.530
83,-0.530,-0.520
84,-0.560,-0.585
85,-0.560,-0.775
86,-0.505,-1.065
87,-0.380,-1.455
88,-0.175,-1.870
89,0.105,-2.240
90,0.445,-2.505
91,0.815,-2.680
92,1.215,-2.740
93,1.575,-2.735
94,1.855,-2.700
95,1.965,-2.650
96,1.880,-2.600
97,1.620,-2.545
98,1.260,-2.465
99,0.860,-2.370
100,0.430,-2.205
101,0.010,-1.965
102,-0.375,-1.655
103,-0.720,-1.380
104,-1.010,-1.160
105,-1.210,-1.030
106,-1.325,-0.970
107,-1.320,-0.930
108,-1.230,-0.915
109,-1.100,-0.880
110,-0.960,-0.860
111,-0.845,-0.820
112,-0.780,-0.785
113,-0.750,-0.765
114,-0.760,-0.755
115,-0.800,-0.750
116,-0.850,-0.760
117,-0.885,-0.765
118,-0.905,-0.760
119,-0.900,-0.745
120,-0.905,-0.730
121,-0.895,-0.715
122,-0.905,-0.705
123,-0.920,-0.685
124,-0.930,-0.665
125,-0.935,-0.665
126,-0.930,-0.650
127,-0.920,-0.660
128,-0.910,-0.655
129,-0.905,-0.645
130,-0.920,-0.650
131,-0.925,-0.640
132,-0.940,-0.615
133,-0.940,-0.610
134,-0.935,-0.590
135,-0.930,-0.580
136,-0.915,-0.555
137,-0.900,-0.530
138,-0.885,-0.510
139,-0.890,-0.510
140,-0.905,-0.505
141,-0.910,-0.505
142,-0.905,-0.490
143,-0.885,-0.460
144,-0.850,-0.440
145,-0.815,-0.405
146,-0.795,-0.385
147,-0.775,-0.365
148,-0.770,-0.355
149,-0.755,-0.345
150,-0.730,-0.330
151,-0.710,-0.345
152,-0.675,-0.315
153,-0.640,-0.315
154,-0.615,-0.310
155,-0.585,-0.280
156,-0.560,-0.280
157,-0.540,-0.260
158,-0.515,-0.255
159,-0.480,-0.250
160,-0.440,-0.235
161,-0.395,-0.235
162,-0.355,-0.225
163,-0.330,-0.220
164,-0.300,-0.225
165,-0.280,-0.240
166,-0.260,-0.255
167,-0.240,-0.260
168,-0.210,-0.270
169,-0.155,-0.270
170,-0.105,-0.260
171,-0.060,-0.255
172,-0.025,-0.270
173,0.010,-0.275
174,0.045,-0.300
175,0.070,-0.315
176,0.100,-0.350
177,0.150,-0.385
178,0.180,-0.400
179,0.220,-0.410
180,0.255,-0.420
181,0.275,-0.410
182,0.300,-0.390
183,0.310,-0.375
184,0.325,-0.360
185,0.360,-0.355
186,0.390,-0.350
187,0.400,-0.330
188,0.380,-0.330
189,0.365,-0.320
190,0.335,-0.325
191,0.300,-0.335
192,0.275,-0.350
193,0.250,-0.375
194,0.230,-0.375
195,0.185,-0.380
196,0.125,-0.370
197,0.090,-0.355
198,0.035,-0.335
199,-0.010,-0.330
200,-0.065,-0.310
201,-0.105,-0.290
202,-0.145,-0.270
203,-0.175,-0.245
204,-0.205,-0.215
205,-0.230,-0.205
206,-0.255,-0.200
207,-0.265,-0.210
208,-0.275,-0.225
209,-0.275,-0.260
210,-0.265,-0.295
211,-0.265,-0.335
212,-0.275,-0.370
213,-0.315,-0.375
214,-0.355,-0.405
215,-0.405,-0.400
216,-0.445,-0.410
217,-0.455,-0.425
218,-0.470,-0.430
219,-0.475,-0.455
220,-0.490,-0.475
221,-0.500,-0.490
222,-0.515,-0.505
223,-0.525,-0.510
224,-0.555,-0.520
225,-0.550,-0.535
226,-0.555,-0.545
227,-0.555,-0.570
228,-0.550,-0.575
229,-0.545,-0.575
230,-0.540,-0.570
231,-0.530,-0.580
232,-0.515,-0.580
233,-0.505,-0.575
234,-0.490,-0.590
235,-0.475,-0.585
236,-0.465,-0.595
237,-0.480,-0.565
238,-0.490,-0.555
239,-0.520,-0.545
240,-0.540,-0.555
241,-0.550,-0.625
242,-0.535,-0.775
243,-0.480,-1.030
244,-0.375,-1.325
245,-0.210,-1.655
246,0.005,-1.955
247,0.290,-2.200
248,0.655,-2.370
249,1.080,-2.455
250,1.510,-2.505
251,1.865,-2.525
252,2.110,-2.530
253,2.175,-2.520
254,2.065,-2.530
255,1.815,-2.530
256,1.510,-2.500
257,1.155,-2.410
258,0.775,-2.195
259,0.410,-1.890
260,0.045,-1.550
261,-0.360,-1.260
262,-0.720,-1.065
263,-1.000,-0.945
264,-1.140,-0.895
265,-1.165,-0.880
266,-1.060,-0.870
267,-0.920,-0.855
268,-0.795,-0.825
269,-0.715,-0.815
270,-0.705,-0.795
271,-0.745,-0.795
272,-0.800,-0.790
273,-0.870,-0.800
274,-0.895,-0.785
275,-0.910,-0.780
276,-0.930,-0.755
277,-0.910,-0.735
278,-0.905,-0.720
279,-0.920,-0.705
280,-0.930,-0.690
281,-0.950,-0.675
282,-0.955,-0.660
283,-0.975,-0.645
284,-0.990,-0.630
285,-1.025,-0.625
286,-1.040,-0.625
287,-1.065,-0.620
288,-1.070,-0.605
289,-1.080,-0.590
290,-1.065,-0.560
291,-1.055,-0.540
292,-1.050,-0.510
293,-1.045,-0.495
294,-1.065,-0.495
295,-1.065,-0.485
296,-1.090,-0.490
297,-1.105,-0.480
298,-1.110,-0.445
299,-1.100,-0.430
300,-1.100,-0.405
301,-1.100,-0.380
302,-1.075,-0.360
303,-1.065,-0.355
304,-1.045,-0.345
305,-1.025,-0.345
306,-1.000,-0.320
307,-0.980,-0.325
308,-0.945,-0.300
309,-0.915,-0.305
310,-0.895,-0.295
311,-0.880,-0.305
312,-0.850,-0.315
313,-0.805,-0.320
314,-0.750,-0.310
315,-0.695,-0.305
316,-0.630,-0.290
317,-0.590,-0.300
318,-0.550,-0.290
319,-0.515,-0.310
320,-0.505,-0.355
321,-0.450,-0.380
322,-0.400,-0.400
323,-0.365,-0.410
324,-0.315,-0.425
325,-0.275,-0.440
326,-0.230,-0.440
327,-0.185,-0.460
328,-0.145,-0.485
329,-0.105,-0.500
330,-0.060,-0.530
331,-0.020,-0.540
332,0.000,-0.560
333,-0.015,-0.560
334,-0.015,-0.565
335,-0.020,-0.560
336,-0.015,-0.575
337,-0.005,-0.580
338,0.000,-0.585
339,0.000,-0.585
340,-0.005,-0.570
341,-0.015,-0.570
342,-0.040,-0.575
343,-0.075,-0.575
344,-0.090,-0.590
345,-0.110,-0.595
346,-0.135,-0.610
347,-0.170,-0.600
348,-0.195,-0.590
349,-0.205,-0.575
350,-0.240,-0.555
351,-0.245,-0.540
352,-0.250,-0.525
353,-0.250,-0.535
354,-0.260,-0.555
355,-0.295,-0.545
356,-0.325,-0.530
357,-0.355,-0.525
358,-0.390,-0.520
359,-0.410,-0.495
360,-0.430,-0.480
361,-0.435,-0.465
362,-0.455,-0.455
363,-0.460,-0.440
364,-0.495,-0.425
365,-0.490,-0.425
366,-0.515,-0.420
367,-0.530,-0.420
368,-0.545,-0.435
369,-0.555,-0.455
370,-0.575,-0.445
371,-0.575,-0.450
372,-0.600,-0.450
373,-0.600,-0.450
374,-0.605,-0.445
375,-0.605,-0.455
376,-0.585,-0.455
377,-0.555,-0.455
378,-0.555,-0.465
379,-0.555,-0.475
380,-0.565,-0.475
381,-0.590,-0.485
382,-0.600,-0.485
383,-0.600,-0.500
384,-0.605,-0.515
385,-0.595,-0.515
386,-0.595,-0.520
387,-0.575,-0.520
388,-0.595,-0.515
389,-0.590,-0.500
390,-0.585,-0.505
391,-0.590,-0.510
392,-0.600,-0.510
393,-0.600,-0.520
394,-0.595,-0.535
395,-0.605,-0.555
396,-0.630,-0.560
397,-0.630,-0.540
398,-0.625,-0.535
399,-0.595,-0.530
400,-0.580,-0.525
401,-0.560,-0.515
402,-0.565,-0.525
403,-0.575,-0.535
404,-0.600,-0.535
405,-0.620,-0.550
406,-0.640,-0.545
407,-0.615,-0.535
408,-0.610,-0.520
409,-0.600,-0.490
410,-0.580,-0.465
411,-0.575,-0.435
412,-0.565,-0.415
413,-0.555,-0.370
414,-0.550,-0.325
415,-0.545,-0.280
416,-0.555,-0.250
417,-0.555,-0.230
418,-0.545,-0.250
419,-0.555,-0.285
420,-0.550,-0.325
421,-0.535,-0.365
422,-0.495,-0.395
423,-0.455,-0.405
424,-0.405,-0.415
425,-0.365,-0.430
426,-0.340,-0.455
427,-0.325,-0.475
428,-0.320,-0.500
429,-0.315,-0.530
430,-0.315,-0.550
431,-0.300,-0.545
432,-0.290,-0.525
433,-0.280,-0.525
434,-0.285,-0.525
435,-0.290,-0.540
436,-0.305,-0.555
437,-0.340,-0.590
438,-0.390,-0.600
439,-0.445,-0.625
440,-0.500,-0.640
441,-0.565,-0.640
442,-0.615,-0.645
443,-0.660,-0.635
444,-0.695,-0.645
445,-0.700,-0.650
446,-0.680,-0.645
447,-0.665,-0.630
448,-0.645,-0.620
449,-0.625,-0.620
450,-0.630,-0.620
451,-0.630,-0.625
452,-0.655,-0.630
453,-0.665,-0.655
454,-0.675,-0.660
455,-0.680,-0.675
456,-0.675,-0.665
457,-0.665,-0.650
458,-0.660,-0.635
459,-0.660,-0.620
460,-0.660,-0.605
461,-0.660,-0.580
462,-0.675,-0.565
463,-0.665,-0.520
464,-0.680,-0.475
465,-0.685,-0.440
466,-0.720,-0.475
467,-0.745,-0.585
468,-0.735,-0.805
469,-0.670,-1.130
470,-0.530,-1.510
471,-0.295,-1.895
472,-0.010,-2.235
473,0.350,-2.505
474,0.770,-2.685
475,1.220,-2.770
476,1.610,-2.790
477,1.885,-2.770
478,1.975,-2.720
479,1.865,-2.660
480,1.580,-2.575
481,1.195,-2.460
482,0.755,-2.250
483,0.310,-1.935
484,-0.110,-1.560
485,-0.520,-1.235
486,-0.880,-1.000
487,-1.150,-0.870
488,-1.310,-0.830
489,-1.320,-0.835
490,-1.235,-0.845
491,-1.110,-0.840
492,-0.985,-0.845
493,-0.895,-0.810
494,-0.860,-0.795
495,-0.875,-0.780
496,-0.910,-0.755
497,-0.955,-0.735
498,-0.995,-0.715
499,-1.020,-0.710
500,-1.025,-0.710
501,-1.020,-0.720
502,-1.020,-0.720
503,-1.030,-0.720
504,-1.040,-0.695
505,-1.055,-0.675
506,-1.070,-0.640
507,-1.080,-0.630
508,-1.085,-0.605
509,-1.085,-0.600
510,-1.075,-0.600
511,-1.080,-0.590
512,-1.085,-0.585
513,-1.100,-0.590
514,-1.120,-0.575
515,-1.125,-0.570
516,-1.125,-0.545
517,-1.125,-0.540
518,-1.110,-0.540
519,-1.085,-0.525
520,-1.065,-0.490
521,-1.085,-0.470
522,-1.070,-0.470
523,-1.050,-0.460
524,-1.045,-0.445
525,-1.030,-0.450
526,-1.025,-0.460
527,-1.005,-0.440
528,-0.990,-0.420
529,-0.990,-0.400
530,-0.975,-0.370
531,-0.950,-0.330
532,-0.920,-0.305
533,-0.890,-0.300
534,-0.855,-0.285
535,-0.820,-0.280
536,-0.825,-0.285
537,-0.805,-0.265
538,-0.795,-0.245
539,-0.770,-0.215
540,-0.750,-0.190
541,-0.705,-0.180
542,-0.645,-0.145
543,-0.615,-0.140
544,-0.580,-0.120
545,-0.545,-0.115
546,-0.510,-0.105
547,-0.485,-0.100
548,-0.440,-0.090
549,-0.400,-0.095
550,-0.375,-0.090
551,-0.345,-0.080
552,-0.315,-0.070
553,-0.295,-0.070
554,-0.265,-0.075
555,-0.220,-0.055
556,-0.175,-0.045
557,-0.130,-0.045
558,-0.085,-0.050
559,-0.055,-0.060
560,-0.020,-0.085
561,0.000,-0.100
562,0.015,-0.110
563,0.030,-0.120
564,0.055,-0.140
565,0.085,-0.155
566,0.135,-0.170
567,0.140,-0.190
568,0.180,-0.215
569,0.185,-0.225
570,0.190,-0.275
571,0.185,-0.285
572,0.200,-0.325
573,0.220,-0.340
574,0.215,-0.375
575,0.215,-0.395
576,0.195,-0.405
577,0.190,-0.420
578,0.165,-0.435
579,0.155,-0.425
580,0.150,-0.425
581,0.155,-0.435
582,0.125,-0.445
583,0.105,-0.450
584,0.085,-0.470
585,0.045,-0.485
586,0.000,-0.485
587,-0.035,-0.490
588,-0.050,-0.470
589,-0.090,-0.450
590,-0.105,-0.450
591,-0.130,-0.430
592,-0.145,-0.440
593,-0.170,-0.445
594,-0.205,-0.440
595,-0.235,-0.435
596,-0.265,-0.435
597,-0.275,-0.430
598,-0.300,-0.435
599,-0.320,-0.435
600,-0.350,-0.420
601,-0.360,-0.420
602,-0.375,-0.410
603,-0.380,-0.395
604,-0.360,-0.370
605,-0.345,-0.340
606,-0.345,-0.320
607,-0.335,-0.285
608,-0.350,-0.270
609,-0.375,-0.255
610,-0.390,-0.255
611,-0.400,-0.255
612,-0.390,-0.255
613,-0.370,-0.270
614,-0.340,-0.280
615,-0.310,-0.295
616,-0.285,-0.320
617,-0.250,-0.355
618,-0.230,-0.400
619,-0.215,-0.440
620,-0.200,-0.500
621,-0.180,-0.520
622,-0.160,-0.530
623,-0.155,-0.540
624,-0.150,-0.535
625,-0.145,-0.545
626,-0.150,-0.545
627,-0.140,-0.550
628,-0.145,-0.550
629,-0.160,-0.570
630,-0.200,-0.580
631,-0.250,-0.590
632,-0.315,-0.600
633,-0.400,-0.610
634,-0.455,-0.635
635,-0.505,-0.655
636,-0.540,-0.670
637,-0.550,-0.675
638,-0.575,-0.675
639,-0.560,-0.655
640,-0.565,-0.650
641,-0.570,-0.645
642,-0.565,-0.660
643,-0.570,-0.665
644,-0.580,-0.680
645,-0.575,-0.695
646,-0.580,-0.700
647,-0.585,-0.705
648,-0.605,-0.690
649,-0.605,-0.685
650,-0.595,-0.690
651,-0.585,-0.695
652,-0.570,-0.685
653,-0.565,-0.700
654,-0.545,-0.700
655,-0.545,-0.685
656,-0.555,-0.665
657,-0.565,-0.640
658,-0.585,-0.595
659,-0.595,-0.560
660,-0.610,-0.520
661,-0.620,-0.545
662,-0.630,-0.635
663,-0.620,-0.825
664,-0.555,-1.105
665,-0.415,-1.465
666,-0.210,-1.870
667,0.035,-2.240
668,0.345,-2.545
669,0.690,-2.780
670,1.060,-2.895
671,1.430,-2.940
672,1.745,-2.930
673,1.900,-2.885
674,1.850,-2.815
675,1.635,-2.745
676,1.290,-2.665
677,0.855,-2.550
678,0.395,-2.335
679,-0.045,-1.995
680,-0.445,-1.610
681,-0.770,-1.280
682,-1.040,-1.065
683,-1.220,-0.945
684,-1.310,-0.890
685,-1.300,-0.900
686,-1.190,-0.900
687,-1.060,-0.895
688,-0.930,-0.875
689,-0.845,-0.850
690,-0.805,-0.840
691,-0.820,-0.825
692,-0.845,-0.820
693,-0.885,-0.810
694,-0.920,-0.800
695,-0.950,-0.810
696,-0.965,-0.800
697,-0.975,-0.770
698,-0.990,-0.765
699,-0.980,-0.750
700,-0.985,-0.735
701,-0.965,-0.725
702,-0.965,-0.725
703,-0.965,-0.720
704,-0.985,-0.710
705,-0.995,-0.710
706,-1.030,-0.695
707,-1.050,-0.680
708,-1.060,-0.665
709,-1.055,-0.670
710,-1.060,-0.640
711,-1.055,-0.620
712,-1.065,-0.625
713,-1.055,-0.605
714,-1.060,-0.605
715,-1.060,-0.590
716,-1.055,-0.570
717,-1.045,-0.560
718,-1.040,-0.560
719,-1.050,-0.550
720,-1.055,-0.540
721,-1.060,-0.510
722,-1.055,-0.505
723,-1.035,-0.470
724,-1.015,-0.450
725,-0.995,-0.425
726,-0.955,-0.410
727,-0.925,-0.405
728,-0.910,-0.400
729,-0.910,-0.395
730,-0.875,-0.390
731,-0.870,-0.375
732,-0.835,-0.365
733,-0.795,-0.330
734,-0.745,-0.305
735,-0.705,-0.295
736,-0.655,-0.280
737,-0.635,-0.265
738,-0.600,-0.260
739,-0.570,-0.255
740,-0.535,-0.250
741,-0.505,-0.245
742,-0.460,-0.225
743,-0.410,-0.230
744,-0.370,-0.215
745,-0.335,-0.220
746,-0.285,-0.220
747,-0.245,-0.225
748,-0.205,-0.235
749,-0.155,-0.235
750,-0.105,-0.240
751,-0.055,-0.240
752,-0.025,-0.245
753,0.000,-0.245
754,0.020,-0.265
755,0.040,-0.290
756,0.060,-0.315
757,0.090,-0.345
758,0.120,-0.350
759,0.155,-0.350
760,0.185,-0.350
761,0.210,-0.350
762,0.210,-0.370
763,0.200,-0.395
764,0.210,-0.410
765,0.185,-0.440
766,0.200,-0.460
767,0.195,-0.470
768,0.190,-0.465
769,0.190,-0.485
770,0.170,-0.500
771,0.160,-0.515
772,0.140,-0.515
773,0.135,-0.525
774,0.120,-0.555
775,0.100,-0.555
776,0.095,-0.560
777,0.075,-0.565
778,0.040,-0.580
779,0.005,-0.585
780,-0.025,-0.590
781,-0.050,-0.585
782,-0.075,-0.575
783,-0.080,-0.565
784,-0.095,-0.555
785,-0.095,-0.540
786,-0.115,-0.545
787,-0.145,-0.530
788,-0.180,-0.530
789,-0.210,-0.550
790,-0.245,-0.545
791,-0.270,-0.540
792,-0.275,-0.530
793,-0.305,-0.515
794,-0.325,-0.495
795,-0.345,-0.475
796,-0.365,-0.455
797,-0.380,-0.445
798,-0.390,-0.445
799,-0.400,-0.450
800,-0.410,-0.445
801,-0.420,-0.425
802,-0.435,-0.400
803,-0.445,-0.380
804,-0.470,-0.355
805,-0.485,-0.330
806,-0.490,-0.305
807,-0.495,-0.270
808,-0.485,-0.250
809,-0.475,-0.260
810,-0.450,-0.270
811,-0.435,-0.295
812,-0.430,-0.325
813,-0.410,-0.370
814,-0.385,-0.405
815,-0.345,-0.445
816,-0.320,-0.470
817,-0.290,-0.505
818,-0.260,-0.535
819,-0.240,-0.555
820,-0.225,-0.550
821,-0.215,-0.555
822,-0.195,-0.570
823,-0.190,-0.585
824,-0.185,-0.595
825,-0.190,-0.620
826,-0.195,-0.615
827,-0.215,-0.640
828,-0.260,-0.640
829,-0.320,-0.645
830,-0.375,-0.645
831,-0.435,-0.645
832,-0.470,-0.650
833,-0.505,-0.655
834,-0.540,-0.670
835,-0.570,-0.685
836,-0.590,-0.695
837,-0.620,-0.715
838,-0.630,-0.720
839,-0.630,-0.730
840,-0.635,-0.720
841,-0.610,-0.715
842,-0.600,-0.705
843,-0.595,-0.715
844,-0.580,-0.705
845,-0.590,-0.695
846,-0.595,-0.700
847,-0.610,-0.690
848,-0.605,-0.720
849,-0.615,-0.730
850,-0.610,-0.735
851,-0.595,-0.760
852,-0.595,-0.745
853,-0.595,-0.750
854,-0.590,-0.735
855,-0.590,-0.720
856,-0.580,-0.685
857,-0.570,-0.630
858,-0.565,-0.605
859,-0.570,-0.560
860,-0.585,-0.565
861,-0.605,-0.655
862,-0.605,-0.835
863,-0.580,-1.145
864,-0.460,-1.535
865,-0.270,-1.965
866,-0.025,-2.340
867,0.295,-2.645
868,0.695,-2.855
869,1.095,-2.975
870,1.495,-3.035
871,1.820,-3.040
872,2.025,-3.040
873,2.055,-3.025
874,1.890,-2.995
875,1.585,-2.950
876,1.175,-2.895
877,0.720,-2.795
878,0.265,-2.605
879,-0.140,-2.290
880,-0.485,-1.900
881,-0.770,-1.510
882,-0.985,-1.205
883,-1.125,-1.030
884,-1.185,-0.955
885,-1.155,-0.965
886,-1.075,-0.985
887,-0.975,-0.995
888,-0.865,-0.995
889,-0.775,-0.955
890,-0.720,-0.925
891,-0.730,-0.890
892,-0.730,-0.865
893,-0.755,-0.860
894,-0.780,-0.845
895,-0.800,-0.840
896,-0.820,-0.850
897,-0.850,-0.860
898,-0.865,-0.845
899,-0.865,-0.825
900,-0.860,-0.805
901,-0.855,-0.790
902,-0.855,-0.765
903,-0.855,-0.745
904,-0.850,-0.745
905,-0.860,-0.735
906,-0.860,-0.720
907,-0.865,-0.700
908,-0.885,-0.700
909,-0.880,-0.690
910,-0.885,-0.685
911,-0.890,-0.675
912,-0.905,-0.660
913,-0.910,-0.660
914,-0.915,-0.640
915,-0.915,-0.625
916,-0.910,-0.600
917,-0.890,-0.565
918,-0.875,-0.560
919,-0.860,-0.545
920,-0.855,-0.540
921,-0.870,-0.550
922,-0.870,-0.545
923,-0.860,-0.545
924,-0.845,-0.520
925,-0.825,-0.510
926,-0.790,-0.480
927,-0.760,-0.445
928,-0.725,-0.415
929,-0.700,-0.390
930,-0.690,-0.380
931,-0.665,-0.380
932,-0.640,-0.380
933,-0.610,-0.365
934,-0.580,-0.355
935,-0.550,-0.345
936,-0.520,-0.315
937,-0.485,-0.290
938,-0.450,-0.270
939,-0.420,-0.265
940,-0.380,-0.255
941,-0.345,-0.245
942,-0.305,-0.250
943,-0.270,-0.240
944,-0.225,-0.230
945,-0.210,-0.215
946,-0.175,-0.235
947,-0.150,-0.245
948,-0.125,-0.235
949,-0.085,-0.210
950,-0.035,-0.220
951,0.025,-0.225
952,0.080,-0.200
953,0.120,-0.200
954,0.155,-0.215
955,0.180,-0.235
956,0.195,-0.250
957,0.210,-0.270
958,0.235,-0.295
959,0.265,-0.335
960,0.280,-0.340
961,0.290,-0.345
962,0.305,-0.365
963,0.300,-0.360
964,0.305,-0.375
965,0.325,-0.395
966,0.330,-0.435
967,0.340,-0.450
968,0.335,-0.470
969,0.320,-0.485
970,0.305,-0.505
971,0.270,-0.525
972,0.240,-0.525
973,0.225,-0.530
974,0.210,-0.525
975,0.225,-0.555
976,0.225,-0.560
977,0.215,-0.565
978,0.195,-0.580
979,0.160,-0.575
980,0.110,-0.580
981,0.075,-0.605
982,0.040,-0.610
983,0.025,-0.630
984,-0.005,-0.625
985,-0.030,-0.620
986,-0.045,-0.610
987,-0.060,-0.590
988,-0.065,-0.565
989,-0.080,-0.565
990,-0.115,-0.565
991,-0.140,-0.565
992,-0.160,-0.565
993,-0.200,-0.570
994,-0.235,-0.555
995,-0.290,-0.550
996,-0.315,-0.540
997,-0.345,-0.525
998,-0.370,-0.515
999,-0.375,-0.510
1000,-0.380,-0.495
1001,-0.380,-0.510
1002,-0.390,-0.480
1003,-0.420,-0.475
1004,-0.460,-0.460
1005,-0.460,-0.450
1006,-0.460,-0.450
1007,-0.480,-0.425
1008,-0.465,-0.410
1009,-0.455,-0.400
1010,-0.465,-0.370
1011,-0.465,-0.345
1012,-0.465,-0.305
1013,-0.470,-0.290
1014,-0.475,-0.285
1015,-0.445,-0.300
1016,-0.430,-0.325
1017,-0.395,-0.350
1018,-0.355,-0.370
1019,-0.350,-0.375
1020,-0.325,-0.380
1021,-0.310,-0.385
1022,-0.275,-0.415
1023,-0.245,-0.440
1024,-0.190,-0.480
1025,-0.150,-0.525
1026,-0.120,-0.555
1027,-0.100,-0.590
1028,-0.105,-0.595
1029,-0.110,-0.595
1030,-0.130,-0.605
1031,-0.145,-0.600
1032,-0.180,-0.605
1033,-0.215,-0.620
1034,-0.265,-0.625
1035,-0.325,-0.640
1036,-0.390,-0.630
1037,-0.445,-0.655
1038,-0.505,-0.655
1039,-0.535,-0.665
1040,-0.565,-0.665
1041,-0.565,-0.680
1042,-0.570,-0.705
1043,-0.555,-0.705
1044,-0.565,-0.720
1045,-0.570,-0.715
1046,-0.570,-0.715
1047,-0.570,-0.705
1048,-0.565,-0.680
1049,-0.555,-0.685
1050,-0.545,-0.685
1051,-0.555,-0.705
1052,-0.565,-0.715
1053,-0.585,-0.730
1054,-0.590,-0.740
1055,-0.605,-0.735
1056,-0.590,-0.735
1057,-0.585,-0.700
1058,-0.560,-0.685
1059,-0.555,-0.645
1060,-0.560,-0.590
1061,-0.565,-0.540
1062,-0.585,-0.495
1063,-0.615,-0.485
1064,-0.620,-0.555
1065,-0.620,-0.715
1066,-0.590,-1.020
1067,-0.480,-1.380
1068,-0.305,-1.765
1069,-0.060,-2.100
1070,0.200,-2.375
1071,0.505,-2.530
1072,0.855,-2.625
1073,1.215,-2.655
1074,1.560,-2.630
1075,1.810,-2.600
1076,1.880,-2.540
1077,1.760,-2.465
1078,1.450,-2.405
1079,1.015,-2.295
1080,0.520,-2.140
1081,0.035,-1.895
1082,-0.390,-1.630
1083,-0.760,-1.390
1084,-1.055,-1.215
1085,-1.310,-1.120
1086,-1.460,-1.055
1087,-1.500,-1.000
1088,-1.430,-0.950
1089,-1.305,-0.900
1090,-1.150,-0.855
1091,-1.015,-0.810
1092,-0.930,-0.790
1093,-0.905,-0.775
1094,-0.910,-0.770
1095,-0.915,-0.760
1096,-0.935,-0.735
1097,-0.945,-0.740
1098,-0.970,-0.725
1099,-0.980,-0.715
1100,-0.995,-0.720
1101,-1.010,-0.725
1102,-1.015,-0.730
1103,-1.010,-0.720
1104,-1.015,-0.705
1105,-1.020,-0.690
1106,-1.015,-0.655
1107,-1.025,-0.660
1108,-1.025,-0.655
1109,-1.025,-0.645
1110,-1.020,-0.645
1111,-1.015,-0.645
1112,-1.015,-0.640
1113,-1.015,-0.620
1114,-1.020,-0.605
1115,-1.025,-0.590
1116,-1.045,-0.580
1117,-1.030,-0.580
1118,-1.020,-0.575
1119,-1.000,-0.570
1120,-0.975,-0.535
1121,-0.960,-0.520
1122,-0.945,-0.485
1123,-0.935,-0.470
1124,-0.935,-0.460
1125,-0.935,-0.455
1126,-0.910,-0.460
1127,-0.885,-0.465
1128,-0.855,-0.445
1129,-0.820,-0.420
1130,-0.790,-0.380
1131,-0.775,-0.355
1132,-0.745,-0.330
1133,-0.720,-0.315
1134,-0.695,-0.320
1135,-0.675,-0.330
1136,-0.625,-0.325
1137,-0.605,-0.325
1138,-0.595,-0.315
1139,-0.575,-0.300
1140,-0.560,-0.285
1141,-0.530,-0.285
1142,-0.470,-0.280
1143,-0.430,-0.290
1144,-0.375,-0.295
1145,-0.335,-0.295
1146,-0.295,-0.285
1147,-0.270,-0.290
1148,-0.250,-0.285
1149,-0.220,-0.300
1150,-0.180,-0.325
1151,-0.140,-0.340
1152,-0.115,-0.370
1153,-0.065,-0.380
1154,-0.025,-0.385
1155,-0.015,-0.400
1156,0.015,-0.395
1157,0.030,-0.430
1158,0.040,-0.445
1159,0.050,-0.480
1160,0.070,-0.515
1161,0.085,-0.535
1162,0.095,-0.550
1163,0.095,-0.560
1164,0.095,-0.570
1165,0.095,-0.570
1166,0.090,-0.565
1167,0.110,-0.585
1168,0.115,-0.585
1169,0.105,-0.595
1170,0.100,-0.605
1171,0.070,-0.610
1172,0.035,-0.640
1173,0.005,-0.640
1174,-0.030,-0.635
1175,-0.060,-0.620
1176,-0.080,-0.630
1177,-0.100,-0.620
1178,-0.100,-0.600
1179,-0.130,-0.595
1180,-0.150,-0.575
1181,-0.185,-0.580
1182,-0.215,-0.560
1183,-0.255,-0.555
1184,-0.280,-0.555
1185,-0.290,-0.555
1186,-0.310,-0.550
1187,-0.345,-0.545
1188,-0.375,-0.535
1189,-0.385,-0.525
1190,-0.415,-0.500
1191,-0.440,-0.480
1192,-0.435,-0.470
1193,-0.450,-0.460
1194,-0.465,-0.470
1195,-0.490,-0.475
1196,-0.520,-0.475
1197,-0.545,-0.485
1198,-0.585,-0.480
1199,-0.595,-0.445
1200,-0.605,-0.435
1201,-0.590,-0.420
1202,-0.575,-0.385
1203,-0.580,-0.360
1204,-0.570,-0.355
1205,-0.570,-0.340
1206,-0.570,-0.325
1207,-0.575,-0.305
1208,-0.580,-0.265
1209,-0.570,-0.240
1210,-0.565,-0.235
1211,-0.555,-0.230
1212,-0.550,-0.260
1213,-0.525,-0.280
1214,-0.515,-0.300
1215,-0.475,-0.305
1216,-0.420,-0.310
1217,-0.385,-0.315
1218,-0.335,-0.345
1219,-0.320,-0.385
1220,-0.300,-0.435
1221,-0.305,-0.485
1222,-0.310,-0.530
1223,-0.305,-0.535
1224,-0.285,-0.540
1225,-0.265,-0.530
1226,-0.250,-0.515
1227,-0.255,-0.515
1228,-0.265,-0.540
1229,-0.300,-0.555
1230,-0.350,-0.575
1231,-0.420,-0.595
1232,-0.485,-0.615
1233,-0.535,-0.620
1234,-0.580,-0.635
1235,-0.620,-0.630
1236,-0.660,-0.630
1237,-0.670,-0.625
1238,-0.675,-0.645
1239,-0.675,-0.655
1240,-0.670,-0.650
1241,-0.655,-0.650
1242,-0.660,-0.655
1243,-0.645,-0.675
1244,-0.670,-0.680
1245,-0.695,-0.705
1246,-0.695,-0.710
1247,-0.705,-0.710
1248,-0.710,-0.715
1249,-0.685,-0.695
1250,-0.670,-0.680
1251,-0.665,-0.665
1252,-0.660,-0.670
1253,-0.670,-0.665
1254,-0.675,-0.665
1255,-0.675,-0.665
1256,-0.675,-0.640
1257,-0.685,-0.595
1258,-0.685,-0.545
1259,-0.715,-0.505
1260,-0.735,-0.525
1261,-0.755,-0.620
1262,-0.750,-0.840
1263,-0.690,-1.160
1264,-0.550,-1.540
1265,-0.330,-1.955
1266,-0.035,-2.285
1267,0.290,-2.510
1268,0.655,-2.650
1269,1.020,-2.715
1270,1.360,-2.745
1271,1.645,-2.735
1272,1.825,-2.720
1273,1.860,-2.680
1274,1.725,-2.610
1275,1.430,-2.550
1276,1.045,-2.450
1277,0.605,-2.295
1278,0.110,-2.060
1279,-0.330,-1.750
1280,-0.735,-1.470
1281,-1.045,-1.235
1282,-1.305,-1.085
1283,-1.460,-0.985
1284,-1.495,-0.940
1285,-1.420,-0.915
1286,-1.300,-0.895
1287,-1.165,-0.890
1288,-1.045,-0.845
1289,-0.960,-0.835
1290,-0.935,-0.815
1291,-0.945,-0.805
1292,-0.975,-0.790
1293,-1.020,-0.780
1294,-1.060,-0.785
1295,-1.085,-0.770
1296,-1.095,-0.775
1297,-1.090,-0.760
1298,-1.075,-0.760
1299,-1.075,-0.730
1300,-1.070,-0.720
1301,-1.065,-0.700
1302,-1.085,-0.695
1303,-1.115,-0.700
1304,-1.125,-0.695
1305,-1.140,-0.705
1306,-1.130,-0.710
1307,-1.140,-0.685
1308,-1.125,-0.675
1309,-1.130,-0.645
1310,-1.130,-0.625
1311,-1.145,-0.615
1312,-1.150,-0.600
1313,-1.150,-0.600
1314,-1.150,-0.600
1315,-1.130,-0.590
1316,-1.140,-0.580
1317,-1.140,-0.565
1318,-1.165,-0.555
1319,-1.155,-0.545
1320,-1.145,-0.510
1321,-1.130,-0.500
1322,-1.115,-0.480
1323,-1.095,-0.470
1324,-1.065,-0.455
1325,-1.040,-0.445
1326,-1.040,-0.440
1327,-1.025,-0.415
1328,-1.015,-0.410
1329,-0.995,-0.390
1330,-0.975,-0.395
1331,-0.945,-0.380
1332,-0.910,-0.360
1333,-0.880,-0.345
1334,-0.840,-0.325
1335,-0.805,-0.300
1336,-0.770,-0.270
1337,-0.740,-0.275
1338,-0.700,-0.280
1339,-0.655,-0.280
1340,-0.645,-0.285
1341,-0.600,-0.290
1342,-0.585,-0.295
1343,-0.555,-0.300
1344,-0.525,-0.285
1345,-0.475,-0.280
1346,-0.410,-0.270
1347,-0.360,-0.265
1348,-0.300,-0.280
1349,-0.265,-0.290
1350,-0.225,-0.305
1351,-0.195,-0.315
1352,-0.170,-0.340
1353,-0.125,-0.360
1354,-0.095,-0.375
1355,-0.055,-0.400
1356,-0.025,-0.410
1357,0.005,-0.425
1358,0.035,-0.430
1359,0.030,-0.435
1360,0.045,-0.450
1361,0.060,-0.465
1362,0.085,-0.475
1363,0.100,-0.505
1364,0.115,-0.525
1365,0.115,-0.545
1366,0.100,-0.570
1367,0.085,-0.575
1368,0.065,-0.575
1369,0.055,-0.585
1370,0.045,-0.580
1371,0.040,-0.585
1372,0.045,-0.575
1373,0.045,-0.590
1374,0.035,-0.605
1375,0.000,-0.615
1376,-0.030,-0.625
1377,-0.065,-0.625
1378,-0.100,-0.630
1379,-0.120,-0.635
1380,-0.145,-0.620
1381,-0.155,-0.595
1382,-0.185,-0.595
1383,-0.195,-0.585
1384,-0.220,-0.570
1385,-0.260,-0.560
1386,-0.280,-0.550
1387,-0.315,-0.555
1388,-0.330,-0.545
1389,-0.365,-0.540
1390,-0.390,-0.545
1391,-0.420,-0.530
1392,-0.455,-0.520
1393,-0.475,-0.505
1394,-0.505,-0.490
1395,-0.505,-0.465
1396,-0.510,-0.445
1397,-0.510,-0.405
1398,-0.510,-0.380
1399,-0.520,-0.370
1400,-0.540,-0.350
1401,-0.545,-0.330
1402,-0.565,-0.295
1403,-0.560,-0.270
1404,-0.565,-0.235
1405,-0.550,-0.220
1406,-0.540,-0.210
1407,-0.535,-0.230
1408,-0.520,-0.255
1409,-0.495,-0.280
1410,-0.455,-0.310
1411,-0.415,-0.340
1412,-0.380,-0.375
1413,-0.360,-0.410
1414,-0.325,-0.460
1415,-0.320,-0.500
1416,-0.315,-0.530
1417,-0.290,-0.550
1418,-0.270,-0.560
1419,-0.240,-0.550
1420,-0.215,-0.535
1421,-0.225,-0.525
1422,-0.235,-0.525
1423,-0.285,-0.535
1424,-0.340,-0.565
1425,-0.405,-0.595
1426,-0.470,-0.615
1427,-0.535,-0.630
1428,-0.595,-0.630
1429,-0.625,-0.635
1430,-0.670,-0.635
1431,-0.710,-0.625
1432,-0.705,-0.640
1433,-0.710,-0.650
1434,-0.705,-0.675
1435,-0.705,-0.675
1436,-0.700,-0.675
1437,-0.700,-0.675
1438,-0.720,-0.680
1439,-0.735,-0.685
1440,-0.750,-0.690
1441,-0.750,-0.685
1442,-0.740,-0.680
1443,-0.720,-0.680
1444,-0.695,-0.675
1445,-0.680,-0.675
1446,-0.685,-0.675
1447,-0.690,-0.690
1448,-0.710,-0.685
1449,-0.705,-0.670
1450,-0.720,-0.665
1451,-0.710,-0.625
1452,-0.740,-0.570
1453,-0.740,-0.505
1454,-0.755,-0.475
1455,-0.780,-0.490
1456,-0.790,-0.600
1457,-0.750,-0.865
1458,-0.645,-1.235
1459,-0.480,-1.675
1460,-0.240,-2.110
1461,0.070,-2.470
1462,0.430,-2.715
1463,0.855,-2.865
1464,1.270,-2.895
1465,1.640,-2.890
1466,1.820,-2.845
1467,1.760,-2.790
1468,1.515,-2.730
1469,1.135,-2.685
1470,0.660,-2.615
1471,0.200,-2.470
1472,-0.230,-2.210
1473,-0.590,-1.850
1474,-0.890,-1.470
1475,-1.140,-1.165
1476,-1.315,-0.970
1477,-1.405,-0.865
1478,-1.395,-0.845
1479,-1.300,-0.845
1480,-1.160,-0.850
1481,-1.020,-0.845
1482,-0.935,-0.845
1483,-0.910,-0.820
1484,-0.935,-0.815
1485,-0.975,-0.795
1486,-1.025,-0.790
1487,-1.080,-0.775
1488,-1.095,-0.775
1489,-1.090,-0.755
1490,-1.070,-0.745
1491,-1.065,-0.730
1492,-1.055,-0.710
1493,-1.050,-0.705
1494,-1.075,-0.700
1495,-1.095,-0.690
1496,-1.105,-0.685
1497,-1.125,-0.680
1498,-1.135,-0.660
1499,-1.135,-0.660
1500,-1.145,-0.655
1501,-1.150,-0.640
1502,-1.175,-0.615
1503,-1.170,-0.600
1504,-1.160,-0.580
1505,-1.150,-0.575
1506,-1.145,-0.545
1507,-1.135,-0.545
1508,-1.150,-0.550
1509,-1.150,-0.545
1510,-1.170,-0.545
1511,-1.175,-0.525
1512,-1.175,-0.510
1513,-1.155,-0.475
1514,-1.125,-0.455
1515,-1.105,-0.435
1516,-1.085,-0.415
1517,-1.070,-0.405
1518,-1.065,-0.395
1519,-1.045,-0.375
1520,-1.030,-0.370
1521,-1.000,-0.355
1522,-0.970,-0.340
1523,-0.940,-0.330
1524,-0.905,-0.315
1525,-0.875,-0.295
1526,-0.835,-0.265
1527,-0.770,-0.240
1528,-0.715,-0.220
1529,-0.665,-0.210
1530,-0.610,-0.210
1531,-0.575,-0.205
1532,-0.545,-0.205
1533,-0.510,-0.225
1534,-0.480,-0.220
1535,-0.435,-0.210
1536,-0.390,-0.200
1537,-0.335,-0.200
1538,-0.285,-0.190
1539,-0.255,-0.210
1540,-0.215,-0.230
1541,-0.175,-0.240
1542,-0.105,-0.265
1543,-0.060,-0.270
1544,-0.025,-0.285
1545,0.015,-0.305
1546,0.020,-0.340
1547,0.030,-0.355
1548,0.035,-0.380
1549,0.055,-0.385
1550,0.055,-0.390
1551,0.095,-0.405
1552,0.110,-0.395
1553,0.115,-0.410
1554,0.115,-0.435
1555,0.085,-0.460
1556,0.060,-0.490
1557,0.040,-0.530
1558,0.020,-0.545
1559,0.025,-0.545
1560,0.005,-0.545
1561,-0.015,-0.550
1562,-0.035,-0.565
1563,-0.050,-0.580
1564,-0.070,-0.575
1565,-0.090,-0.590
1566,-0.095,-0.585
1567,-0.115,-0.585
1568,-0.140,-0.600
1569,-0.165,-0.600
1570,-0.205,-0.605
1571,-0.250,-0.605
1572,-0.275,-0.600
1573,-0.305,-0.600
1574,-0.305,-0.575
1575,-0.325,-0.545
1576,-0.340,-0.510
1577,-0.360,-0.495
1578,-0.400,-0.490
1579,-0.425,-0.500
1580,-0.440,-0.495
1581,-0.455,-0.495
1582,-0.480,-0.480
1583,-0.485,-0.465
1584,-0.515,-0.440
1585,-0.530,-0.415
1586,-0.550,-0.385
1587,-0.570,-0.350
1588,-0.580,-0.325
1589,-0.580,-0.305
1590,-0.575,-0.260
1591,-0.575,-0.230
1592,-0.590,-0.210
1593,-0.595,-0.210
1594,-0.600,-0.220
1595,-0.590,-0.255
1596,-0.580,-0.270
1597,-0.530,-0.295
1598,-0.480,-0.310
1599,-0.435,-0.320
1600,-0.400,-0.355
1601,-0.370,-0.390
1602,-0.345,-0.445
1603,-0.335,-0.505
1604,-0.300,-0.555
1605,-0.270,-0.580
1606,-0.250,-0.590
1607,-0.235,-0.595
1608,-0.245,-0.565
1609,-0.255,-0.575
1610,-0.265,-0.565
1611,-0.295,-0.585
1612,-0.335,-0.605
1613,-0.385,-0.615
1614,-0.440,-0.640
1615,-0.495,-0.645
1616,-0.550,-0.660
1617,-0.585,-0.680
1618,-0.625,-0.690
1619,-0.640,-0.705
1620,-0.640,-0.700
1621,-0.620,-0.695
1622,-0.620,-0.685
1623,-0.620,-0.680
1624,-0.625,-0.675
1625,-0.605,-0.685
1626,-0.605,-0.670
1627,-0.615,-0.690
1628,-0.625,-0.715
1629,-0.625,-0.705
1630,-0.635,-0.720
1631,-0.650,-0.725
1632,-0.660,-0.715
1633,-0.650,-0.710
1634,-0.645,-0.705
1635,-0.635,-0.705
1636,-0.605,-0.690
1637,-0.575,-0.680
1638,-0.570,-0.660
1639,-0.575,-0.625
1640,-0.585,-0.575
1641,-0.610,-0.530
1642,-0.645,-0.500
1643,-0.665,-0.540
1644,-0.675,-0.665
1645,-0.655,-0.900
1646,-0.590,-1.250
1647,-0.435,-1.645
1648,-0.220,-2.045
1649,0.035,-2.405
1650,0.380,-2.670
1651,0.750,-2.840
1652,1.140,-2.920
1653,1.520,-2.945
1654,1.775,-2.935
1655,1.820,-2.890
1656,1.625,-2.855
1657,1.275,-2.785
1658,0.845,-2.730
1659,0.375,-2.660
1660,-0.040,-2.475
1661,-0.405,-2.175
1662,-0.700,-1.805
1663,-0.945,-1.460
1664,-1.135,-1.195
1665,-1.290,-1.025
1666,-1.345,-0.950
1667,-1.335,-0.920
1668,-1.240,-0.915
1669,-1.115,-0.895
1670,-0.965,-0.890
1671,-0.880,-0.865
1672,-0.845,-0.840
1673,-0.855,-0.825
1674,-0.885,-0.805
1675,-0.930,-0.805
1676,-0.960,-0.790
1677,-0.980,-0.785
1678,-0.990,-0.790
1679,-0.990,-0.785
1680,-0.980,-0.775
1681,-0.985,-0.755
1682,-1.005,-0.725
1683,-1.015,-0.705
1684,-1.005,-0.680
1685,-1.000,-0.670
1686,-0.990,-0.650
1687,-0.990,-0.655
1688,-1.015,-0.650
1689,-1.030,-0.660
1690,-1.045,-0.650
1691,-1.040,-0.640
1692,-1.045,-0.615
1693,-1.025,-0.585
1694,-1.010,-0.550
1695,-0.995,-0.530
1696,-1.005,-0.530
1697,-1.020,-0.535
1698,-1.010,-0.520
1699,-0.995,-0.520
1700,-0.990,-0.500
1701,-0.990,-0.485
1702,-0.975,-0.460
1703,-0.950,-0.440
1704,-0.950,-0.425
1705,-0.925,-0.420
1706,-0.905,-0.400
1707,-0.880,-0.370
1708,-0.865,-0.365
1709,-0.840,-0.345
1710,-0.795,-0.330
1711,-0.770,-0.305
1712,-0.750,-0.300
1713,-0.715,-0.295
1714,-0.695,-0.290
1715,-0.670,-0.280
1716,-0.635,-0.270
1717,-0.570,-0.255
1718,-0.520,-0.235
1719,-0.500,-0.225
1720,-0.450,-0.220
1721,-0.405,-0.215
1722,-0.375,-0.225
1723,-0.350,-0.210
1724,-0.335,-0.225
1725,-0.300,-0.230
1726,-0.245,-0.205
1727,-0.220,-0.215
1728,-0.185,-0.205
1729,-0.160,-0.205
1730,-0.125,-0.225
1731,-0.080,-0.240
1732,-0.030,-0.255
1733,0.010,-0.265
1734,0.055,-0.280
1735,0.095,-0.295
1736,0.110,-0.315
1737,0.125,-0.335
1738,0.125,-0.360
1739,0.140,-0.385
1740,0.140,-0.395
1741,0.160,-0.405
1742,0.180,-0.410
1743,0.190,-0.425
1744,0.205,-0.415
1745,0.205,-0.425
1746,0.195,-0.450
1747,0.190,-0.475
1748,0.175,-0.510
1749,0.160,-0.540
1750,0.150,-0.560
1751,0.135,-0.585
1752,0.095,-0.570
1753,0.065,-0.560
1754,0.050,-0.570
1755,0.025,-0.575
1756,0.010,-0.575
1757,0.015,-0.585
1758,0.010,-0.600
1759,-0.005,-0.600
1760,-0.030,-0.620
1761,-0.070,-0.615
1762,-0.110,-0.620
1763,-0.155,-0.605
1764,-0.190,-0.610
1765,-0.210,-0.590
1766,-0.230,-0.585
1767,-0.250,-0.565
1768,-0.280,-0.535
1769,-0.305,-0.525
1770,-0.320,-0.525
1771,-0.355,-0.515
1772,-0.385,-0.525
1773,-0.415,-0.525
1774,-0.420,-0.530
1775,-0.455,-0.515
1776,-0.470,-0.525
1777,-0.500,-0.490
1778,-0.525,-0.485
1779,-0.535,-0.460
1780,-0.540,-0.430
1781,-0.540,-0.410
1782,-0.530,-0.400
1783,-0.535,-0.390
1784,-0.555,-0.365
1785,-0.580,-0.345
1786,-0.600,-0.325
1787,-0.605,-0.290
1788,-0.600,-0.260
1789,-0.590,-0.255
1790,-0.570,-0.230
1791,-0.550,-0.235
1792,-0.530,-0.245
1793,-0.510,-0.280
1794,-0.475,-0.295
1795,-0.440,-0.320
1796,-0.400,-0.345
1797,-0.365,-0.385
1798,-0.340,-0.415
1799,-0.325,-0.465
1800,-0.300,-0.490
1801,-0.280,-0.505
1802,-0.240,-0.525
1803,-0.205,-0.535
1804,-0.180,-0.540
1805,-0.170,-0.530
1806,-0.185,-0.540
1807,-0.235,-0.560
1808,-0.300,-0.580
1809,-0.380,-0.590
1810,-0.460,-0.615
1811,-0.525,-0.630
1812,-0.570,-0.630
1813,-0.600,-0.640
1814,-0.630,-0.640
1815,-0.645,-0.645
1816,-0.655,-0.630
1817,-0.655,-0.640
1818,-0.660,-0.635
1819,-0.645,-0.650
1820,-0.630,-0.655
1821,-0.635,-0.670
1822,-0.655,-0.680
1823,-0.660,-0.695
1824,-0.680,-0.690
1825,-0.675,-0.680
1826,-0.670,-0.675
1827,-0.640,-0.655
1828,-0.630,-0.650
1829,-0.625,-0.650
1830,-0.620,-0.640
1831,-0.620,-0.635
1832,-0.640,-0.625
1833,-0.655,-0.595
1834,-0.650,-0.565
1835,-0.665,-0.520
1836,-0.675,-0.465
1837,-0.685,-0.445
1838,-0.700,-0.515
1839,-0.720,-0.660
1840,-0.700,-0.945
1841,-0.600,-1.320
1842,-0.415,-1.750
1843,-0.145,-2.115
1844,0.180,-2.400
1845,0.560,-2.575
1846,0.960,-2.650
1847,1.345,-2.665
1848,1.675,-2.605
1849,1.860,-2.545
1850,1.825,-2.465
1851,1.590,-2.375
1852,1.210,-2.310
1853,0.750,-2.220
1854,0.270,-2.110
1855,-0.160,-1.910
1856,-0.525,-1.670
1857,-0.825,-1.430
1858,-1.080,-1.220
1859,-1.285,-1.095
1860,-1.425,-0.975
1861,-1.460,-0.915
1862,-1.410,-0.870
1863,-1.305,-0.855
1864,-1.165,-0.815
1865,-1.045,-0.790
1866,-0.965,-0.765
1867,-0.930,-0.745
1868,-0.930,-0.730
1869,-0.960,-0.725
1870,-1.000,-0.725
1871,-1.040,-0.720
1872,-1.065,-0.715
1873,-1.070,-0.710
1874,-1.060,-0.700
1875,-1.050,-0.685
1876,-1.045,-0.660
1877,-1.045,-0.640
1878,-1.025,-0.650
1879,-1.040,-0.640
1880,-1.060,-0.645
1881,-1.080,-0.655
1882,-1.095,-0.660
1883,-1.090,-0.645
1884,-1.100,-0.630
1885,-1.100,-0.605
1886,-1.090,-0.585
1887,-1.095,-0.575
1888,-1.085,-0.565
1889,-1.085,-0.540
1890,-1.070,-0.550
1891,-1.050,-0.545
1892,-1.045,-0.525
1893,-1.045,-0.515
1894,-1.045,-0.490
1895,-1.055,-0.490
1896,-1.060,-0.460
1897,-1.045,-0.455
1898,-1.025,-0.435
1899,-0.995,-0.415
1900,-0.975,-0.375
1901,-0.950,-0.370
1902,-0.935,-0.355
1903,-0.920,-0.345
1904,-0.910,-0.345
1905,-0.905,-0.335
1906,-0.880,-0.340
1907,-0.850,-0.335
1908,-0.820,-0.320
1909,-0.780,-0.300
1910,-0.745,-0.260
1911,-0.725,-0.245
1912,-0.690,-0.225
1913,-0.650,-0.215
1914,-0.610,-0.225
1915,-0.575,-0.235
1916,-0.530,-0.225
1917,-0.495,-0.230
1918,-0.470,-0.235
1919,-0.445,-0.220
1920,-0.425,-0.235
1921,-0.395,-0.235
1922,-0.360,-0.245
1923,-0.320,-0.250
1924,-0.285,-0.275
1925,-0.230,-0.275
1926,-0.210,-0.290
1927,-0.170,-0.305
1928,-0.145,-0.325
1929,-0.115,-0.350
1930,-0.090,-0.395
1931,-0.065,-0.410
1932,-0.035,-0.430
1933,-0.010,-0.460
1934,0.020,-0.460
1935,0.035,-0.465
1936,0.050,-0.465
1937,0.055,-0.460
1938,0.070,-0.480
1939,0.070,-0.500
1940,0.085,-0.530
1941,0.085,-0.555
1942,0.060,-0.575
1943,0.050,-0.580
1944,0.020,-0.575
1945,0.005,-0.570
1946,-0.015,-0.570
1947,-0.015,-0.575
1948,-0.015,-0.590
1949,-0.020,-0.590
1950,-0.035,-0.605
1951,-0.065,-0.595
1952,-0.110,-0.595
1953,-0.145,-0.590
1954,-0.170,-0.585
1955,-0.210,-0.580
1956,-0.220,-0.580
1957,-0.230,-0.575
1958,-0.270,-0.555
1959,-0.285,-0.545
1960,-0.320,-0.525
1961,-0.345,-0.505
1962,-0.360,-0.495
1963,-0.380,-0.485
1964,-0.400,-0.490
1965,-0.425,-0.485
1966,-0.460,-0.500
1967,-0.490,-0.485
1968,-0.530,-0.470
1969,-0.530,-0.460
1970,-0.535,-0.445
1971,-0.550,-0.430
1972,-0.555,-0.420
1973,-0.555,-0.395
1974,-0.580,-0.395
1975,-0.595,-0.370
1976,-0.620,-0.350
1977,-0.625,-0.345
1978,-0.635,-0.325
1979,-0.625,-0.280
1980,-0.605,-0.260
1981,-0.580,-0.210
1982,-0.555,-0.195
1983,-0.550,-0.175
1984,-0.545,-0.190
1985,-0.540,-0.215
1986,-0.515,-0.250
1987,-0.495,-0.275
1988,-0.460,-0.280
1989,-0.430,-0.305
1990,-0.430,-0.340
1991,-0.420,-0.370
1992,-0.405,-0.410
1993,-0.395,-0.435
1994,-0.355,-0.475
1995,-0.335,-0.485
1996,-0.285,-0.495
1997,-0.245,-0.500
1998,-0.220,-0.510
1999,-0.230,-0.495
2000,-0.240,-0.520
2001,-0.270,-0.540
2002,-0.320,-0.560
2003,-0.385,-0.565
2004,-0.450,-0.570
2005,-0.495,-0.570
2006,-0.555,-0.575
2007,-0.585,-0.595
2008,-0.625,-0.590
2009,-0.660,-0.600
2010,-0.680,-0.625
2011,-0.690,-0.630
2012,-0.695,-0.635
2013,-0.695,-0.645
2014,-0.685,-0.640
2015,-0.685,-0.640
2016,-0.690,-0.645
2017,-0.705,-0.650
2018,-0.715,-0.655
2019,-0.725,-0.670
2020,-0.710,-0.665
2021,-0.690,-0.655
2022,-0.690,-0.650
2023,-0.690,-0.645
2024,-0.680,-0.655
2025,-0.690,-0.670
2026,-0.695,-0.690
2027,-0.720,-0.705
2028,-0.730,-0.695
2029,-0.735,-0.675
2030,-0.735,-0.635
2031,-0.715,-0.595
2032,-0.725,-0.530
2033,-0.705,-0.485
2034,-0.725,-0.465
2035,-0.750,-0.515
2036,-0.745,-0.670
2037,-0.720,-0.930
2038,-0.635,-1.295
2039,-0.470,-1.705
2040,-0.230,-2.095
2041,0.070,-2.410
2042,0.430,-2.610
2043,0.840,-2.735
2044,1.265,-2.765
2045,1.640,-2.750
2046,1.900,-2.720
2047,1.955,-2.670
2048,1.810,-2.610
2049,1.470,-2.555
2050,1.030,-2.495
2051,0.550,-2.360
2052,0.050,-2.135
2053,-0.385,-1.805
2054,-0.770,-1.480
2055,-1.085,-1.200
2056,-1.310,-1.025
2057,-1.445,-0.925
2058,-1.460,-0.885
2059,-1.385,-0.880
2060,-1.265,-0.880
2061,-1.120,-0.870
2062,-1.005,-0.850
2063,-0.955,-0.825
2064,-0.945,-0.815
2065,-0.960,-0.785
2066,-1.000,-0.765
2067,-1.050,-0.750
2068,-1.070,-0.730
2069,-1.080,-0.745
2070,-1.070,-0.725
2071,-1.060,-0.740
2072,-1.060,-0.725
2073,-1.075,-0.710
2074,-1.085,-0.700
2075,-1.120,-0.685
2076,-1.120,-0.680
2077,-1.125,-0.660
2078,-1.115,-0.660
2079,-1.110,-0.645
2080,-1.105,-0.640
2081,-1.115,-0.625
2082,-1.120,-0.605
2083,-1.135,-0.600
2084,-1.140,-0.595
2085,-1.145,-0.590
2086,-1.145,-0.580
2087,-1.145,-0.590
2088,-1.160,-0.565
2089,-1.155,-0.545
2090,-1.165,-0.515
2091,-1.160,-0.490
2092,-1.135,-0.485
2093,-1.115,-0.475
2094,-1.085,-0.470
2095,-1.070,-0.455
2096,-1.060,-0.435
2097,-1.060,-0.440
2098,-1.050,-0.430
2099,-1.045,-0.415
2100,-1.035,-0.375
2101,-1.015,-0.375
2102,-0.960,-0.355
2103,-0.930,-0.350
2104,-0.890,-0.345
2105,-0.865,-0.335
2106,-0.840,-0.315
2107,-0.825,-0.290
2108,-0.800,-0.290
2109,-0.770,-0.280
2110,-0.735,-0.280
2111,-0.685,-0.285
2112,-0.655,-0.270
2113,-0.605,-0.260
2114,-0.565,-0.255
2115,-0.520,-0.245
2116,-0.485,-0.230
2117,-0.445,-0.240
2118,-0.375,-0.240
2119,-0.325,-0.260
2120,-0.285,-0.265
2121,-0.255,-0.300
2122,-0.235,-0.300
2123,-0.220,-0.310
2124,-0.170,-0.330
2125,-0.120,-0.330
2126,-0.075,-0.345
2127,-0.030,-0.365
2128,0.005,-0.375
2129,0.035,-0.400
2130,0.040,-0.415
2131,0.065,-0.425
2132,0.070,-0.430
2133,0.080,-0.455
2134,0.090,-0.460
2135,0.095,-0.495
2136,0.085,-0.520
2137,0.080,-0.530
2138,0.070,-0.535
2139,0.070,-0.545
2140,0.065,-0.530
2141,0.075,-0.550
2142,0.070,-0.575
2143,0.025,-0.580
2144,-0.010,-0.590
2145,-0.040,-0.595
2146,-0.065,-0.615
2147,-0.090,-0.610
2148,-0.110,-0.615
2149,-0.130,-0.590
2150,-0.135,-0.605
2151,-0.160,-0.595
2152,-0.185,-0.590
2153,-0.220,-0.585
2154,-0.255,-0.570
2155,-0.290,-0.575
2156,-0.295,-0.570
2157,-0.315,-0.560
2158,-0.345,-0.545
2159,-0.380,-0.545
2160,-0.410,-0.530
2161,-0.460,-0.530
2162,-0.475,-0.500
2163,-0.475,-0.485
2164,-0.480,-0.470
2165,-0.490,-0.455
2166,-0.500,-0.430
2167,-0.505,-0.420
2168,-0.530,-0.400
2169,-0.550,-0.390
2170,-0.560,-0.370
2171,-0.570,-0.325
2172,-0.570,-0.275
2173,-0.565,-0.230
2174,-0.570,-0.205
2175,-0.570,-0.200
2176,-0.565,-0.210
2177,-0.535,-0.225
2178,-0.510,-0.260
2179,-0.480,-0.290
2180,-0.435,-0.310
2181,-0.410,-0.335
2182,-0.385,-0.375
2183,-0.370,-0.425
2184,-0.370,-0.470
2185,-0.350,-0.510
2186,-0.325,-0.525
2187,-0.290,-0.540
2188,-0.250,-0.530
2189,-0.240,-0.525
2190,-0.245,-0.535
2191,-0.265,-0.535
2192,-0.300,-0.565
2193,-0.365,-0.585
2194,-0.405,-0.600
2195,-0.460,-0.610
2196,-0.510,-0.610
2197,-0.585,-0.625
2198,-0.640,-0.635
2199,-0.665,-0.630
2200,-0.700,-0.640
2201,-0.715,-0.650
2202,-0.715,-0.655
2203,-0.705,-0.640
2204,-0.710,-0.645
2205,-0.730,-0.650
2206,-0.730,-0.665
2207,-0.735,-0.680
2208,-0.735,-0.685
2209,-0.735,-0.700
2210,-0.735,-0.705
2211,-0.715,-0.685
2212,-0.710,-0.670
2213,-0.695,-0.665
2214,-0.710,-0.660
2215,-0.720,-0.660
2216,-0.735,-0.680
2217,-0.720,-0.690
2218,-0.735,-0.695
2219,-0.730,-0.670
2220,-0.730,-0.630
2221,-0.750,-0.575
2222,-0.760,-0.510
2223,-0.765,-0.475
2224,-0.770,-0.460
2225,-0.775,-0.540
2226,-0.760,-0.695
2227,-0.710,-0.955
2228,-0.620,-1.290
2229,-0.465,-1.685
2230,-0.270,-2.080
2231,0.005,-2.390
2232,0.345,-2.635
2233,0.745,-2.795
2234,1.165,-2.860
2235,1.550,-2.865
2236,1.790,-2.830
2237,1.840,-2.800
2238,1.635,-2.755
2239,1.280,-2.690
2240,0.815,-2.605
2241,0.300,-2.415
2242,-0.190,-2.090
2243,-0.615,-1.715
2244,-0.980,-1.360
2245,-1.250,-1.115
2246,-1.425,-0.955
2247,-1.480,-0.875
2248,-1.430,-0.860
2249,-1.315,-0.870
2250,-1.160,-0.890
2251,-1.025,-0.880
2252,-0.925,-0.885
2253,-0.910,-0.855
2254,-0.935,-0.840
2255,-1.000,-0.825
2256,-1.045,-0.795
2257,-1.075,-0.805
2258,-1.080,-0.790
2259,-1.085,-0.780
2260,-1.065,-0.775
2261,-1.060,-0.750
2262,-1.060,-0.735
2263,-1.075,-0.735
2264,-1.075,-0.705
2265,-1.080,-0.715
2266,-1.090,-0.710
2267,-1.080,-0.690
2268,-1.105,-0.690
2269,-1.115,-0.680
2270,-1.125,-0.655
2271,-1.125,-0.640
2272,-1.140,-0.630
2273,-1.125,-0.620
2274,-1.115,-0.615
2275,-1.120,-0.610
2276,-1.105,-0.600
2277,-1.115,-0.595
2278,-1.120,-0.570
2279,-1.125,-0.570
2280,-1.110,-0.535
2281,-1.090,-0.515
2282,-1.060,-0.505
2283,-1.025,-0.475
2284,-0.995,-0.445
2285,-0.985,-0.435
2286,-0.965,-0.420
2287,-0.955,-0.410
2288,-0.940,-0.395
2289,-0.900,-0.385
2290,-0.870,-0.375
2291,-0.845,-0.365
2292,-0.810,-0.365
2293,-0.760,-0.355
2294,-0.735,-0.330
2295,-0.690,-0.315
2296,-0.640,-0.290
2297,-0.580,-0.275
2298,-0.540,-0.260
2299,-0.495,-0.230
2300,-0.450,-0.240
2301,-0.430,-0.250
2302,-0.410,-0.255
2303,-0.390,-0.255
2304,-0.360,-0.260
2305,-0.310,-0.255
2306,-0.255,-0.260
2307,-0.210,-0.245
2308,-0.170,-0.230
2309,-0.125,-0.235
2310,-0.100,-0.245
2311,-0.065,-0.255
2312,-0.015,-0.270
2313,0.030,-0.285
2314,0.085,-0.290
2315,0.115,-0.305
2316,0.135,-0.315
2317,0.145,-0.335
2318,0.150,-0.355
2319,0.155,-0.370
2320,0.160,-0.395
2321,0.185,-0.390
2322,0.215,-0.410
2323,0.240,-0.430
2324,0.235,-0.445
2325,0.225,-0.470
2326,0.210,-0.490
2327,0.175,-0.530
2328,0.160,-0.535
2329,0.145,-0.550
2330,0.140,-0.545
2331,0.135,-0.555
2332,0.110,-0.560
2333,0.095,-0.560
2334,0.065,-0.565
2335,0.045,-0.585
2336,0.015,-0.605
2337,-0.010,-0.620
2338,-0.015,-0.635
2339,-0.025,-0.645
2340,-0.060,-0.650
2341,-0.100,-0.640
2342,-0.120,-0.640
2343,-0.140,-0.625
2344,-0.175,-0.620
2345,-0.170,-0.615
2346,-0.185,-0.610
2347,-0.210,-0.595
2348,-0.245,-0.580
2349,-0.260,-0.575
2350,-0.320,-0.565
2351,-0.365,-0.565
2352,-0.400,-0.555
2353,-0.415,-0.545
2354,-0.420,-0.530
2355,-0.425,-0.515
2356,-0.435,-0.505
2357,-0.445,-0.470
2358,-0.465,-0.465
2359,-0.495,-0.460
2360,-0.535,-0.445
2361,-0.540,-0.450
2362,-0.560,-0.440
2363,-0.570,-0.430
2364,-0.570,-0.390
2365,-0.570,-0.350
2366,-0.575,-0.310
2367,-0.585,-0.275
2368,-0.575,-0.255
2369,-0.580,-0.250
2370,-0.575,-0.265
2371,-0.555,-0.275
2372,-0.545,-0.305
2373,-0.530,-0.320
2374,-0.515,-0.335
2375,-0.495,-0.350
2376,-0.465,-0.365
2377,-0.425,-0.375
2378,-0.385,-0.405
2379,-0.350,-0.445
2380,-0.310,-0.480
2381,-0.280,-0.505
2382,-0.260,-0.555
2383,-0.250,-0.565
2384,-0.245,-0.585
2385,-0.235,-0.595
2386,-0.245,-0.605
2387,-0.255,-0.620
2388,-0.275,-0.635
2389,-0.300,-0.645
2390,-0.335,-0.640
2391,-0.385,-0.640
2392,-0.445,-0.645
2393,-0.505,-0.640
2394,-0.545,-0.650
2395,-0.575,-0.680
2396,-0.600,-0.700
2397,-0.605,-0.705
2398,-0.610,-0.710
2399,-0.620,-0.715
2400,-0.630,-0.710
2401,-0.650,-0.700
2402,-0.655,-0.705
2403,-0.655,-0.705
2404,-0.630,-0.700
2405,-0.615,-0.700
2406,-0.615,-0.715
2407,-0.630,-0.715
2408,-0.625,-0.725
2409,-0.645,-0.720
2410,-0.650,-0.745
2411,-0.655,-0.745
2412,-0.650,-0.750
2413,-0.655,-0.760
2414,-0.655,-0.740
2415,-0.645,-0.700
2416,-0.650,-0.675
2417,-0.640,-0.620
2418,-0.630,-0.560
2419,-0.640,-0.500
2420,-0.660,-0.470
2421,-0.670,-0.480
2422,-0.690,-0.570
2423,-0.705,-0.750
2424,-0.665,-1.035
2425,-0.550,-1.410
2426,-0.380,-1.810
2427,-0.125,-2.180
2428,0.185,-2.455
2429,0.550,-2.630
2430,0.950,-2.730
2431,1.355,-2.745
2432,1.675,-2.720
2433,1.830,-2.670
2434,1.785,-2.605
2435,1.510,-2.535
2436,1.115,-2.465
2437,0.625,-2.365
2438,0.130,-2.185
2439,-0.310,-1.915
2440,-0.685,-1.620
2441,-0.970,-1.360
2442,-1.190,-1.200
2443,-1.360,-1.095
2444,-1.450,-1.040
2445,-1.475,-0.995
2446,-1.405,-0.985
2447,-1.305,-0.945
2448,-1.180,-0.910
2449,-1.070,-0.875
2450,-0.980,-0.840
2451,-0.935,-0.825
2452,-0.910,-0.805
2453,-0.920,-0.815
2454,-0.945,-0.805
2455,-0.970,-0.785
2456,-0.995,-0.780
2457,-1.025,-0.780
2458,-1.030,-0.760
2459,-1.040,-0.765
2460,-1.040,-0.765
2461,-1.040,-0.750
2462,-1.045,-0.730
2463,-1.040,-0.720
2464,-1.050,-0.695
2465,-1.055,-0.685
2466,-1.055,-0.695
2467,-1.050,-0.675
2468,-1.050,-0.665
2469,-1.035,-0.660
2470,-1.040,-0.655
2471,-1.045,-0.655
2472,-1.060,-0.630
2473,-1.065,-0.645
2474,-1.070,-0.630
2475,-1.080,-0.615
2476,-1.075,-0.600
2477,-1.055,-0.575
2478,-1.035,-0.555
2479,-1.010,-0.530
2480,-0.995,-0.535
2481,-0.985,-0.520
2482,-0.985,-0.520
2483,-0.985,-0.520
2484,-0.965,-0.495
2485,-0.955,-0.465
2486,-0.925,-0.445
2487,-0.885,-0.410
2488,-0.865,-0.395
2489,-0.825,-0.350
2490,-0.815,-0.360
2491,-0.785,-0.355
2492,-0.765,-0.360
2493,-0.740,-0.350
2494,-0.720,-0.360
2495,-0.685,-0.335
2496,-0.635,-0.315
2497,-0.605,-0.310
2498,-0.580,-0.310
2499,-0.545,-0.315
2500,-0.515,-0.290
2501,-0.475,-0.280
2502,-0.430,-0.280
2503,-0.385,-0.265
2504,-0.355,-0.270
2505,-0.330,-0.290
2506,-0.300,-0.315
2507,-0.280,-0.330
2508,-0.245,-0.340
2509,-0.200,-0.350
2510,-0.155,-0.350
2511,-0.105,-0.350
2512,-0.070,-0.345
2513,-0.040,-0.355
2514,-0.015,-0.390
2515,0.005,-0.410
2516,0.025,-0.450
2517,0.030,-0.475
2518,0.070,-0.500
2519,0.075,-0.520
2520,0.085,-0.530
2521,0.095,-0.555
2522,0.105,-0.555
2523,0.100,-0.575
2524,0.090,-0.565
2525,0.105,-0.565
2526,0.110,-0.585
2527,0.110,-0.585
2528,0.100,-0.580
2529,0.065,-0.605
2530,0.025,-0.610
2531,-0.020,-0.625
2532,-0.040,-0.635
2533,-0.065,-0.650
2534,-0.090,-0.645
2535,-0.105,-0.640
2536,-0.135,-0.615
2537,-0.160,-0.610
2538,-0.170,-0.605
2539,-0.195,-0.610
2540,-0.210,-0.610
2541,-0.225,-0.625
2542,-0.255,-0.615
2543,-0.270,-0.600
2544,-0.320,-0.590
2545,-0.355,-0.575
2546,-0.375,-0.555
2547,-0.400,-0.545
2548,-0.410,-0.550
2549,-0.405,-0.525
2550,-0.435,-0.515
2551,-0.450,-0.495
2552,-0.500,-0.485
2553,-0.525,-0.475
2554,-0.560,-0.480
2555,-0.580,-0.485
2556,-0.575,-0.485
2557,-0.600,-0.490
2558,-0.595,-0.465
2559,-0.600,-0.450
2560,-0.605,-0.405
2561,-0.605,-0.370
2562,-0.615,-0.355
2563,-0.610,-0.320
2564,-0.610,-0.305
2565,-0.595,-0.280
2566,-0.610,-0.255
2567,-0.605,-0.250
2568,-0.605,-0.240
2569,-0.595,-0.240
2570,-0.580,-0.230
2571,-0.535,-0.265
2572,-0.490,-0.285
2573,-0.440,-0.290
2574,-0.400,-0.315
2575,-0.375,-0.340
2576,-0.360,-0.375
2577,-0.360,-0.435
2578,-0.350,-0.455
2579,-0.340,-0.485
2580,-0.330,-0.490
2581,-0.310,-0.505
2582,-0.280,-0.510
2583,-0.265,-0.520
2584,-0.280,-0.520
2585,-0.305,-0.530
2586,-0.335,-0.555
2587,-0.375,-0.560
2588,-0.430,-0.575
2589,-0.475,-0.600
2590,-0.535,-0.620
2591,-0.585,-0.650
2592,-0.640,-0.665
2593,-0.680,-0.660
2594,-0.705,-0.660
2595,-0.715,-0.650
2596,-0.700,-0.630
2597,-0.695,-0.635
2598,-0.680,-0.640
2599,-0.685,-0.645
2600,-0.690,-0.655
2601,-0.705,-0.660
2602,-0.720,-0.660
2603,-0.715,-0.675
2604,-0.725,-0.670
2605,-0.715,-0.670
2606,-0.715,-0.680
2607,-0.690,-0.665
2608,-0.690,-0.670
2609,-0.695,-0.665
2610,-0.695,-0.680
2611,-0.690,-0.670
2612,-0.700,-0.675
2613,-0.710,-0.655
2614,-0.705,-0.650
2615,-0.710,-0.630
2616,-0.715,-0.575
2617,-0.730,-0.525
2618,-0.745,-0.475
2619,-0.770,-0.490
2620,-0.775,-0.595
2621,-0.760,-0.800
2622,-0.685,-1.125
2623,-0.540,-1.505
2624,-0.340,-1.915
2625,-0.065,-2.250
2626,0.250,-2.505
2627,0.630,-2.650
2628,1.025,-2.715
2629,1.400,-2.735
2630,1.710,-2.720
2631,1.895,-2.685
2632,1.915,-2.630
2633,1.750,-2.565
2634,1.450,-2.500
2635,1.040,-2.435
2636,0.595,-2.325
2637,0.125,-2.135
2638,-0.285,-1.855
2639,-0.640,-1.560
2640,-0.970,-1.285
2641,-1.235,-1.115
2642,-1.430,-1.010
2643,-1.515,-0.950
2644,-1.485,-0.935
2645,-1.400,-0.900
2646,-1.265,-0.880
2647,-1.110,-0.835
2648,-1.015,-0.800
2649,-0.960,-0.785
2650,-0.965,-0.770
2651,-1.000,-0.785
2652,-1.050,-0.775
2653,-1.095,-0.775
2654,-1.125,-0.765
2655,-1.120,-0.740
2656,-1.130,-0.725
2657,-1.115,-0.705
2658,-1.100,-0.705
2659,-1.110,-0.690
2660,-1.120,-0.700
2661,-1.155,-0.695
2662,-1.165,-0.690
2663,-1.180,-0.690
2664,-1.180,-0.655
2665,-1.180,-0.645
2666,-1.175,-0.630
2667,-1.160,-0.625
2668,-1.170,-0.625
2669,-1.175,-0.600
2670,-1.180,-0.605
2671,-1.190,-0.600
2672,-1.190,-0.590
2673,-1.195,-0.595
2674,-1.195,-0.585
2675,-1.195,-0.550
2676,-1.195,-0.540
2677,-1.200,-0.535
2678,-1.205,-0.520
2679,-1.200,-0.505
2680,-1.175,-0.475
2681,-1.155,-0.465
2682,-1.125,-0.450
2683,-1.115,-0.430
2684,-1.110,-0.415
2685,-1.100,-0.415
2686,-1.105,-0.410
2687,-1.110,-0.420
2688,-1.085,-0.410
2689,-1.050,-0.395
2690,-1.025,-0.355
2691,-0.990,-0.345
2692,-0.965,-0.300
2693,-0.930,-0.285
2694,-0.910,-0.270
2695,-0.870,-0.280
2696,-0.850,-0.300
2697,-0.815,-0.305
2698,-0.780,-0.300
2699,-0.745,-0.285
2700,-0.715,-0.270
2701,-0.685,-0.270
2702,-0.660,-0.255
2703,-0.635,-0.250
2704,-0.600,-0.245
2705,-0.555,-0.250
2706,-0.520,-0.270
2707,-0.475,-0.280
2708,-0.410,-0.275
2709,-0.380,-0.285
2710,-0.345,-0.285
2711,-0.320,-0.305
2712,-0.290,-0.320
2713,-0.265,-0.355
2714,-0.225,-0.355
2715,-0.175,-0.375
2716,-0.135,-0.370
2717,-0.105,-0.385
2718,-0.075,-0.385
2719,-0.055,-0.410
2720,-0.050,-0.425
2721,-0.040,-0.460
2722,-0.040,-0.485
2723,-0.020,-0.520
2724,-0.015,-0.525
2725,-0.015,-0.530
2726,-0.010,-0.535
2727,-0.005,-0.525
2728,-0.010,-0.535
2729,-0.025,-0.550
2730,-0.035,-0.570
2731,-0.040,-0.575
2732,-0.050,-0.595
2733,-0.065,-0.595
2734,-0.105,-0.590
2735,-0.150,-0.600
2736,-0.155,-0.600
2737,-0.205,-0.600
2738,-0.225,-0.605
2739,-0.225,-0.610
2740,-0.215,-0.610
2741,-0.225,-0.585
2742,-0.235,-0.585
2743,-0.265,-0.565
2744,-0.310,-0.560
2745,-0.335,-0.565
2746,-0.375,-0.560
2747,-0.400,-0.565
2748,-0.415,-0.560
2749,-0.445,-0.550
2750,-0.460,-0.530
2751,-0.490,-0.495
2752,-0.510,-0.475
2753,-0.540,-0.455
2754,-0.555,-0.445
2755,-0.565,-0.440
2756,-0.575,-0.440
2757,-0.590,-0.445
2758,-0.595,-0.440
2759,-0.615,-0.430
2760,-0.640,-0.400
2761,-0.670,-0.360
2762,-0.675,-0.310
2763,-0.675,-0.280
2764,-0.660,-0.250
2765,-0.655,-0.205
2766,-0.640,-0.175
2767,-0.645,-0.170
2768,-0.640,-0.175
2769,-0.650,-0.205
2770,-0.660,-0.230
2771,-0.620,-0.260
2772,-0.600,-0.290
2773,-0.555,-0.290
2774,-0.515,-0.315
2775,-0.475,-0.330
2776,-0.455,-0.365
2777,-0.435,-0.395
2778,-0.420,-0.435
2779,-0.415,-0.460
2780,-0.405,-0.495
2781,-0.375,-0.510
2782,-0.350,-0.530
2783,-0.340,-0.535
2784,-0.345,-0.550
2785,-0.370,-0.560
2786,-0.400,-0.560
2787,-0.440,-0.550
2788,-0.485,-0.545
2789,-0.520,-0.550
2790,-0.560,-0.565
2791,-0.595,-0.565
2792,-0.640,-0.590
2793,-0.685,-0.605
2794,-0.740,-0.625
2795,-0.790,-0.640
2796,-0.815,-0.630
2797,-0.820,-0.625
2798,-0.785,-0.625
2799,-0.775,-0.610
2800,-0.760,-0.610
2801,-0.755,-0.620
2802,-0.760,-0.625
2803,-0.770,-0.635
2804,-0.785,-0.645
2805,-0.790,-0.655
2806,-0.775,-0.655
2807,-0.775,-0.665
2808,-0.780,-0.660
2809,-0.775,-0.665
2810,-0.770,-0.660
2811,-0.775,-0.655
2812,-0.775,-0.655
2813,-0.775,-0.650
2814,-0.765,-0.635
2815,-0.760,-0.615
2816,-0.745,-0.575
2817,-0.760,-0.530
2818,-0.775,-0.485
2819,-0.805,-0.475
2820,-0.835,-0.505
2821,-0.835,-0.615
2822,-0.805,-0.795
2823,-0.720,-1.060
2824,-0.575,-1.380
2825,-0.375,-1.765
2826,-0.135,-2.110
2827,0.160,-2.420
2828,0.490,-2.640
2829,0.845,-2.780
2830,1.220,-2.830
2831,1.540,-2.845
2832,1.740,-2.820
2833,1.775,-2.780
2834,1.610,-2.715
2835,1.305,-2.680
2836,0.900,-2.630
2837,0.450,-2.505
2838,-0.005,-2.250
2839,-0.420,-1.890
2840,-0.805,-1.520
2841,-1.125,-1.215
2842,-1.350,-1.020
2843,-1.485,-0.920
2844,-1.510,-0.885
2845,-1.440,-0.880
2846,-1.305,-0.885
2847,-1.150,-0.875
2848,-1.030,-0.855
2849,-0.955,-0.815
2850,-0.935,-0.780
2851,-0.970,-0.770
2852,-1.025,-0.765
2853,-1.065,-0.765
2854,-1.100,-0.765
2855,-1.135,-0.760
2856,-1.130,-0.755
2857,-1.135,-0.740
2858,-1.125,-0.725
2859,-1.130,-0.700
2860,-1.125,-0.690
2861,-1.145,-0.685
2862,-1.145,-0.660
2863,-1.145,-0.660
2864,-1.150,-0.645
2865,-1.160,-0.640
2866,-1.175,-0.620
2867,-1.190,-0.615
2868,-1.210,-0.605
2869,-1.220,-0.590
2870,-1.220,-0.580
2871,-1.195,-0.565
2872,-1.195,-0.545
2873,-1.190,-0.525
2874,-1.180,-0.505
2875,-1.180,-0.490
2876,-1.190,-0.490
2877,-1.195,-0.475
2878,-1.185,-0.475
2879,-1.180,-0.470
2880,-1.155,-0.450
2881,-1.140,-0.430
2882,-1.135,-0.405
2883,-1.110,-0.380
2884,-1.085,-0.360
2885,-1.050,-0.340
2886,-1.015,-0.330
2887,-0.965,-0.330
2888,-0.935,-0.305
2889,-0.915,-0.285
2890,-0.890,-0.275
2891,-0.865,-0.275
2892,-0.835,-0.265
2893,-0.810,-0.265
2894,-0.760,-0.255
2895,-0.700,-0.245
2896,-0.635,-0.220
2897,-0.595,-0.200
2898,-0.540,-0.185
2899,-0.500,-0.195
2900,-0.455,-0.210
2901,-0.400,-0.225
2902,-0.365,-0.245
2903,-0.320,-0.250
2904,-0.270,-0.250
2905,-0.245,-0.240
2906,-0.220,-0.225
2907,-0.190,-0.240
2908,-0.140,-0.245
2909,-0.095,-0.245
2910,-0.045,-0.290
2911,-0.005,-0.315
2912,0.025,-0.335
2913,0.045,-0.370
2914,0.060,-0.375
2915,0.065,-0.400
2916,0.085,-0.410
2917,0.080,-0.430
2918,0.090,-0.450
2919,0.105,-0.460
2920,0.090,-0.475
2921,0.095,-0.470
2922,0.095,-0.475
2923,0.080,-0.490
2924,0.070,-0.500
2925,0.050,-0.540
2926,0.035,-0.560
2927,0.020,-0.575
2928,-0.025,-0.585
2929,-0.055,-0.580
2930,-0.065,-0.585
2931,-0.090,-0.585
2932,-0.090,-0.590
2933,-0.100,-0.590
2934,-0.120,-0.590
2935,-0.140,-0.580
2936,-0.165,-0.585
2937,-0.190,-0.585
2938,-0.215,-0.575
2939,-0.220,-0.570
2940,-0.250,-0.560
2941,-0.270,-0.565
2942,-0.290,-0.545
2943,-0.325,-0.515
2944,-0.365,-0.495
2945,-0.400,-0.485
2946,-0.420,-0.465
2947,-0.425,-0.450
2948,-0.435,-0.450
2949,-0.460,-0.445
2950,-0.480,-0.455
2951,-0.510,-0.445
2952,-0.540,-0.425
2953,-0.565,-0.400
2954,-0.565,-0.375
2955,-0.565,-0.340
2956,-0.550,-0.310
2957,-0.540,-0.260
2958,-0.525,-0.225
2959,-0.525,-0.215
2960,-0.540,-0.215
2961,-0.545,-0.230
2962,-0.530,-0.270
2963,-0.520,-0.290
2964,-0.490,-0.310
2965,-0.455,-0.325
2966,-0.415,-0.345
2967,-0.380,-0.365
2968,-0.350,-0.395
2969,-0.315,-0.420
2970,-0.310,-0.465
2971,-0.275,-0.510
2972,-0.260,-0.530
2973,-0.235,-0.550
2974,-0.220,-0.550
2975,-0.225,-0.570
2976,-0.220,-0.565
2977,-0.240,-0.585
2978,-0.265,-0.600
2979,-0.285,-0.615
2980,-0.315,-0.615
2981,-0.360,-0.615
2982,-0.420,-0.625
2983,-0.480,-0.640
2984,-0.535,-0.655
2985,-0.590,-0.670
2986,-0.620,-0.680
2987,-0.630,-0.700
2988,-0.610,-0.705
2989,-0.595,-0.695
2990,-0.595,-0.680
2991,-0.600,-0.675
2992,-0.605,-0.675
2993,-0.630,-0.680
2994,-0.630,-0.690
2995,-0.630,-0.690
2996,-0.615,-0.690
2997,-0.615,-0.690
2998,-0.605,-0.700
2999,-0.610,-0.710
3000,-0.625,-0.730
3001,-0.625,-0.730
3002,-0.605,-0.730
3003,-0.615,-0.710
3004,-0.605,-0.695
3005,-0.600,-0.640
3006,-0.605,-0.600
3007,-0.620,-0.555
3008,-0.645,-0.510
3009,-0.670,-0.530
3010,-0.665,-0.610
3011,-0.645,-0.795
3012,-0.575,-1.105
3013,-0.430,-1.490
3014,-0.235,-1.910
3015,0.015,-2.285
3016,0.315,-2.565
3017,0.655,-2.750
3018,1.040,-2.865
3019,1.400,-2.910
3020,1.700,-2.910
3021,1.830,-2.890
3022,1.755,-2.860
3023,1.465,-2.820
3024,1.055,-2.765
3025,0.595,-2.695
3026,0.110,-2.540
3027,-0.295,-2.250
3028,-0.650,-1.865
3029,-0.925,-1.490
3030,-1.135,-1.195
3031,-1.285,-0.985
3032,-1.380,-0.910
3033,-1.375,-0.890
3034,-1.295,-0.900
3035,-1.165,-0.910
3036,-1.035,-0.905
3037,-0.935,-0.875
3038,-0.880,-0.845
3039,-0.880,-0.805
3040,-0.905,-0.785
3041,-0.940,-0.770
3042,-0.965,-0.760
3043,-0.975,-0.750
3044,-0.990,-0.745
3045,-1.000,-0.755
3046,-1.010,-0.730
3047,-1.015,-0.720
3048,-1.025,-0.700
3049,-1.045,-0.685
3050,-1.025,-0.670
3051,-1.020,-0.665
3052,-1.025,-0.630
3053,-1.030,-0.615
3054,-1.045,-0.600
3055,-1.050,-0.590
3056,-1.070,-0.595
3057,-1.075,-0.595
3058,-1.065,-0.590
3059,-1.050,-0.595
3060,-1.060,-0.575
3061,-1.055,-0.555
3062,-1.055,-0.525
3063,-1.050,-0.500
3064,-1.055,-0.490
3065,-1.030,-0.480
3066,-1.005,-0.460
3067,-0.970,-0.445
3068,-0.950,-0.430
3069,-0.940,-0.425
3070,-0.940,-0.415
3071,-0.935,-0.400
3072,-0.930,-0.375
3073,-0.905,-0.360
3074,-0.875,-0.335
3075,-0.840,-0.310
3076,-0.810,-0.290
3077,-0.795,-0.275
3078,-0.770,-0.260
3079,-0.735,-0.260
3080,-0.715,-0.235
3081,-0.680,-0.235
3082,-0.645,-0.235
3083,-0.600,-0.240
3084,-0.555,-0.225
3085,-0.520,-0.220
3086,-0.495,-0.205
3087,-0.465,-0.200
3088,-0.435,-0.170
3089,-0.400,-0.175
3090,-0.340,-0.165
3091,-0.295,-0.175
3092,-0.240,-0.175
3093,-0.190,-0.195
3094,-0.165,-0.220
3095,-0.150,-0.230
3096,-0.130,-0.235
3097,-0.105,-0.230
3098,-0.065,-0.235
3099,-0.025,-0.225
3100,0.005,-0.240
3101,0.030,-0.250
3102,0.055,-0.280
3103,0.075,-0.300
3104,0.105,-0.315
3105,0.120,-0.335
3106,0.140,-0.360
3107,0.150,-0.390
3108,0.160,-0.395
3109,0.145,-0.415
3110,0.120,-0.425
3111,0.100,-0.440
3112,0.090,-0.450
3113,0.080,-0.460
3114,0.070,-0.455
3115,0.080,-0.475
3116,0.085,-0.480
3117,0.070,-0.495
3118,0.055,-0.520
3119,0.020,-0.540
3120,-0.005,-0.555
3121,-0.045,-0.565
3122,-0.080,-0.570
3123,-0.095,-0.565
3124,-0.110,-0.570
3125,-0.110,-0.560
3126,-0.135,-0.555
3127,-0.160,-0.555
3128,-0.190,-0.560
3129,-0.225,-0.560
3130,-0.245,-0.540
3131,-0.275,-0.535
3132,-0.290,-0.535
3133,-0.335,-0.515
3134,-0.345,-0.505
3135,-0.380,-0.500
3136,-0.400,-0.490
3137,-0.440,-0.460
3138,-0.430,-0.465
3139,-0.455,-0.450
3140,-0.490,-0.440
3141,-0.510,-0.445
3142,-0.545,-0.435
3143,-0.580,-0.455
3144,-0.610,-0.465
3145,-0.610,-0.445
3146,-0.620,-0.425
3147,-0.620,-0.395
3148,-0.620,-0.355
3149,-0.610,-0.320
3150,-0.625,-0.290
3151,-0.625,-0.290
3152,-0.640,-0.275
3153,-0.650,-0.260
3154,-0.665,-0.215
3155,-0.675,-0.205
3156,-0.680,-0.195
3157,-0.670,-0.195
3158,-0.640,-0.215
3159,-0.600,-0.240
3160,-0.555,-0.260
3161,-0.505,-0.285
3162,-0.455,-0.295
3163,-0.415,-0.295
3164,-0.405,-0.310
3165,-0.395,-0.355
3166,-0.375,-0.400
3167,-0.375,-0.455
3168,-0.365,-0.490
3169,-0.340,-0.495
3170,-0.300,-0.510
3171,-0.280,-0.500
3172,-0.270,-0.500
3173,-0.275,-0.490
3174,-0.300,-0.505
3175,-0.345,-0.510
3176,-0.395,-0.525
3177,-0.465,-0.560
3178,-0.520,-0.580
3179,-0.570,-0.600
3180,-0.615,-0.595
3181,-0.645,-0.605
3182,-0.670,-0.615
3183,-0.690,-0.610
3184,-0.715,-0.610
3185,-0.705,-0.620
3186,-0.700,-0.625
3187,-0.695,-0.635
3188,-0.700,-0.640
3189,-0.715,-0.635
3190,-0.700,-0.655
3191,-0.715,-0.655
3192,-0.710,-0.655
3193,-0.720,-0.660
3194,-0.725,-0.660
3195,-0.715,-0.655
3196,-0.705,-0.650
3197,-0.695,-0.650
3198,-0.680,-0.645
3199,-0.690,-0.635
3200,-0.675,-0.640
3201,-0.695,-0.645
3202,-0.700,-0.620
3203,-0.700,-0.605
3204,-0.700,-0.580
3205,-0.725,-0.520
3206,-0.735,-0.460
3207,-0.770,-0.450
3208,-0.785,-0.505
3209,-0.785,-0.665
3210,-0.720,-0.965
3211,-0.595,-1.370
3212,-0.380,-1.790
3213,-0.105,-2.165
3214,0.255,-2.415
3215,0.635,-2.575
3216,1.050,-2.620
3217,1.435,-2.635
3218,1.750,-2.595
3219,1.905,-2.540
3220,1.860,-2.490
3221,1.615,-2.430
3222,1.260,-2.345
3223,0.820,-2.255
3224,0.355,-2.095
3225,-0.100,-1.865
3226,-0.520,-1.575
3227,-0.905,-1.340
3228,-1.220,-1.145
3229,-1.445,-0.990
3230,-1.525,-0.915
3231,-1.515,-0.860
3232,-1.395,-0.820
3233,-1.250,-0.785
3234,-1.115,-0.755
3235,-1.020,-0.740
3236,-0.955,-0.720
3237,-0.960,-0.715
3238,-0.990,-0.705
3239,-1.025,-0.715
3240,-1.080,-0.705
3241,-1.105,-0.695
3242,-1.110,-0.685
3243,-1.105,-0.655
3244,-1.080,-0.645
3245,-1.075,-0.645
3246,-1.080,-0.640
3247,-1.095,-0.645
3248,-1.115,-0.630
3249,-1.140,-0.610
3250,-1.150,-0.605
3251,-1.155,-0.600
3252,-1.150,-0.595
3253,-1.160,-0.590
3254,-1.160,-0.580
3255,-1.170,-0.570
3256,-1.160,-0.565
3257,-1.150,-0.545
3258,-1.120,-0.520
3259,-1.100,-0.505
3260,-1.085,-0.490
3261,-1.090,-0.485
3262,-1.090,-0.465
3263,-1.100,-0.465
3264,-1.100,-0.445
3265,-1.080,-0.425
3266,-1.070,-0.400
3267,-1.045,-0.380
3268,-1.020,-0.375
3269,-0.995,-0.345
3270,-0.970,-0.350
3271,-0.955,-0.335
3272,-0.925,-0.325
3273,-0.900,-0.305
3274,-0.870,-0.300
3275,-0.835,-0.285
3276,-0.815,-0.270
3277,-0.800,-0.265
3278,-0.780,-0.265
3279,-0.750,-0.255
3280,-0.710,-0.235
3281,-0.660,-0.225
3282,-0.615,-0.200
3283,-0.570,-0.205
3284,-0.525,-0.210
3285,-0.500,-0.220
3286,-0.475,-0.225
3287,-0.435,-0.245
3288,-0.400,-0.240
3289,-0.355,-0.250
3290,-0.310,-0.245
3291,-0.270,-0.245
3292,-0.250,-0.250
3293,-0.235,-0.270
3294,-0.185,-0.295
3295,-0.155,-0.315
3296,-0.115,-0.330
3297,-0.095,-0.355
3298,-0.075,-0.375
3299,-0.055,-0.405
3300,-0.055,-0.435
3301,-0.035,-0.445
3302,-0.020,-0.465
3303,-0.005,-0.480
3304,0.015,-0.480
3305,0.040,-0.470
3306,0.050,-0.480
3307,0.040,-0.500
3308,0.020,-0.520
3309,-0.005,-0.540
3310,-0.035,-0.555
3311,-0.055,-0.575
3312,-0.060,-0.570
3313,-0.075,-0.580
3314,-0.085,-0.570
3315,-0.115,-0.545
3316,-0.140,-0.540
3317,-0.150,-0.535
3318,-0.180,-0.540
3319,-0.200,-0.560
3320,-0.210,-0.565
3321,-0.230,-0.565
3322,-0.255,-0.560
3323,-0.300,-0.540
3324,-0.335,-0.545
3325,-0.380,-0.530
3326,-0.390,-0.515
3327,-0.415,-0.510
3328,-0.425,-0.485
3329,-0.440,-0.475
3330,-0.460,-0.460
3331,-0.480,-0.445
3332,-0.520,-0.430
3333,-0.545,-0.435
3334,-0.580,-0.440
3335,-0.600,-0.440
3336,-0.625,-0.435
3337,-0.635,-0.415
3338,-0.650,-0.400
3339,-0.640,-0.365
3340,-0.640,-0.350
3341,-0.655,-0.320
3342,-0.660,-0.295
3343,-0.645,-0.280
3344,-0.645,-0.260
3345,-0.635,-0.235
3346,-0.645,-0.200
3347,-0.650,-0.170
3348,-0.660,-0.165
3349,-0.660,-0.165
3350,-0.635,-0.195
3351,-0.600,-0.225
3352,-0.550,-0.235
3353,-0.505,-0.255
3354,-0.465,-0.265
3355,-0.435,-0.295
3356,-0.420,-0.335
3357,-0.415,-0.375
3358,-0.395,-0.415
3359,-0.375,-0.445
3360,-0.360,-0.475
3361,-0.345,-0.475
3362,-0.340,-0.475
3363,-0.340,-0.470
3364,-0.350,-0.470
3365,-0.370,-0.470
3366,-0.410,-0.480
3367,-0.455,-0.505
3368,-0.500,-0.530
3369,-0.550,-0.555
3370,-0.615,-0.580
3371,-0.670,-0.595
3372,-0.710,-0.595
3373,-0.750,-0.595
3374,-0.770,-0.585
3375,-0.755,-0.585
3376,-0.730,-0.585
3377,-0.730,-0.585
3378,-0.735,-0.600
3379,-0.750,-0.615
3380,-0.765,-0.605
3381,-0.770,-0.615
3382,-0.775,-0.630
3383,-0.780,-0.625
3384,-0.775,-0.635
3385,-0.790,-0.630
3386,-0.790,-0.635
3387,-0.795,-0.635
3388,-0.795,-0.630
3389,-0.765,-0.610
3390,-0.760,-0.590
3391,-0.745,-0.580
3392,-0.730,-0.575
3393,-0.740,-0.525
3394,-0.765,-0.485
3395,-0.805,-0.445
3396,-0.835,-0.455
3397,-0.860,-0.535
3398,-0.825,-0.705
3399,-0.745,-0.990
3400,-0.615,-1.360
3401,-0.400,-1.740
3402,-0.150,-2.115
3403,0.195,-2.385
3404,0.560,-2.570
3405,0.960,-2.675
3406,1.345,-2.720
3407,1.660,-2.705
3408,1.830,-2.670
3409,1.810,-2.650
3410,1.610,-2.615
3411,1.290,-2.560
3412,0.920,-2.495
3413,0.515,-2.375
3414,0.105,-2.175
3415,-0.295,-1.875
3416,-0.670,-1.525
3417,-1.015,-1.245
3418,-1.290,-1.035
3419,-1.485,-0.925
3420,-1.535,-0.860
3421,-1.475,-0.840
3422,-1.350,-0.820
3423,-1.185,-0.805
3424,-1.075,-0.780
3425,-0.995,-0.760
3426,-0.975,-0.740
3427,-1.020,-0.740
3428,-1.080,-0.735
3429,-1.120,-0.720
3430,-1.145,-0.720
3431,-1.155,-0.705
3432,-1.145,-0.690
3433,-1.150,-0.675
3434,-1.140,-0.675
3435,-1.150,-0.665
3436,-1.160,-0.670
3437,-1.170,-0.650
3438,-1.175,-0.635
3439,-1.175,-0.625
3440,-1.170,-0.600
3441,-1.180,-0.600
3442,-1.195,-0.585
3443,-1.215,-0.585
3444,-1.235,-0.600
3445,-1.250,-0.590
3446,-1.260,-0.575
3447,-1.240,-0.555
3448,-1.230,-0.520
3449,-1.215,-0.490
3450,-1.215,-0.475
3451,-1.205,-0.485
3452,-1.215,-0.485
3453,-1.210,-0.470
3454,-1.220,-0.465
3455,-1.205,-0.455
3456,-1.185,-0.450
3457,-1.180,-0.410
3458,-1.175,-0.390
3459,-1.160,-0.380
3460,-1.145,-0.360
3461,-1.135,-0.350
3462,-1.095,-0.340
3463,-1.065,-0.320
3464,-1.030,-0.300
3465,-1.010,-0.285
3466,-0.995,-0.290
3467,-0.980,-0.270
3468,-0.950,-0.270
3469,-0.925,-0.265
3470,-0.890,-0.260
3471,-0.845,-0.235
3472,-0.780,-0.220
3473,-0.730,-0.205
3474,-0.695,-0.185
3475,-0.665,-0.185
3476,-0.635,-0.195
3477,-0.605,-0.215
3478,-0.545,-0.220
3479,-0.505,-0.230
3480,-0.460,-0.235
3481,-0.410,-0.240
3482,-0.370,-0.240
3483,-0.325,-0.240
3484,-0.285,-0.250
3485,-0.250,-0.260
3486,-0.185,-0.260
3487,-0.145,-0.280
3488,-0.110,-0.290
3489,-0.075,-0.315
3490,-0.070,-0.340
3491,-0.065,-0.350
3492,-0.060,-0.385
3493,-0.045,-0.390
3494,-0.015,-0.410
3495,0.005,-0.415
3496,0.030,-0.420
3497,0.035,-0.430
3498,0.045,-0.430
3499,0.035,-0.460
3500,0.025,-0.470
3501,0.010,-0.500
3502,-0.010,-0.525
3503,-0.015,-0.550
3504,-0.040,-0.550
3505,-0.070,-0.545
3506,-0.085,-0.520
3507,-0.120,-0.535
3508,-0.135,-0.525
3509,-0.150,-0.520
3510,-0.170,-0.525
3511,-0.170,-0.525
3512,-0.175,-0.535
3513,-0.200,-0.530
3514,-0.240,-0.535
3515,-0.270,-0.530
3516,-0.310,-0.525
3517,-0.340,-0.505
3518,-0.355,-0.505
3519,-0.365,-0.495
3520,-0.395,-0.485
3521,-0.415,-0.465
3522,-0.440,-0.445
3523,-0.475,-0.440
3524,-0.490,-0.430
3525,-0.515,-0.425
3526,-0.525,-0.420
3527,-0.540,-0.440
3528,-0.560,-0.435
3529,-0.570,-0.415
3530,-0.595,-0.380
3531,-0.615,-0.350
3532,-0.630,-0.305
3533,-0.645,-0.270
3534,-0.640,-0.235
3535,-0.635,-0.190
3536,-0.625,-0.170
3537,-0.635,-0.150
3538,-0.655,-0.125
3539,-0.660,-0.125
3540,-0.685,-0.150
3541,-0.670,-0.155
3542,-0.665,-0.190
3543,-0.615,-0.205
3544,-0.560,-0.230
3545,-0.530,-0.225
3546,-0.485,-0.255
3547,-0.465,-0.295
3548,-0.455,-0.320
3549,-0.445,-0.360
3550,-0.440,-0.410
3551,-0.420,-0.435
3552,-0.395,-0.470
3553,-0.370,-0.490
3554,-0.360,-0.495
3555,-0.350,-0.475
3556,-0.350,-0.475
3557,-0.370,-0.480
3558,-0.390,-0.475
3559,-0.420,-0.495
3560,-0.455,-0.505
3561,-0.505,-0.525
3562,-0.560,-0.555
3563,-0.625,-0.575
3564,-0.695,-0.580
3565,-0.750,-0.585
3566,-0.780,-0.590
3567,-0.795,-0.575
3568,-0.795,-0.570
3569,-0.770,-0.575
3570,-0.745,-0.580
3571,-0.750,-0.600
3572,-0.765,-0.595
3573,-0.770,-0.610
3574,-0.785,-0.620
3575,-0.790,-0.625
3576,-0.790,-0.625
3577,-0.780,-0.620
3578,-0.775,-0.625
3579,-0.780,-0.620
3580,-0.780,-0.615
3581,-0.775,-0.610
3582,-0.765,-0.605
3583,-0.760,-0.600
3584,-0.755,-0.580
3585,-0.745,-0.575
3586,-0.745,-0.545
3587,-0.765,-0.510
3588,-0.790,-0.465
3589,-0.820,-0.420
3590,-0.855,-0.400
3591,-0.870,-0.450
3592,-0.840,-0.580
3593,-0.780,-0.775
3594,-0.660,-1.075
3595,-0.495,-1.460
3596,-0.280,-1.860
3597,-0.020,-2.225
3598,0.325,-2.505
3599,0.695,-2.690
3600,1.130,-2.800
3601,1.510,-2.835
3602,1.765,-2.815
3603,1.845,-2.785
3604,1.710,-2.730
3605,1.420,-2.700
3606,1.020,-2.670
3607,0.565,-2.630
3608,0.100,-2.490
3609,-0.310,-2.235
3610,-0.645,-1.865
3611,-0.925,-1.490
3612,-1.150,-1.180
3613,-1.325,-0.970
3614,-1.415,-0.855
3615,-1.420,-0.835
3616,-1.350,-0.825
3617,-1.220,-0.835
3618,-1.075,-0.830
3619,-0.980,-0.815
3620,-0.940,-0.795
3621,-0.965,-0.765
3622,-1.015,-0.770
3623,-1.070,-0.760
3624,-1.095,-0.750
3625,-1.100,-0.735
3626,-1.100,-0.725
3627,-1.090,-0.690
3628,-1.090,-0.680
3629,-1.090,-0.670
3630,-1.105,-0.660
3631,-1.115,-0.655
3632,-1.120,-0.655
3633,-1.115,-0.645
3634,-1.120,-0.650
3635,-1.120,-0.635
3636,-1.130,-0.625
3637,-1.145,-0.620
3638,-1.155,-0.595
3639,-1.160,-0.575
3640,-1.155,-0.565
3641,-1.140,-0.550
3642,-1.130,-0.530
3643,-1.130,-0.520
3644,-1.125,-0.495
3645,-1.130,-0.505
3646,-1.145,-0.500
3647,-1.155,-0.495
3648,-1.155,-0.490
3649,-1.130,-0.470
3650,-1.105,-0.460
3651,-1.075,-0.420
3652,-1.045,-0.390
3653,-1.020,-0.375
3654,-1.005,-0.360
3655,-0.990,-0.350
3656,-0.965,-0.335
3657,-0.945,-0.320
3658,-0.915,-0.310
3659,-0.880,-0.285
3660,-0.850,-0.285
3661,-0.830,-0.270
3662,-0.805,-0.245
3663,-0.770,-0.235
3664,-0.740,-0.220
3665,-0.695,-0.215
3666,-0.635,-0.205
3667,-0.585,-0.190
3668,-0.535,-0.185
3669,-0.490,-0.170
3670,-0.465,-0.160
3671,-0.455,-0.150
3672,-0.425,-0.170
3673,-0.400,-0.170
3674,-0.355,-0.160
3675,-0.310,-0.160
3676,-0.260,-0.150
3677,-0.215,-0.150
3678,-0.170,-0.150
3679,-0.140,-0.155
3680,-0.105,-0.140
3681,-0.050,-0.175
3682,-0.005,-0.185
3683,0.035,-0.205
3684,0.065,-0.240
3685,0.075,-0.250
3686,0.085,-0.255
3687,0.105,-0.260
3688,0.125,-0.265
3689,0.140,-0.275
3690,0.160,-0.285
3691,0.175,-0.305
3692,0.185,-0.325
3693,0.190,-0.345
3694,0.185,-0.360
3695,0.175,-0.385
3696,0.155,-0.390
3697,0.130,-0.395
3698,0.115,-0.410
3699,0.110,-0.415
3700,0.105,-0.430
3701,0.105,-0.445
3702,0.090,-0.455
3703,0.070,-0.470
3704,0.035,-0.475
3705,0.015,-0.480
3706,-0.015,-0.495
3707,-0.035,-0.515
3708,-0.055,-0.545
3709,-0.070,-0.545
3710,-0.100,-0.545
3711,-0.125,-0.545
3712,-0.140,-0.525
3713,-0.155,-0.520
3714,-0.180,-0.505
3715,-0.200,-0.515
3716,-0.230,-0.505
3717,-0.245,-0.515
3718,-0.260,-0.505
3719,-0.295,-0.505
3720,-0.330,-0.500
3721,-0.370,-0.485
3722,-0.405,-0.470
3723,-0.425,-0.455
3724,-0.445,-0.445
3725,-0.465,-0.420
3726,-0.485,-0.415
3727,-0.495,-0.410
3728,-0.520,-0.410
3729,-0.560,-0.400
3730,-0.575,-0.395
3731,-0.585,-0.375
3732,-0.590,-0.360
3733,-0.595,-0.325
3734,-0.610,-0.310
3735,-0.615,-0.295
3736,-0.635,-0.275
3737,-0.640,-0.230
3738,-0.660,-0.205
3739,-0.675,-0.170
3740,-0.670,-0.145
3741,-0.660,-0.130
3742,-0.635,-0.145
3743,-0.605,-0.160
3744,-0.595,-0.195
3745,-0.565,-0.225
3746,-0.540,-0.250
3747,-0.515,-0.265
3748,-0.475,-0.265
3749,-0.445,-0.290
3750,-0.395,-0.315
3751,-0.360,-0.370
3752,-0.335,-0.415
3753,-0.320,-0.445
3754,-0.315,-0.480
3755,-0.310,-0.500
3756,-0.300,-0.505
3757,-0.295,-0.495
3758,-0.300,-0.480
3759,-0.300,-0.485
3760,-0.320,-0.485
3761,-0.370,-0.490
3762,-0.425,-0.510
3763,-0.505,-0.530
3764,-0.570,-0.550
3765,-0.630,-0.555
3766,-0.665,-0.570
3767,-0.685,-0.570
3768,-0.705,-0.580
3769,-0.700,-0.595
3770,-0.715,-0.595
3771,-0.725,-0.610
3772,-0.720,-0.600
3773,-0.725,-0.600
3774,-0.695,-0.580
3775,-0.705,-0.565
3776,-0.690,-0.575
3777,-0.695,-0.590
3778,-0.715,-0.585
3779,-0.715,-0.615
3780,-0.715,-0.620
3781,-0.730,-0.630
3782,-0.735,-0.625
3783,-0.710,-0.605
3784,-0.700,-0.600
3785,-0.685,-0.585
3786,-0.675,-0.575
3787,-0.685,-0.565
3788,-0.705,-0.550
3789,-0.710,-0.525
3790,-0.725,-0.490
3791,-0.735,-0.435
3792,-0.750,-0.380
3793,-0.775,-0.360
3794,-0.780,-0.400
3795,-0.785,-0.530
3796,-0.720,-0.775
3797,-0.640,-1.125
3798,-0.465,-1.530
3799,-0.230,-1.935
3800,0.055,-2.250
3801,0.415,-2.495
3802,0.795,-2.615
3803,1.185,-2.655
3804,1.520,-2.650
3805,1.755,-2.630
3806,1.790,-2.570
3807,1.625,-2.515
3808,1.315,-2.450
3809,0.920,-2.395
3810,0.490,-2.340
3811,0.050,-2.225
3812,-0.340,-2.020
3813,-0.650,-1.745
3814,-0.895,-1.465
3815,-1.115,-1.225
3816,-1.295,-1.065
3817,-1.435,-0.950
3818,-1.490,-0.885
3819,-1.450,-0.845
3820,-1.360,-0.810
3821,-1.235,-0.780
3822,-1.115,-0.760
3823,-1.045,-0.735
3824,-0.990,-0.715
3825,-0.965,-0.705
3826,-0.985,-0.695
3827,-1.005,-0.700
3828,-1.055,-0.695
3829,-1.080,-0.680
3830,-1.095,-0.660
3831,-1.105,-0.650
3832,-1.090,-0.645
3833,-1.085,-0.640
3834,-1.070,-0.625
3835,-1.070,-0.610
3836,-1.080,-0.610
3837,-1.095,-0.600
3838,-1.105,-0.580
3839,-1.130,-0.585
3840,-1.140,-0.575
3841,-1.150,-0.565
3842,-1.155,-0.545
3843,-1.140,-0.530
3844,-1.130,-0.520
3845,-1.135,-0.490
3846,-1.125,-0.475
3847,-1.125,-0.465
3848,-1.125,-0.465
3849,-1.120,-0.465
3850,-1.110,-0.465
3851,-1.125,-0.455
3852,-1.110,-0.450
3853,-1.100,-0.435
3854,-1.100,-0.430
3855,-1.090,-0.395
3856,-1.075,-0.370
3857,-1.060,-0.350
3858,-1.030,-0.335
3859,-1.000,-0.325
3860,-0.965,-0.305
3861,-0.960,-0.300
3862,-0.945,-0.295
3863,-0.925,-0.275
3864,-0.910,-0.275
3865,-0.875,-0.255
3866,-0.845,-0.250
3867,-0.800,-0.240
3868,-0.770,-0.235
3869,-0.740,-0.230
3870,-0.720,-0.200
3871,-0.680,-0.175
3872,-0.665,-0.165
3873,-0.625,-0.165
3874,-0.560,-0.160
3875,-0.525,-0.175
3876,-0.495,-0.190
3877,-0.470,-0.195
3878,-0.435,-0.190
3879,-0.425,-0.185
3880,-0.380,-0.185
3881,-0.345,-0.170
3882,-0.300,-0.175
3883,-0.240,-0.215
3884,-0.200,-0.210
3885,-0.165,-0.240
3886,-0.140,-0.270
3887,-0.130,-0.290
3888,-0.110,-0.300
3889,-0.080,-0.305
3890,-0.040,-0.310
3891,-0.025,-0.330
3892,0.010,-0.345
3893,0.035,-0.365
3894,0.035,-0.385
3895,0.040,-0.400
3896,0.045,-0.410
3897,0.055,-0.430
3898,0.050,-0.440
3899,0.050,-0.460
3900,0.060,-0.470
3901,0.055,-0.480
3902,0.040,-0.490
3903,0.035,-0.500
3904,0.025,-0.500
3905,0.020,-0.505
3906,0.000,-0.505
3907,0.000,-0.510
3908,-0.015,-0.515
3909,-0.040,-0.520
3910,-0.045,-0.540
3911,-0.085,-0.545
3912,-0.110,-0.545
3913,-0.150,-0.550
3914,-0.180,-0.555
3915,-0.190,-0.540
3916,-0.200,-0.530
3917,-0.205,-0.515
3918,-0.215,-0.505
3919,-0.235,-0.500
3920,-0.255,-0.490
3921,-0.295,-0.500
3922,-0.340,-0.490
3923,-0.375,-0.500
3924,-0.405,-0.490
3925,-0.425,-0.470
3926,-0.430,-0.460
3927,-0.445,-0.455
3928,-0.470,-0.430
3929,-0.490,-0.420
3930,-0.520,-0.410
3931,-0.545,-0.390
3932,-0.555,-0.395
3933,-0.565,-0.375
3934,-0.570,-0.370
3935,-0.570,-0.365
3936,-0.590,-0.360
3937,-0.610,-0.335
3938,-0.640,-0.305
3939,-0.645,-0.275
3940,-0.650,-0.240
3941,-0.640,-0.210
3942,-0.620,-0.155
3943,-0.605,-0.135
3944,-0.590,-0.115
3945,-0.590,-0.115
3946,-0.595,-0.145
3947,-0.575,-0.190
3948,-0.560,-0.230
3949,-0.530,-0.240
3950,-0.495,-0.255
3951,-0.455,-0.255
3952,-0.415,-0.270
3953,-0.385,-0.295
3954,-0.360,-0.345
3955,-0.360,-0.400
3956,-0.340,-0.435
3957,-0.325,-0.465
3958,-0.310,-0.465
3959,-0.295,-0.475
3960,-0.300,-0.475
3961,-0.320,-0.470
3962,-0.360,-0.490
3963,-0.400,-0.500
3964,-0.450,-0.515
3965,-0.500,-0.515
3966,-0.540,-0.525
3967,-0.590,-0.540
3968,-0.625,-0.540
3969,-0.670,-0.545
3970,-0.715,-0.555
3971,-0.750,-0.570
3972,-0.760,-0.595
3973,-0.785,-0.590
3974,-0.775,-0.595
3975,-0.755,-0.600
3976,-0.745,-0.600
3977,-0.745,-0.585
3978,-0.735,-0.570
3979,-0.740,-0.580
3980,-0.735,-0.590
3981,-0.745,-0.585
3982,-0.755,-0.615
3983,-0.755,-0.625
3984,-0.750,-0.625
3985,-0.760,-0.630
3986,-0.760,-0.605
3987,-0.750,-0.615
3988,-0.745,-0.605
3989,-0.750,-0.585
3990,-0.735,-0.570
3991,-0.735,-0.540
3992,-0.725,-0.485
3993,-0.735,-0.440
3994,-0.770,-0.400
3995,-0.800,-0.425
3996,-0.825,-0.530
3997,-0.810,-0.730
3998,-0.730,-1.040
3999,-0.570,-1.410
4000,-0.350,-1.775
4001,-0.070,-2.105
4002,0.240,-2.360
4003,0.590,-2.540
4004,0.965,-2.655
4005,1.345,-2.720
4006,1.655,-2.745
4007,1.855,-2.760
4008,1.875,-2.740
4009,1.685,-2.685
4010,1.350,-2.635
4011,0.910,-2.550
4012,0.420,-2.405
4013,-0.055,-2.145
4014,-0.485,-1.790
4015,-0.855,-1.445
4016,-1.145,-1.145
4017,-1.350,-0.950
4018,-1.445,-0.865
4019,-1.435,-0.820
4020,-1.345,-0.825
4021,-1.220,-0.815
4022,-1.100,-0.815
4023,-1.000,-0.800
4024,-0.945,-0.780
4025,-0.950,-0.745
4026,-0.975,-0.730
4027,-1.025,-0.715
4028,-1.050,-0.710
4029,-1.080,-0.710
4030,-1.090,-0.715
4031,-1.085,-0.710
4032,-1.080,-0.710
4033,-1.085,-0.695
4034,-1.095,-0.680
4035,-1.110,-0.660
4036,-1.120,-0.640
4037,-1.115,-0.615
4038,-1.115,-0.590
4039,-1.110,-0.595
4040,-1.110,-0.585
4041,-1.125,-0.590
4042,-1.150,-0.580
4043,-1.160,-0.585
4044,-1.170,-0.570
4045,-1.180,-0.550
4046,-1.175,-0.530
4047,-1.175,-0.500
4048,-1.170,-0.505
4049,-1.160,-0.490
4050,-1.155,-0.455
4051,-1.145,-0.445
4052,-1.145,-0.415
4053,-1.135,-0.410
4054,-1.120,-0.405
4055,-1.105,-0.385
4056,-1.100,-0.390
4057,-1.105,-0.380
4058,-1.095,-0.375
4059,-1.080,-0.345
4060,-1.050,-0.330
4061,-1.040,-0.300
4062,-1.000,-0.280
4063,-0.960,-0.270
4064,-0.915,-0.260
4065,-0.880,-0.260
4066,-0.870,-0.250
4067,-0.840,-0.240
4068,-0.810,-0.235
4069,-0.795,-0.230
4070,-0.735,-0.210
4071,-0.670,-0.185
4072,-0.645,-0.190
4073,-0.595,-0.185
4074,-0.565,-0.175
4075,-0.525,-0.175
4076,-0.500,-0.170
4077,-0.470,-0.175
4078,-0.440,-0.180
4079,-0.365,-0.180
4080,-0.320,-0.190
4081,-0.270,-0.185
4082,-0.225,-0.185
4083,-0.185,-0.205
4084,-0.155,-0.220
4085,-0.115,-0.225
4086,-0.055,-0.220
4087,-0.025,-0.225
4088,0.020,-0.240
4089,0.040,-0.265
4090,0.040,-0.295
4091,0.040,-0.320
4092,0.040,-0.345
4093,0.075,-0.355
4094,0.080,-0.355
4095,0.105,-0.380
4096,0.120,-0.380
4097,0.130,-0.380
4098,0.130,-0.405
4099,0.120,-0.425
4100,0.115,-0.445
4101,0.100,-0.465
4102,0.070,-0.475
4103,0.060,-0.490
4104,0.050,-0.495
4105,0.010,-0.495
4106,-0.010,-0.515
4107,-0.020,-0.520
4108,-0.040,-0.530
4109,-0.060,-0.535
4110,-0.050,-0.535
4111,-0.060,-0.545
4112,-0.070,-0.525
4113,-0.110,-0.530
4114,-0.140,-0.525
4115,-0.170,-0.530
4116,-0.210,-0.550
4117,-0.255,-0.540
4118,-0.265,-0.520
4119,-0.290,-0.515
4120,-0.305,-0.490
4121,-0.320,-0.465
4122,-0.340,-0.450
4123,-0.365,-0.450
4124,-0.390,-0.455
4125,-0.425,-0.455
4126,-0.440,-0.440
4127,-0.455,-0.445
4128,-0.465,-0.425
4129,-0.475,-0.400
4130,-0.490,-0.370
4131,-0.500,-0.345
4132,-0.520,-0.305
4133,-0.535,-0.275
4134,-0.515,-0.240
4135,-0.530,-0.205
4136,-0.515,-0.175
4137,-0.550,-0.145
4138,-0.565,-0.120
4139,-0.570,-0.130
4140,-0.580,-0.155
4141,-0.590,-0.190
4142,-0.550,-0.220
4143,-0.505,-0.250
4144,-0.460,-0.260
4145,-0.400,-0.275
4146,-0.360,-0.300
4147,-0.330,-0.345
4148,-0.325,-0.390
4149,-0.320,-0.445
4150,-0.310,-0.475
4151,-0.310,-0.515
4152,-0.295,-0.540
4153,-0.295,-0.530
4154,-0.285,-0.510
4155,-0.290,-0.510
4156,-0.310,-0.500
4157,-0.335,-0.495
4158,-0.370,-0.505
4159,-0.420,-0.550
4160,-0.475,-0.570
4161,-0.535,-0.570
4162,-0.595,-0.585
4163,-0.650,-0.600
4164,-0.700,-0.615
4165,-0.725,-0.620
4166,-0.725,-0.625
4167,-0.715,-0.625
4168,-0.695,-0.610
4169,-0.700,-0.605
4170,-0.695,-0.600
4171,-0.685,-0.595
4172,-0.680,-0.595
4173,-0.690,-0.595
4174,-0.680,-0.620
4175,-0.685,-0.635
4176,-0.680,-0.650
4177,-0.675,-0.640
4178,-0.690,-0.660
4179,-0.690,-0.650
4180,-0.690,-0.640
4181,-0.700,-0.645
4182,-0.680,-0.620
4183,-0.655,-0.610
4184,-0.650,-0.570
4185,-0.650,-0.545
4186,-0.670,-0.495
4187,-0.690,-0.460
4188,-0.720,-0.460
4189,-0.730,-0.530
4190,-0.705,-0.695
4191,-0.625,-0.950
4192,-0.485,-1.310
4193,-0.285,-1.680
4194,-0.030,-2.055
4195,0.245,-2.385
4196,0.545,-2.605
4197,0.885,-2.780
4198,1.260,-2.870
4199,1.565,-2.925
4200,1.775,-2.930
4201,1.780,-2.905
4202,1.545,-2.860
4203,1.160,-2.795
4204,0.700,-2.730
4205,0.205,-2.605
4206,-0.225,-2.350
4207,-0.600,-1.960
4208,-0.895,-1.575
4209,-1.120,-1.245
4210,-1.270,-1.030
4211,-1.360,-0.910
4212,-1.380,-0.880
4213,-1.325,-0.880
4214,-1.225,-0.885
4215,-1.090,-0.855
4216,-0.985,-0.830
4217,-0.905,-0.810
4218,-0.855,-0.780
4219,-0.880,-0.765
4220,-0.910,-0.750
4221,-0.960,-0.745
4222,-0.990,-0.740
4223,-1.000,-0.725
4224,-1.015,-0.720
4225,-1.025,-0.710
4226,-1.035,-0.695
4227,-1.035,-0.670
4228,-1.055,-0.655
4229,-1.055,-0.650
4230,-1.045,-0.625
4231,-1.045,-0.610
4232,-1.035,-0.595
4233,-1.045,-0.595
4234,-1.055,-0.595
4235,-1.070,-0.600
4236,-1.095,-0.600
4237,-1.110,-0.590
4238,-1.110,-0.560
4239,-1.100,-0.525
4240,-1.085,-0.505
4241,-1.065,-0.470
4242,-1.065,-0.465
4243,-1.070,-0.455
4244,-1.070,-0.460
4245,-1.070,-0.450
4246,-1.065,-0.435
4247,-1.055,-0.425
4248,-1.040,-0.415
4249,-1.030,-0.385
4250,-1.010,-0.365
4251,-0.985,-0.330
4252,-0.980,-0.325
4253,-0.970,-0.315
4254,-0.960,-0.295
4255,-0.945,-0.280
4256,-0.900,-0.270
4257,-0.870,-0.240
4258,-0.835,-0.225
4259,-0.800,-0.200
4260,-0.780,-0.200
4261,-0.740,-0.190
4262,-0.720,-0.180
4263,-0.675,-0.165
4264,-0.640,-0.170
4265,-0.590,-0.150
4266,-0.550,-0.140
4267,-0.515,-0.125
4268,-0.485,-0.110
4269,-0.465,-0.100
4270,-0.450,-0.115
4271,-0.420,-0.105
4272,-0.390,-0.130
4273,-0.340,-0.120
4274,-0.295,-0.120
4275,-0.250,-0.120
4276,-0.200,-0.100
4277,-0.160,-0.100
4278,-0.110,-0.105
4279,-0.080,-0.120
4280,-0.060,-0.145
4281,-0.030,-0.170
4282,-0.005,-0.185
4283,0.015,-0.200
4284,0.040,-0.210
4285,0.055,-0.215
4286,0.065,-0.230
4287,0.080,-0.240
4288,0.095,-0.245
4289,0.115,-0.265
4290,0.110,-0.270
4291,0.125,-0.300
4292,0.130,-0.310
4293,0.135,-0.330
4294,0.120,-0.340
4295,0.105,-0.360
4296,0.095,-0.365
4297,0.080,-0.390
4298,0.070,-0.415
4299,0.065,-0.420
4300,0.065,-0.435
4301,0.065,-0.440
4302,0.045,-0.455
4303,0.025,-0.475
4304,0.000,-0.480
4305,-0.035,-0.485
4306,-0.065,-0.495
4307,-0.100,-0.515
4308,-0.120,-0.525
4309,-0.140,-0.530
4310,-0.175,-0.520
4311,-0.185,-0.490
4312,-0.210,-0.475
4313,-0.245,-0.470
4314,-0.270,-0.470
4315,-0.300,-0.470
4316,-0.300,-0.475
4317,-0.330,-0.465
4318,-0.370,-0.455
4319,-0.395,-0.455
4320,-0.445,-0.445
4321,-0.485,-0.435
4322,-0.520,-0.425
4323,-0.520,-0.410
4324,-0.540,-0.405
4325,-0.550,-0.390
4326,-0.560,-0.370
4327,-0.575,-0.355
4328,-0.590,-0.340
4329,-0.625,-0.335
4330,-0.655,-0.350
4331,-0.660,-0.345
4332,-0.655,-0.335
4333,-0.665,-0.320
4334,-0.665,-0.285
4335,-0.670,-0.255
4336,-0.685,-0.210
4337,-0.700,-0.175
4338,-0.680,-0.150
4339,-0.670,-0.125
4340,-0.650,-0.125
4341,-0.640,-0.135
4342,-0.620,-0.175
4343,-0.590,-0.200
4344,-0.560,-0.225
4345,-0.525,-0.235
4346,-0.495,-0.245
4347,-0.435,-0.275
4348,-0.405,-0.310
4349,-0.365,-0.340
4350,-0.345,-0.365
4351,-0.340,-0.390
4352,-0.335,-0.410
4353,-0.335,-0.425
4354,-0.340,-0.435
4355,-0.340,-0.455
4356,-0.355,-0.465
4357,-0.370,-0.490
4358,-0.425,-0.495
4359,-0.475,-0.495
4360,-0.555,-0.505
4361,-0.630,-0.500
4362,-0.685,-0.510
4363,-0.695,-0.520
4364,-0.705,-0.515
4365,-0.705,-0.530
4366,-0.690,-0.535
4367,-0.695,-0.555
4368,-0.690,-0.555
4369,-0.705,-0.560
4370,-0.720,-0.565
4371,-0.720,-0.560
4372,-0.725,-0.555
4373,-0.740,-0.560
4374,-0.740,-0.565
4375,-0.745,-0.570
4376,-0.740,-0.560
4377,-0.740,-0.555
4378,-0.740,-0.570
4379,-0.735,-0.580
4380,-0.725,-0.595
4381,-0.715,-0.590
4382,-0.715,-0.605
4383,-0.720,-0.595
4384,-0.715,-0.555
4385,-0.710,-0.505
4386,-0.710,-0.450
4387,-0.710,-0.375
4388,-0.730,-0.340
4389,-0.735,-0.360
4390,-0.765,-0.460
4391,-0.755,-0.655
4392,-0.700,-0.975
4393,-0.575,-1.360
4394,-0.365,-1.755
4395,-0.055,-2.110
4396,0.305,-2.340
4397,0.730,-2.485
4398,1.130,-2.545
4399,1.525,-2.540
4400,1.800,-2.505
4401,1.895,-2.455
4402,1.775,-2.405
4403,1.475,-2.330
4404,1.045,-2.240
4405,0.545,-2.135
4406,0.025,-1.910
4407,-0.460,-1.640
4408,-0.865,-1.375
4409,-1.205,-1.145
4410,-1.425,-0.970
4411,-1.535,-0.860
4412,-1.520,-0.795
4413,-1.435,-0.765
4414,-1.310,-0.750
4415,-1.180,-0.720
4416,-1.100,-0.725
4417,-1.040,-0.685
4418,-1.020,-0.680
4419,-1.020,-0.650
4420,-1.035,-0.645
4421,-1.050,-0.620
4422,-1.070,-0.620
4423,-1.100,-0.615
4424,-1.110,-0.615
4425,-1.115,-0.625
4426,-1.120,-0.630
4427,-1.110,-0.610
4428,-1.115,-0.610
4429,-1.120,-0.580
4430,-1.120,-0.565
4431,-1.140,-0.570
4432,-1.135,-0.560
4433,-1.150,-0.550
4434,-1.140,-0.535
4435,-1.135,-0.515
4436,-1.135,-0.495
4437,-1.135,-0.490
4438,-1.135,-0.485
4439,-1.145,-0.480
4440,-1.140,-0.495
4441,-1.145,-0.485
4442,-1.140,-0.470
4443,-1.115,-0.450
4444,-1.095,-0.430
4445,-1.080,-0.400
4446,-1.075,-0.375
4447,-1.060,-0.375
4448,-1.045,-0.355
4449,-1.045,-0.355
4450,-1.025,-0.340
4451,-1.005,-0.320
4452,-0.975,-0.310
4453,-0.955,-0.285
4454,-0.935,-0.265
4455,-0.910,-0.265
4456,-0.900,-0.250
4457,-0.860,-0.235
4458,-0.820,-0.215
4459,-0.755,-0.210
4460,-0.720,-0.195
4461,-0.695,-0.175
4462,-0.670,-0.180
4463,-0.645,-0.200
4464,-0.615,-0.200
4465,-0.590,-0.200
4466,-0.545,-0.200
4467,-0.495,-0.190
4468,-0.455,-0.165
4469,-0.430,-0.140
4470,-0.390,-0.145
4471,-0.355,-0.160
4472,-0.315,-0.180
4473,-0.270,-0.200
4474,-0.235,-0.210
4475,-0.195,-0.230
4476,-0.170,-0.250
4477,-0.160,-0.265
4478,-0.140,-0.275
4479,-0.105,-0.290
4480,-0.060,-0.320
4481,-0.025,-0.350
4482,0.010,-0.355
4483,0.040,-0.370
4484,0.045,-0.380
4485,0.040,-0.395
4486,0.035,-0.405
4487,0.020,-0.425
4488,0.015,-0.445
4489,0.015,-0.465
4490,0.020,-0.485
4491,0.025,-0.480
4492,0.020,-0.485
4493,-0.005,-0.480
4494,-0.005,-0.485
4495,-0.025,-0.495
4496,-0.030,-0.505
4497,-0.040,-0.510
4498,-0.065,-0.525
4499,-0.095,-0.525
4500,-0.140,-0.525
4501,-0.180,-0.510
4502,-0.210,-0.495
4503,-0.220,-0.495
4504,-0.265,-0.505
4505,-0.270,-0.485
4506,-0.280,-0.480
4507,-0.295,-0.455
4508,-0.335,-0.450
4509,-0.380,-0.430
4510,-0.415,-0.420
4511,-0.445,-0.415
4512,-0.470,-0.415
4513,-0.490,-0.410
4514,-0.505,-0.405
4515,-0.535,-0.390
4516,-0.560,-0.370
4517,-0.570,-0.360
4518,-0.575,-0.355
4519,-0.575,-0.345
4520,-0.585,-0.340
4521,-0.590,-0.335
4522,-0.585,-0.340
4523,-0.600,-0.320
4524,-0.620,-0.300
4525,-0.645,-0.275
4526,-0.650,-0.230
4527,-0.645,-0.200
4528,-0.655,-0.160
4529,-0.650,-0.110
4530,-0.620,-0.090
4531,-0.605,-0.085
4532,-0.605,-0.100
4533,-0.590,-0.130
4534,-0.585,-0.155
4535,-0.555,-0.175
4536,-0.520,-0.215
4537,-0.485,-0.230
4538,-0.430,-0.265
4539,-0.410,-0.305
4540,-0.385,-0.335
4541,-0.365,-0.360
4542,-0.355,-0.375
4543,-0.335,-0.385
4544,-0.305,-0.400
4545,-0.305,-0.410
4546,-0.310,-0.420
4547,-0.340,-0.440
4548,-0.385,-0.455
4549,-0.450,-0.465
4550,-0.510,-0.480
4551,-0.570,-0.485
4552,-0.625,-0.470
4553,-0.650,-0.470
4554,-0.665,-0.485
4555,-0.710,-0.500
4556,-0.730,-0.510
4557,-0.750,-0.530
4558,-0.770,-0.535
4559,-0.775,-0.535
4560,-0.770,-0.540
4561,-0.780,-0.550
4562,-0.775,-0.545
4563,-0.780,-0.545
4564,-0.785,-0.545
4565,-0.790,-0.550
4566,-0.790,-0.540
4567,-0.770,-0.535
4568,-0.765,-0.545
4569,-0.740,-0.550
4570,-0.750,-0.555
4571,-0.760,-0.560
4572,-0.780,-0.565
4573,-0.795,-0.575
4574,-0.805,-0.570
4575,-0.815,-0.545
4576,-0.800,-0.525
4577,-0.795,-0.455
4578,-0.785,-0.395
4579,-0.795,-0.365
4580,-0.805,-0.375
4581,-0.815,-0.500
4582,-0.800,-0.735
4583,-0.720,-1.050
4584,-0.555,-1.430
4585,-0.335,-1.795
4586,-0.055,-2.120
4587,0.265,-2.355
4588,0.615,-2.525
4589,0.985,-2.620
4590,1.360,-2.660
4591,1.675,-2.660
4592,1.825,-2.630
4593,1.800,-2.575
4594,1.570,-2.515
4595,1.190,-2.460
4596,0.720,-2.375
4597,0.220,-2.200
4598,-0.285,-1.910
4599,-0.700,-1.570
4600,-1.050,-1.260
4601,-1.315,-1.030
4602,-1.475,-0.875
4603,-1.530,-0.815
4604,-1.500,-0.790
4605,-1.385,-0.790
4606,-1.240,-0.785
4607,-1.105,-0.780
4608,-1.020,-0.750
4609,-0.980,-0.725
4610,-1.000,-0.690
4611,-1.025,-0.675
4612,-1.070,-0.665
4613,-1.095,-0.660
4614,-1.120,-0.655
4615,-1.115,-0.660
4616,-1.105,-0.655
4617,-1.100,-0.645
4618,-1.105,-0.640
4619,-1.095,-0.630
4620,-1.115,-0.630
4621,-1.135,-0.610
4622,-1.170,-0.600
4623,-1.190,-0.595
4624,-1.195,-0.575
4625,-1.185,-0.565
4626,-1.175,-0.540
4627,-1.165,-0.525
4628,-1.170,-0.525
4629,-1.170,-0.515
4630,-1.195,-0.520
4631,-1.215,-0.520
4632,-1.210,-0.525
4633,-1.220,-0.520
4634,-1.220,-0.500
4635,-1.210,-0.470
4636,-1.195,-0.440
4637,-1.200,-0.425
4638,-1.195,-0.395
4639,-1.185,-0.390
4640,-1.175,-0.385
4641,-1.160,-0.370
4642,-1.145,-0.370
4643,-1.130,-0.355
4644,-1.125,-0.355
4645,-1.115,-0.335
4646,-1.110,-0.325
4647,-1.100,-0.300
4648,-1.090,-0.290
4649,-1.045,-0.270
4650,-1.010,-0.265
4651,-0.970,-0.250
4652,-0.940,-0.230
4653,-0.910,-0.215
4654,-0.890,-0.205
4655,-0.865,-0.200
4656,-0.840,-0.215
4657,-0.800,-0.205
4658,-0.760,-0.215
4659,-0.720,-0.205
4660,-0.680,-0.185
4661,-0.640,-0.185
4662,-0.625,-0.160
4663,-0.570,-0.165
4664,-0.540,-0.150
4665,-0.500,-0.170
4666,-0.435,-0.190
4667,-0.395,-0.190
4668,-0.350,-0.215
4669,-0.315,-0.215
4670,-0.280,-0.220
4671,-0.230,-0.215
4672,-0.195,-0.220
4673,-0.150,-0.225
4674,-0.110,-0.240
4675,-0.060,-0.255
4676,-0.020,-0.285
4677,0.005,-0.315
4678,0.015,-0.320
4679,0.030,-0.330
4680,0.035,-0.335
4681,0.050,-0.370
4682,0.060,-0.365
4683,0.075,-0.390
4684,0.080,-0.405
4685,0.075,-0.405
4686,0.075,-0.420
4687,0.065,-0.420
4688,0.050,-0.420
4689,0.040,-0.430
4690,0.035,-0.440
4691,0.025,-0.465
4692,0.010,-0.475
4693,0.000,-0.500
4694,-0.030,-0.500
4695,-0.060,-0.495
4696,-0.080,-0.495
4697,-0.100,-0.480
4698,-0.120,-0.485
4699,-0.125,-0.495
4700,-0.140,-0.495
4701,-0.170,-0.495
4702,-0.200,-0.490
4703,-0.245,-0.490
4704,-0.280,-0.480
4705,-0.315,-0.465
4706,-0.335,-0.450
4707,-0.350,-0.440
4708,-0.370,-0.430
4709,-0.400,-0.415
4710,-0.430,-0.410
4711,-0.450,-0.390
4712,-0.465,-0.390
4713,-0.480,-0.380
4714,-0.485,-0.360
4715,-0.505,-0.350
4716,-0.520,-0.315
4717,-0.540,-0.300
4718,-0.550,-0.265
4719,-0.575,-0.230
4720,-0.580,-0.195
4721,-0.580,-0.160
4722,-0.560,-0.105
4723,-0.555,-0.090
4724,-0.550,-0.085
4725,-0.560,-0.095
4726,-0.555,-0.120
4727,-0.560,-0.145
4728,-0.545,-0.185
4729,-0.520,-0.190
4730,-0.490,-0.210
4731,-0.440,-0.240
4732,-0.405,-0.280
4733,-0.395,-0.315
4734,-0.360,-0.360
4735,-0.350,-0.385
4736,-0.330,-0.405
4737,-0.300,-0.400
4738,-0.285,-0.405
4739,-0.290,-0.400
4740,-0.315,-0.410
4741,-0.350,-0.430
4742,-0.400,-0.445
4743,-0.455,-0.465
4744,-0.505,-0.480
4745,-0.555,-0.480
4746,-0.595,-0.465
4747,-0.635,-0.485
4748,-0.665,-0.480
4749,-0.700,-0.495
4750,-0.740,-0.520
4751,-0.740,-0.540
4752,-0.740,-0.545
4753,-0.730,-0.540
4754,-0.725,-0.535
4755,-0.720,-0.530
4756,-0.715,-0.515
4757,-0.740,-0.525
4758,-0.735,-0.525
4759,-0.750,-0.545
4760,-0.745,-0.545
4761,-0.740,-0.540
4762,-0.725,-0.550
4763,-0.725,-0.540
4764,-0.735,-0.555
4765,-0.745,-0.565
4766,-0.755,-0.555
4767,-0.750,-0.540
4768,-0.740,-0.515
4769,-0.730,-0.490
4770,-0.740,-0.430
4771,-0.740,-0.380
4772,-0.745,-0.360
4773,-0.765,-0.375
4774,-0.785,-0.470
4775,-0.770,-0.665
4776,-0.695,-0.985
4777,-0.525,-1.390
4778,-0.295,-1.805
4779,0.045,-2.190
4780,0.440,-2.470
4781,0.905,-2.655
4782,1.365,-2.740
4783,1.730,-2.755
4784,1.925,-2.735
4785,1.925,-2.675
4786,1.705,-2.635
4787,1.340,-2.585
4788,0.895,-2.525
4789,0.400,-2.420
4790,-0.030,-2.165
4791,-0.410,-1.805
4792,-0.735,-1.380
4793,-1.015,-1.050
4794,-1.205,-0.825
4795,-1.290,-0.720
4796,-1.285,-0.720
4797,-1.195,-0.745
4798,-1.070,-0.780
4799,-0.955,-0.790
4800,-0.890,-0.785
4801,-0.880,-0.750
4802,-0.915,-0.730
4803,-0.950,-0.695
4804,-1.010,-0.680
4805,-1.040,-0.675
4806,-1.045,-0.660
4807,-1.040,-0.650
4808,-1.020,-0.650
4809,-1.020,-0.640
4810,-1.030,-0.615
4811,-1.050,-0.605
4812,-1.075,-0.605
4813,-1.090,-0.590
4814,-1.105,-0.575
4815,-1.105,-0.565
4816,-1.105,-0.555
4817,-1.105,-0.525
4818,-1.105,-0.505
4819,-1.105,-0.480
4820,-1.125,-0.480
4821,-1.135,-0.465
4822,-1.135,-0.465
4823,-1.140,-0.465
4824,-1.145,-0.465
4825,-1.160,-0.450
4826,-1.165,-0.410
4827,-1.155,-0.405
4828,-1.150,-0.380
4829,-1.155,-0.360
4830,-1.135,-0.350
4831,-1.115,-0.330
4832,-1.100,-0.330
4833,-1.085,-0.310
4834,-1.065,-0.295
4835,-1.055,-0.285
4836,-1.035,-0.270
4837,-1.015,-0.255
4838,-0.985,-0.245
4839,-0.960,-0.225
4840,-0.950,-0.200
4841,-0.905,-0.175
4842,-0.870,-0.155
4843,-0.840,-0.130
4844,-0.785,-0.125
4845,-0.725,-0.100
4846,-0.685,-0.115
4847,-0.630,-0.110
4848,-0.595,-0.130
4849,-0.565,-0.115
4850,-0.530,-0.110
4851,-0.490,-0.090
4852,-0.435,-0.070
4853,-0.380,-0.065
4854,-0.325,-0.060
4855,-0.270,-0.065
4856,-0.240,-0.070
4857,-0.195,-0.090
4858,-0.150,-0.090
4859,-0.125,-0.100
4860,-0.085,-0.115
4861,-0.040,-0.130
4862,0.000,-0.145
4863,0.030,-0.150
4864,0.055,-0.155
4865,0.085,-0.170
4866,0.100,-0.175
4867,0.115,-0.185
4868,0.140,-0.200
4869,0.150,-0.205
4870,0.165,-0.220
4871,0.165,-0.250
4872,0.175,-0.260
4873,0.165,-0.290
4874,0.155,-0.300
4875,0.140,-0.305
4876,0.130,-0.320
4877,0.135,-0.335
4878,0.140,-0.345
4879,0.135,-0.350
4880,0.130,-0.375
4881,0.105,-0.390
4882,0.090,-0.405
4883,0.065,-0.435
4884,0.025,-0.445
4885,0.005,-0.460
4886,0.000,-0.455
4887,-0.015,-0.455
4888,-0.020,-0.440
4889,-0.035,-0.435
4890,-0.050,-0.430
4891,-0.080,-0.425
4892,-0.100,-0.430
4893,-0.115,-0.425
4894,-0.140,-0.420
4895,-0.165,-0.415
4896,-0.205,-0.415
4897,-0.245,-0.405
4898,-0.290,-0.395
4899,-0.320,-0.390
4900,-0.345,-0.375
4901,-0.350,-0.345
4902,-0.360,-0.320
4903,-0.370,-0.310
4904,-0.375,-0.295
4905,-0.410,-0.295
4906,-0.425,-0.290
4907,-0.440,-0.280
4908,-0.460,-0.260
4909,-0.465,-0.225
4910,-0.450,-0.185
4911,-0.450,-0.155
4912,-0.460,-0.115
4913,-0.460,-0.115
4914,-0.465,-0.115
4915,-0.445,-0.150
4916,-0.425,-0.170
4917,-0.405,-0.215
4918,-0.370,-0.245
4919,-0.340,-0.265
4920,-0.310,-0.295
4921,-0.295,-0.340
4922,-0.280,-0.375
4923,-0.270,-0.410
4924,-0.255,-0.425
4925,-0.220,-0.445
4926,-0.190,-0.450
4927,-0.175,-0.440
4928,-0.175,-0.440
4929,-0.180,-0.435
4930,-0.200,-0.455
4931,-0.240,-0.485
4932,-0.285,-0.510
4933,-0.340,-0.540
4934,-0.400,-0.530
4935,-0.460,-0.535
4936,-0.515,-0.540
4937,-0.570,-0.545
4938,-0.615,-0.540
4939,-0.640,-0.540
4940,-0.650,-0.560
4941,-0.615,-0.560
4942,-0.605,-0.560
4943,-0.605,-0.580
4944,-0.610,-0.590
4945,-0.620,-0.585
4946,-0.645,-0.590
4947,-0.650,-0.600
4948,-0.655,-0.610
4949,-0.650,-0.595
4950,-0.645,-0.595
4951,-0.635,-0.590
4952,-0.620,-0.595
4953,-0.615,-0.590
4954,-0.615,-0.590
4955,-0.630,-0.605
4956,-0.630,-0.610
4957,-0.650,-0.625
4958,-0.645,-0.615
4959,-0.625,-0.600
4960,-0.615,-0.560
4961,-0.625,-0.520
4962,-0.620,-0.445
4963,-0.635,-0.415
4964,-0.650,-0.420
4965,-0.650,-0.510
4966,-0.630,-0.690
4967,-0.570,-1.000
4968,-0.420,-1.390
4969,-0.215,-1.805
4970,0.065,-2.185
4971,0.400,-2.490
4972,0.805,-2.685
4973,1.215,-2.825
4974,1.590,-2.870
4975,1.860,-2.870
4976,1.935,-2.860
4977,1.800,-2.820
4978,1.490,-2.790
4979,1.090,-2.755
4980,0.650,-2.715
4981,0.215,-2.660
4982,-0.140,-2.495
4983,-0.435,-2.185
4984,-0.655,-1.785
4985,-0.855,-1.380
4986,-1.020,-1.055
4987,-1.160,-0.855
4988,-1.220,-0.780
4989,-1.195,-0.770
4990,-1.100,-0.790
4991,-0.990,-0.825
4992,-0.895,-0.830
4993,-0.825,-0.825
4994,-0.810,-0.795
4995,-0.820,-0.755
4996,-0.865,-0.745
4997,-0.895,-0.715
4998,-0.905,-0.695
4999,-0.890,-0.680
5000,-0.885,-0.680
5001,-0.885,-0.670
5002,-0.875,-0.665
5003,-0.890,-0.675
5004,-0.905,-0.665
5005,-0.925,-0.660
5006,-0.930,-0.645
5007,-0.935,-0.635
5008,-0.940,-0.615
5009,-0.935,-0.600
5010,-0.925,-0.580
5011,-0.940,-0.555
5012,-0.945,-0.550
5013,-0.950,-0.530
5014,-0.965,-0.515
5015,-0.955,-0.520
5016,-0.960,-0.525
5017,-0.945,-0.530
5018,-0.950,-0.520
5019,-0.955,-0.510
5020,-0.960,-0.485
5021,-0.965,-0.445
5022,-0.970,-0.425
5023,-0.945,-0.405
5024,-0.920,-0.385
5025,-0.880,-0.365
5026,-0.865,-0.365
5027,-0.850,-0.340
5028,-0.835,-0.335
5029,-0.825,-0.325
5030,-0.815,-0.295
5031,-0.780,-0.275
5032,-0.750,-0.250
5033,-0.705,-0.230
5034,-0.680,-0.210
5035,-0.670,-0.195
5036,-0.645,-0.175
5037,-0.630,-0.175
5038,-0.605,-0.165
5039,-0.565,-0.140
5040,-0.510,-0.140
5041,-0.475,-0.110
5042,-0.440,-0.100
5043,-0.395,-0.085
5044,-0.365,-0.070
5045,-0.325,-0.070
5046,-0.275,-0.075
5047,-0.230,-0.060
5048,-0.175,-0.065
5049,-0.135,-0.055
5050,-0.100,-0.050
5051,-0.070,-0.050
5052,-0.060,-0.075
5053,-0.040,-0.080
5054,-0.015,-0.090
5055,0.030,-0.095
5056,0.065,-0.095
5057,0.115,-0.105
5058,0.160,-0.100
5059,0.175,-0.120
5060,0.200,-0.145
5061,0.200,-0.170
5062,0.195,-0.205
5063,0.190,-0.225
5064,0.200,-0.250
5065,0.205,-0.255
5066,0.195,-0.250
5067,0.175,-0.265
5068,0.170,-0.265
5069,0.160,-0.280
5070,0.160,-0.290
5071,0.165,-0.320
5072,0.160,-0.335
5073,0.155,-0.345
5074,0.140,-0.370
5075,0.095,-0.385
5076,0.070,-0.410
5077,0.035,-0.425
5078,-0.005,-0.455
5079,-0.020,-0.455
5080,-0.045,-0.455
5081,-0.065,-0.435
5082,-0.090,-0.445
5083,-0.120,-0.440
5084,-0.120,-0.425
5085,-0.150,-0.430
5086,-0.175,-0.445
5087,-0.195,-0.450
5088,-0.220,-0.450
5089,-0.240,-0.445
5090,-0.255,-0.430
5091,-0.290,-0.405
5092,-0.325,-0.385
5093,-0.360,-0.380
5094,-0.395,-0.390
5095,-0.410,-0.385
5096,-0.430,-0.385
5097,-0.470,-0.375
5098,-0.495,-0.360
5099,-0.525,-0.350
5100,-0.545,-0.345
5101,-0.570,-0.335
5102,-0.580,-0.325
5103,-0.595,-0.305
5104,-0.585,-0.290
5105,-0.585,-0.270
5106,-0.585,-0.215
5107,-0.580,-0.205
5108,-0.580,-0.190
5109,-0.585,-0.155
5110,-0.590,-0.145
5111,-0.595,-0.120
5112,-0.595,-0.115
5113,-0.595,-0.130
5114,-0.580,-0.130
5115,-0.560,-0.155
5116,-0.515,-0.175
5117,-0.460,-0.190
5118,-0.420,-0.220
5119,-0.365,-0.240
5120,-0.345,-0.290
5121,-0.320,-0.320
5122,-0.310,-0.365
5123,-0.325,-0.390
5124,-0.305,-0.405
5125,-0.280,-0.425
5126,-0.260,-0.430
5127,-0.250,-0.425
5128,-0.255,-0.435
5129,-0.275,-0.440
5130,-0.335,-0.445
5131,-0.375,-0.445
5132,-0.455,-0.470
5133,-0.525,-0.480
5134,-0.575,-0.510
5135,-0.605,-0.535
5136,-0.640,-0.550
5137,-0.660,-0.555
5138,-0.665,-0.555
5139,-0.680,-0.555
5140,-0.675,-0.535
5141,-0.655,-0.545
5142,-0.645,-0.540
5143,-0.645,-0.540
5144,-0.650,-0.550
5145,-0.660,-0.560
5146,-0.680,-0.565
5147,-0.695,-0.565
5148,-0.710,-0.575
5149,-0.700,-0.575
5150,-0.670,-0.570
5151,-0.660,-0.580
5152,-0.650,-0.565
5153,-0.645,-0.570
5154,-0.645,-0.540
5155,-0.650,-0.540
5156,-0.660,-0.515
5157,-0.660,-0.475
5158,-0.655,-0.440
5159,-0.655,-0.405
5160,-0.670,-0.375
5161,-0.685,-0.395
5162,-0.715,-0.495
5163,-0.710,-0.710
5164,-0.610,-1.030
5165,-0.445,-1.445
5166,-0.195,-1.840
5167,0.130,-2.170
5168,0.540,-2.420
5169,0.980,-2.545
5170,1.410,-2.590
5171,1.775,-2.570
5172,1.985,-2.530
5173,1.970,-2.480
5174,1.720,-2.415
5175,1.340,-2.350
5176,0.880,-2.270
5177,0.420,-2.155
5178,-0.030,-1.950
5179,-0.430,-1.685
5180,-0.785,-1.395
5181,-1.085,-1.155
5182,-1.315,-0.970
5183,-1.445,-0.885
5184,-1.475,-0.830
5185,-1.405,-0.810
5186,-1.300,-0.770
5187,-1.165,-0.730
5188,-1.050,-0.685
5189,-0.970,-0.660
5190,-0.925,-0.620
5191,-0.935,-0.595
5192,-0.965,-0.605
5193,-0.990,-0.610
5194,-1.020,-0.605
5195,-1.035,-0.620
5196,-1.045,-0.620
5197,-1.040,-0.620
5198,-1.050,-0.605
5199,-1.030,-0.590
5200,-1.035,-0.570
5201,-1.040,-0.560
5202,-1.055,-0.545
5203,-1.050,-0.530
5204,-1.060,-0.535
5205,-1.065,-0.510
5206,-1.055,-0.495
5207,-1.045,-0.510
5208,-1.055,-0.485
5209,-1.070,-0.490
5210,-1.080,-0.490
5211,-1.095,-0.475
5212,-1.100,-0.450
5213,-1.090,-0.435
5214,-1.060,-0.410
5215,-1.040,-0.385
5216,-1.020,-0.395
5217,-1.010,-0.375
5218,-1.005,-0.375
5219,-1.010,-0.380
5220,-1.010,-0.365
5221,-1.000,-0.355
5222,-0.985,-0.330
5223,-0.940,-0.315
5224,-0.915,-0.285
5225,-0.890,-0.270
5226,-0.875,-0.265
5227,-0.865,-0.250
5228,-0.845,-0.250
5229,-0.830,-0.240
5230,-0.805,-0.225
5231,-0.765,-0.215
5232,-0.745,-0.200
5233,-0.710,-0.180
5234,-0.705,-0.160
5235,-0.680,-0.155
5236,-0.645,-0.160
5237,-0.615,-0.165
5238,-0.580,-0.145
5239,-0.540,-0.140
5240,-0.505,-0.130
5241,-0.465,-0.115
5242,-0.430,-0.130
5243,-0.405,-0.140
5244,-0.390,-0.145
5245,-0.365,-0.160
5246,-0.330,-0.155
5247,-0.290,-0.160
5248,-0.245,-0.170
5249,-0.200,-0.170
5250,-0.170,-0.160
5251,-0.140,-0.185
5252,-0.105,-0.205
5253,-0.080,-0.220
5254,-0.055,-0.260
5255,-0.030,-0.305
5256,0.000,-0.315
5257,0.020,-0.310
5258,0.035,-0.330
5259,0.025,-0.325
5260,0.025,-0.340
5261,0.045,-0.360
5262,0.060,-0.355
5263,0.065,-0.370
5264,0.085,-0.390
5265,0.095,-0.400
5266,0.080,-0.430
5267,0.065,-0.440
5268,0.040,-0.450
5269,0.015,-0.460
5270,0.010,-0.455
5271,-0.025,-0.465
5272,-0.035,-0.465
5273,-0.050,-0.460
5274,-0.050,-0.450
5275,-0.075,-0.445
5276,-0.100,-0.455
5277,-0.135,-0.445
5278,-0.160,-0.460
5279,-0.190,-0.465
5280,-0.215,-0.480
5281,-0.220,-0.490
5282,-0.255,-0.470
5283,-0.275,-0.455
5284,-0.305,-0.440
5285,-0.325,-0.405
5286,-0.360,-0.410
5287,-0.360,-0.395
5288,-0.380,-0.390
5289,-0.395,-0.375
5290,-0.415,-0.375
5291,-0.440,-0.365
5292,-0.485,-0.355
5293,-0.525,-0.350
5294,-0.560,-0.340
5295,-0.570,-0.345
5296,-0.585,-0.345
5297,-0.565,-0.320
5298,-0.575,-0.325
5299,-0.570,-0.300
5300,-0.570,-0.280
5301,-0.585,-0.255
5302,-0.585,-0.240
5303,-0.600,-0.235
5304,-0.610,-0.225
5305,-0.605,-0.210
5306,-0.605,-0.170
5307,-0.620,-0.145
5308,-0.620,-0.105
5309,-0.610,-0.070
5310,-0.605,-0.070
5311,-0.575,-0.080
5312,-0.540,-0.090
5313,-0.495,-0.130
5314,-0.465,-0.160
5315,-0.440,-0.185
5316,-0.415,-0.205
5317,-0.395,-0.240
5318,-0.380,-0.270
5319,-0.350,-0.300
5320,-0.325,-0.335
5321,-0.285,-0.365
5322,-0.270,-0.380
5323,-0.255,-0.390
5324,-0.250,-0.410
5325,-0.260,-0.405
5326,-0.285,-0.415
5327,-0.315,-0.430
5328,-0.335,-0.440
5329,-0.375,-0.445
5330,-0.415,-0.455
5331,-0.465,-0.470
5332,-0.535,-0.475
5333,-0.590,-0.500
5334,-0.625,-0.510
5335,-0.670,-0.505
5336,-0.675,-0.525
5337,-0.695,-0.525
5338,-0.695,-0.545
5339,-0.685,-0.540
5340,-0.695,-0.555
5341,-0.705,-0.565
5342,-0.710,-0.555
5343,-0.725,-0.555
5344,-0.715,-0.550
5345,-0.720,-0.550
5346,-0.700,-0.545
5347,-0.680,-0.545
5348,-0.685,-0.535
5349,-0.680,-0.545
5350,-0.685,-0.560
5351,-0.700,-0.580
5352,-0.725,-0.585
5353,-0.730,-0.585
5354,-0.735,-0.575
5355,-0.725,-0.560
5356,-0.715,-0.540
5357,-0.700,-0.515
5358,-0.710,-0.475
5359,-0.710,-0.415
5360,-0.740,-0.355
5361,-0.760,-0.325
5362,-0.775,-0.355
5363,-0.795,-0.445
5364,-0.765,-0.600
5365,-0.685,-0.860
5366,-0.555,-1.205
5367,-0.360,-1.595
5368,-0.105,-1.975
5369,0.210,-2.265
5370,0.575,-2.455
5371,0.970,-2.570
5372,1.370,-2.620
5373,1.695,-2.605
5374,1.865,-2.580
5375,1.820,-2.540
5376,1.565,-2.495
5377,1.185,-2.460
5378,0.715,-2.370
5379,0.240,-2.280
5380,-0.185,-2.040
5381,-0.550,-1.725
5382,-0.850,-1.405
5383,-1.100,-1.140
5384,-1.315,-0.995
5385,-1.465,-0.905
5386,-1.515,-0.855
5387,-1.465,-0.835
5388,-1.350,-0.815
5389,-1.205,-0.770
5390,-1.080,-0.745
5391,-0.990,-0.705
5392,-0.955,-0.680
5393,-0.960,-0.670
5394,-1.000,-0.665
5395,-1.025,-0.660
5396,-1.045,-0.655
5397,-1.050,-0.650
5398,-1.050,-0.640
5399,-1.060,-0.645
5400,-1.065,-0.625
5401,-1.090,-0.625
5402,-1.105,-0.630
5403,-1.110,-0.610
5404,-1.120,-0.590
5405,-1.110,-0.565
5406,-1.100,-0.550
5407,-1.100,-0.525
5408,-1.105,-0.520
5409,-1.110,-0.510
5410,-1.125,-0.525
5411,-1.140,-0.525
5412,-1.155,-0.515
5413,-1.155,-0.515
5414,-1.145,-0.500
5415,-1.140,-0.485
5416,-1.145,-0.455
5417,-1.145,-0.425
5418,-1.140,-0.425
5419,-1.130,-0.405
5420,-1.125,-0.410
5421,-1.105,-0.390
5422,-1.095,-0.395
5423,-1.085,-0.380
5424,-1.065,-0.360
5425,-1.065,-0.350
5426,-1.065,-0.330
5427,-1.040,-0.325
5428,-1.025,-0.315
5429,-1.000,-0.300
5430,-0.970,-0.280
5431,-0.950,-0.260
5432,-0.920,-0.240
5433,-0.885,-0.240
5434,-0.870,-0.230
5435,-0.860,-0.230
5436,-0.830,-0.235
5437,-0.785,-0.235
5438,-0.750,-0.230
5439,-0.705,-0.205
5440,-0.660,-0.185
5441,-0.615,-0.170
5442,-0.585,-0.160
5443,-0.550,-0.150
5444,-0.505,-0.155
5445,-0.460,-0.160
5446,-0.425,-0.180
5447,-0.380,-0.180
5448,-0.350,-0.185
5449,-0.325,-0.185
5450,-0.315,-0.205
5451,-0.270,-0.205
5452,-0.235,-0.210
5453,-0.185,-0.205
5454,-0.125,-0.220
5455,-0.070,-0.230
5456,-0.030,-0.245
5457,0.000,-0.255
5458,0.015,-0.265
5459,0.025,-0.295
5460,0.040,-0.320
5461,0.065,-0.335
5462,0.085,-0.370
5463,0.090,-0.380
5464,0.120,-0.385
5465,0.125,-0.400
5466,0.130,-0.405
5467,0.120,-0.410
5468,0.110,-0.425
5469,0.110,-0.425
5470,0.095,-0.455
5471,0.075,-0.470
5472,0.070,-0.485
5473,0.055,-0.495
5474,0.035,-0.500
5475,0.025,-0.495
5476,0.005,-0.485
5477,-0.015,-0.490
5478,-0.015,-0.490
5479,-0.040,-0.500
5480,-0.055,-0.505
5481,-0.100,-0.490
5482,-0.140,-0.490
5483,-0.165,-0.485
5484,-0.200,-0.480
5485,-0.225,-0.475
5486,-0.230,-0.470
5487,-0.250,-0.465
5488,-0.270,-0.450
5489,-0.290,-0.445
5490,-0.325,-0.425
5491,-0.350,-0.405
5492,-0.375,-0.395
5493,-0.390,-0.380
5494,-0.415,-0.380
5495,-0.435,-0.370
5496,-0.460,-0.375
5497,-0.475,-0.350
5498,-0.510,-0.325
5499,-0.550,-0.300
5500,-0.545,-0.270
5501,-0.525,-0.240
5502,-0.515,-0.205
5503,-0.510,-0.175
5504,-0.495,-0.150
5505,-0.515,-0.125
5506,-0.530,-0.110
5507,-0.550,-0.100
5508,-0.550,-0.105
5509,-0.535,-0.125
5510,-0.505,-0.135
5511,-0.480,-0.160
5512,-0.440,-0.175
5513,-0.415,-0.200
5514,-0.375,-0.220
5515,-0.355,-0.235
5516,-0.325,-0.270
5517,-0.310,-0.320
5518,-0.285,-0.350
5519,-0.255,-0.385
5520,-0.235,-0.410
5521,-0.230,-0.425
5522,-0.235,-0.445
5523,-0.245,-0.440
5524,-0.255,-0.435
5525,-0.270,-0.445
5526,-0.295,-0.445
5527,-0.325,-0.445
5528,-0.385,-0.450
5529,-0.445,-0.460
5530,-0.510,-0.485
5531,-0.570,-0.505
5532,-0.610,-0.525
5533,-0.645,-0.540
5534,-0.655,-0.545
5535,-0.645,-0.540
5536,-0.655,-0.530
5537,-0.655,-0.530
5538,-0.645,-0.540
5539,-0.640,-0.535
5540,-0.645,-0.550
5541,-0.655,-0.540
5542,-0.645,-0.550
5543,-0.645,-0.555
5544,-0.645,-0.545
5545,-0.645,-0.555
5546,-0.665,-0.570
5547,-0.675,-0.565
5548,-0.675,-0.590
5549,-0.670,-0.585
5550,-0.655,-0.575
5551,-0.635,-0.560
5552,-0.600,-0.555
5553,-0.595,-0.530
5554,-0.600,-0.535
5555,-0.625,-0.505
5556,-0.650,-0.465
5557,-0.670,-0.435
5558,-0.690,-0.405
5559,-0.715,-0.405
5560,-0.705,-0.485
5561,-0.650,-0.670
5562,-0.560,-0.960
5563,-0.390,-1.345
5564,-0.155,-1.770
5565,0.160,-2.150
5566,0.535,-2.435
5567,0.955,-2.625
5568,1.365,-2.730
5569,1.720,-2.750
5570,1.935,-2.740
5571,1.960,-2.725
5572,1.795,-2.685
5573,1.510,-2.650
5574,1.160,-2.600
5575,0.780,-2.545
5576,0.400,-2.430
5577,0.025,-2.205
5578,-0.345,-1.845
5579,-0.685,-1.475
5580,-0.990,-1.155
5581,-1.220,-0.930
5582,-1.335,-0.810
5583,-1.325,-0.765
5584,-1.215,-0.765
5585,-1.070,-0.770
5586,-0.940,-0.760
5587,-0.845,-0.730
5588,-0.815,-0.710
5589,-0.840,-0.695
5590,-0.880,-0.680
5591,-0.920,-0.680
5592,-0.945,-0.690
5593,-0.965,-0.685
5594,-0.970,-0.675
5595,-0.975,-0.655
5596,-0.975,-0.630
5597,-0.970,-0.610
5598,-0.975,-0.600
5599,-0.975,-0.590
5600,-0.980,-0.605
5601,-0.980,-0.585
5602,-0.985,-0.580
5603,-1.000,-0.585
5604,-1.015,-0.570
5605,-1.040,-0.555
5606,-1.050,-0.565
5607,-1.070,-0.555
5608,-1.065,-0.540
5609,-1.060,-0.540
5610,-1.055,-0.525
5611,-1.045,-0.505
5612,-1.055,-0.490
5613,-1.060,-0.470
5614,-1.055,-0.470
5615,-1.070,-0.445
5616,-1.080,-0.455
5617,-1.070,-0.445
5618,-1.055,-0.415
5619,-1.050,-0.400
5620,-1.045,-0.380
5621,-1.025,-0.375
5622,-1.010,-0.360
5623,-1.000,-0.340
5624,-0.970,-0.335
5625,-0.955,-0.320
5626,-0.925,-0.305
5627,-0.930,-0.300
5628,-0.900,-0.295
5629,-0.880,-0.280
5630,-0.865,-0.255
5631,-0.830,-0.235
5632,-0.780,-0.215
5633,-0.740,-0.195
5634,-0.675,-0.175
5635,-0.620,-0.165
5636,-0.585,-0.160
5637,-0.550,-0.145
5638,-0.510,-0.125
5639,-0.465,-0.125
5640,-0.420,-0.125
5641,-0.385,-0.125
5642,-0.350,-0.130
5643,-0.320,-0.130
5644,-0.280,-0.120
5645,-0.245,-0.115
5646,-0.195,-0.110
5647,-0.155,-0.110
5648,-0.105,-0.120
5649,-0.040,-0.110
5650,0.000,-0.145
5651,0.035,-0.155
5652,0.055,-0.180
5653,0.085,-0.200
5654,0.105,-0.210
5655,0.130,-0.215
5656,0.165,-0.225
5657,0.195,-0.245
5658,0.230,-0.265
5659,0.250,-0.275
5660,0.280,-0.290
5661,0.275,-0.300
5662,0.250,-0.330
5663,0.255,-0.350
5664,0.240,-0.360
5665,0.225,-0.410
5666,0.230,-0.425
5667,0.220,-0.435
5668,0.210,-0.445
5669,0.195,-0.455
5670,0.170,-0.465
5671,0.160,-0.470
5672,0.130,-0.480
5673,0.130,-0.485
5674,0.120,-0.500
5675,0.095,-0.505
5676,0.050,-0.515
5677,0.030,-0.535
5678,0.015,-0.545
5679,-0.010,-0.545
5680,-0.020,-0.530
5681,-0.030,-0.515
5682,-0.045,-0.490
5683,-0.045,-0.475
5684,-0.060,-0.465
5685,-0.100,-0.450
5686,-0.130,-0.455
5687,-0.175,-0.455
5688,-0.205,-0.465
5689,-0.235,-0.455
5690,-0.265,-0.430
5691,-0.275,-0.415
5692,-0.295,-0.395
5693,-0.315,-0.400
5694,-0.320,-0.385
5695,-0.345,-0.370
5696,-0.365,-0.370
5697,-0.405,-0.350
5698,-0.410,-0.335
5699,-0.410,-0.305
5700,-0.420,-0.290
5701,-0.440,-0.270
5702,-0.455,-0.255
5703,-0.470,-0.225
5704,-0.470,-0.195
5705,-0.475,-0.150
5706,-0.475,-0.125
5707,-0.460,-0.095
5708,-0.450,-0.115
5709,-0.430,-0.125
5710,-0.405,-0.140
5711,-0.380,-0.175
5712,-0.360,-0.205
5713,-0.335,-0.230
5714,-0.320,-0.245
5715,-0.290,-0.275
5716,-0.260,-0.295
5717,-0.235,-0.330
5718,-0.210,-0.345
5719,-0.185,-0.370
5720,-0.185,-0.410
5721,-0.155,-0.430
5722,-0.150,-0.440
5723,-0.150,-0.445
5724,-0.155,-0.450
5725,-0.170,-0.465
5726,-0.200,-0.465
5727,-0.250,-0.465
5728,-0.315,-0.475
5729,-0.375,-0.495
5730,-0.430,-0.505
5731,-0.490,-0.515
5732,-0.525,-0.520
5733,-0.530,-0.525
5734,-0.535,-0.530
5735,-0.560,-0.535
5736,-0.575,-0.540
5737,-0.590,-0.550
5738,-0.595,-0.555
5739,-0.600,-0.555
5740,-0.590,-0.560
5741,-0.595,-0.560
5742,-0.575,-0.555
5743,-0.570,-0.530
5744,-0.575,-0.540
5745,-0.590,-0.525
5746,-0.610,-0.535
5747,-0.615,-0.550
5748,-0.605,-0.560
5749,-0.615,-0.590
5750,-0.600,-0.590
5751,-0.605,-0.580
5752,-0.595,-0.565
5753,-0.605,-0.540
5754,-0.600,-0.510
5755,-0.595,-0.470
5756,-0.600,-0.440
5757,-0.590,-0.395
5758,-0.620,-0.325
5759,-0.635,-0.320
5760,-0.655,-0.360
5761,-0.655,-0.475
5762,-0.620,-0.705
5763,-0.520,-1.045
5764,-0.335,-1.455
5765,-0.080,-1.880
5766,0.230,-2.220
5767,0.570,-2.485
5768,0.975,-2.640
5769,1.370,-2.695
5770,1.690,-2.690
5771,1.845,-2.680
5772,1.770,-2.635
5773,1.485,-2.590
5774,1.055,-2.540
5775,0.550,-2.470
5776,0.055,-2.360
5777,-0.385,-2.125
5778,-0.745,-1.795
5779,-1.000,-1.425
5780,-1.195,-1.120
5781,-1.320,-0.900
5782,-1.370,-0.795
5783,-1.325,-0.770
5784,-1.245,-0.755
5785,-1.130,-0.750
5786,-1.025,-0.750
5787,-0.965,-0.720
5788,-0.920,-0.680
5789,-0.910,-0.670
5790,-0.910,-0.645
5791,-0.930,-0.635
5792,-0.955,-0.615
5793,-0.970,-0.615
5794,-0.980,-0.615
5795,-0.990,-0.610
5796,-0.990,-0.610
5797,-0.995,-0.615
5798,-1.005,-0.595
5799,-1.020,-0.585
5800,-1.025,-0.560
5801,-1.035,-0.530
5802,-1.040,-0.510
5803,-1.045,-0.500
5804,-1.045,-0.490
5805,-1.040,-0.490
5806,-1.035,-0.490
5807,-1.035,-0.485
5808,-1.045,-0.490
5809,-1.045,-0.465
5810,-1.055,-0.455
5811,-1.045,-0.435
5812,-1.035,-0.400
5813,-1.035,-0.385
5814,-1.015,-0.355
5815,-0.995,-0.330
5816,-0.980,-0.310
5817,-0.965,-0.305
5818,-0.945,-0.300
5819,-0.930,-0.285
5820,-0.915,-0.275
5821,-0.900,-0.270
5822,-0.875,-0.255
5823,-0.860,-0.230
5824,-0.845,-0.210
5825,-0.830,-0.195
5826,-0.810,-0.175
5827,-0.765,-0.155
5828,-0.730,-0.150
5829,-0.680,-0.140
5830,-0.650,-0.120
5831,-0.620,-0.115
5832,-0.590,-0.120
5833,-0.580,-0.125
5834,-0.545,-0.120
5835,-0.500,-0.110
5836,-0.450,-0.090
5837,-0.400,-0.090
5838,-0.355,-0.090
5839,-0.325,-0.080
5840,-0.300,-0.085
5841,-0.270,-0.090
5842,-0.245,-0.095
5843,-0.210,-0.090
5844,-0.170,-0.110
5845,-0.125,-0.125
5846,-0.100,-0.145
5847,-0.060,-0.185
5848,-0.025,-0.195
5849,0.005,-0.210
5850,0.045,-0.220
5851,0.055,-0.235
5852,0.090,-0.240
5853,0.120,-0.260
5854,0.130,-0.270
5855,0.120,-0.305
5856,0.115,-0.320
5857,0.115,-0.340
5858,0.095,-0.360
5859,0.100,-0.365
5860,0.095,-0.390
5861,0.095,-0.385
5862,0.080,-0.405
5863,0.060,-0.410
5864,0.040,-0.410
5865,0.020,-0.430
5866,-0.005,-0.440
5867,-0.025,-0.455
5868,-0.050,-0.455
5869,-0.070,-0.465
5870,-0.110,-0.470
5871,-0.155,-0.475
5872,-0.180,-0.465
5873,-0.200,-0.450
5874,-0.210,-0.430
5875,-0.220,-0.420
5876,-0.235,-0.410
5877,-0.250,-0.400
5878,-0.280,-0.405
5879,-0.315,-0.395
5880,-0.350,-0.405
5881,-0.385,-0.400
5882,-0.425,-0.385
5883,-0.440,-0.350
5884,-0.470,-0.345
5885,-0.485,-0.335
5886,-0.515,-0.315
5887,-0.530,-0.295
5888,-0.555,-0.290
5889,-0.565,-0.290
5890,-0.570,-0.275
5891,-0.580,-0.270
5892,-0.605,-0.270
5893,-0.625,-0.265
5894,-0.640,-0.270
5895,-0.650,-0.260
5896,-0.630,-0.235
5897,-0.615,-0.200
5898,-0.590,-0.170
5899,-0.575,-0.140
5900,-0.570,-0.110
5901,-0.605,-0.065
5902,-0.615,-0.045
5903,-0.615,-0.050
5904,-0.600,-0.075
5905,-0.575,-0.105
5906,-0.540,-0.115
5907,-0.500,-0.130
5908,-0.465,-0.150
5909,-0.425,-0.160
5910,-0.390,-0.190
5911,-0.355,-0.230
5912,-0.315,-0.285
5913,-0.290,-0.305
5914,-0.275,-0.340
5915,-0.260,-0.355
5916,-0.260,-0.370
5917,-0.280,-0.390
5918,-0.300,-0.395
5919,-0.335,-0.405
5920,-0.365,-0.400
5921,-0.425,-0.410
5922,-0.475,-0.415
5923,-0.525,-0.420
5924,-0.575,-0.430
5925,-0.615,-0.455
5926,-0.640,-0.475
5927,-0.635,-0.500
5928,-0.645,-0.505
5929,-0.660,-0.515
5930,-0.670,-0.515
5931,-0.680,-0.505
5932,-0.685,-0.500
5933,-0.685,-0.510
5934,-0.680,-0.505
5935,-0.665,-0.500
5936,-0.650,-0.520
5937,-0.645,-0.515
5938,-0.645,-0.510
5939,-0.645,-0.510
5940,-0.645,-0.505
5941,-0.640,-0.505
5942,-0.645,-0.520
5943,-0.650,-0.515
5944,-0.645,-0.525
5945,-0.645,-0.520
5946,-0.650,-0.485
5947,-0.650,-0.435
5948,-0.660,-0.390
5949,-0.680,-0.315
5950,-0.670,-0.285
5951,-0.685,-0.335
5952,-0.680,-0.465
5953,-0.640,-0.700
5954,-0.535,-1.060
5955,-0.370,-1.480
5956,-0.110,-1.865
5957,0.200,-2.185
5958,0.580,-2.380
5959,0.995,-2.495
5960,1.395,-2.540
5961,1.725,-2.555
5962,1.940,-2.535
5963,1.985,-2.490
5964,1.845,-2.430
5965,1.525,-2.375
5966,1.110,-2.285
5967,0.640,-2.165
5968,0.165,-1.970
5969,-0.275,-1.705
5970,-0.660,-1.415
5971,-0.985,-1.170
5972,-1.250,-0.990
5973,-1.400,-0.865
5974,-1.430,-0.785
5975,-1.370,-0.750
5976,-1.260,-0.735
5977,-1.135,-0.720
5978,-1.035,-0.715
5979,-0.975,-0.670
5980,-0.945,-0.645
5981,-0.955,-0.615
5982,-0.970,-0.600
5983,-0.990,-0.585
5984,-1.000,-0.575
5985,-1.010,-0.570
5986,-1.015,-0.575
5987,-1.020,-0.580
5988,-1.040,-0.575
5989,-1.050,-0.565
5990,-1.050,-0.550
5991,-1.070,-0.535
5992,-1.070,-0.515
5993,-1.050,-0.520
5994,-1.060,-0.520
5995,-1.060,-0.505
5996,-1.070,-0.490
5997,-1.085,-0.490
5998,-1.090,-0.480
5999,-1.095,-0.470
6000,-1.090,-0.460
6001,-1.090,-0.450
6002,-1.090,-0.455
6003,-1.105,-0.450
6004,-1.105,-0.430
6005,-1.110,-0.420
6006,-1.095,-0.410
6007,-1.080,-0.390
6008,-1.065,-0.375
6009,-1.020,-0.360
6010,-1.005,-0.350
6011,-1.010,-0.345
6012,-1.005,-0.330
6013,-1.005,-0.320
6014,-1.010,-0.305
6015,-0.985,-0.300
6016,-0.955,-0.265
6017,-0.925,-0.250
6018,-0.885,-0.215
6019,-0.865,-0.205
6020,-0.835,-0.210
6021,-0.820,-0.200
6022,-0.795,-0.185
6023,-0.750,-0.170
6024,-0.715,-0.175
6025,-0.680,-0.160
6026,-0.650,-0.155
6027,-0.630,-0.130
6028,-0.615,-0.145
6029,-0.590,-0.140
6030,-0.555,-0.130
6031,-0.515,-0.130
6032,-0.465,-0.125
6033,-0.425,-0.120
6034,-0.375,-0.115
6035,-0.335,-0.120
6036,-0.310,-0.140
6037,-0.295,-0.150
6038,-0.265,-0.165
6039,-0.235,-0.170
6040,-0.190,-0.180
6041,-0.145,-0.170
6042,-0.105,-0.180
6043,-0.055,-0.180
6044,-0.020,-0.200
6045,0.005,-0.235
6046,0.020,-0.275
6047,0.040,-0.305
6048,0.065,-0.330
6049,0.090,-0.350
6050,0.105,-0.355
6051,0.100,-0.365
6052,0.100,-0.365
6053,0.100,-0.385
6054,0.085,-0.405
6055,0.095,-0.405
6056,0.100,-0.420
6057,0.115,-0.430
6058,0.125,-0.430
6059,0.100,-0.450
6060,0.075,-0.465
6061,0.035,-0.480
6062,0.015,-0.495
6063,-0.005,-0.500
6064,-0.030,-0.510
6065,-0.035,-0.505
6066,-0.050,-0.490
6067,-0.070,-0.470
6068,-0.080,-0.460
6069,-0.115,-0.445
6070,-0.155,-0.460
6071,-0.175,-0.465
6072,-0.210,-0.485
6073,-0.225,-0.480
6074,-0.245,-0.470
6075,-0.270,-0.450
6076,-0.300,-0.420
6077,-0.325,-0.395
6078,-0.355,-0.375
6079,-0.375,-0.355
6080,-0.390,-0.340
6081,-0.405,-0.350
6082,-0.420,-0.335
6083,-0.455,-0.340
6084,-0.480,-0.330
6085,-0.495,-0.305
6086,-0.510,-0.300
6087,-0.520,-0.280
6088,-0.520,-0.255
6089,-0.495,-0.225
6090,-0.485,-0.190
6091,-0.490,-0.150
6092,-0.490,-0.100
6093,-0.505,-0.075
6094,-0.520,-0.055
6095,-0.515,-0.060
6096,-0.510,-0.080
6097,-0.480,-0.115
6098,-0.460,-0.145
6099,-0.430,-0.160
6100,-0.400,-0.165
6101,-0.365,-0.160
6102,-0.360,-0.175
6103,-0.330,-0.205
6104,-0.300,-0.240
6105,-0.275,-0.290
6106,-0.245,-0.335
6107,-0.220,-0.365
6108,-0.210,-0.390
6109,-0.225,-0.395
6110,-0.230,-0.395
6111,-0.235,-0.395
6112,-0.250,-0.395
6113,-0.280,-0.405
6114,-0.330,-0.425
6115,-0.395,-0.420
6116,-0.460,-0.440
6117,-0.540,-0.450
6118,-0.600,-0.455
6119,-0.630,-0.475
6120,-0.635,-0.485
6121,-0.635,-0.500
6122,-0.640,-0.515
6123,-0.645,-0.515
6124,-0.660,-0.515
6125,-0.655,-0.505
6126,-0.665,-0.500
6127,-0.655,-0.495
6128,-0.645,-0.500
6129,-0.635,-0.515
6130,-0.635,-0.525
6131,-0.640,-0.540
6132,-0.660,-0.545
6133,-0.670,-0.540
6134,-0.670,-0.535
6135,-0.675,-0.530
6136,-0.665,-0.520
6137,-0.645,-0.515
6138,-0.635,-0.515
6139,-0.625,-0.505
6140,-0.635,-0.480
6141,-0.645,-0.455
6142,-0.660,-0.390
6143,-0.685,-0.345
6144,-0.685,-0.335
6145,-0.700,-0.365
6146,-0.695,-0.510
6147,-0.630,-0.765
6148,-0.495,-1.105
6149,-0.305,-1.490
6150,-0.045,-1.865
6151,0.255,-2.170
6152,0.625,-2.410
6153,1.020,-2.545
6154,1.405,-2.640
6155,1.735,-2.670
6156,1.910,-2.670
6157,1.885,-2.635
6158,1.665,-2.575
6159,1.300,-2.515
6160,0.865,-2.430
6161,0.375,-2.290
6162,-0.095,-2.045
6163,-0.510,-1.695
6164,-0.865,-1.340
6165,-1.165,-1.065
6166,-1.345,-0.885
6167,-1.415,-0.800
6168,-1.375,-0.750
6169,-1.265,-0.745
6170,-1.115,-0.745
6171,-0.990,-0.730
6172,-0.900,-0.700
6173,-0.870,-0.680
6174,-0.875,-0.660
6175,-0.910,-0.635
6176,-0.940,-0.615
6177,-0.955,-0.610
6178,-0.955,-0.605
6179,-0.970,-0.610
6180,-0.980,-0.620
6181,-0.985,-0.625
6182,-0.990,-0.615
6183,-0.995,-0.605
6184,-0.995,-0.595
6185,-0.985,-0.565
6186,-0.990,-0.545
6187,-0.990,-0.515
6188,-0.995,-0.520
6189,-1.020,-0.520
6190,-1.030,-0.510
6191,-1.040,-0.510
6192,-1.040,-0.495
6193,-1.045,-0.485
6194,-1.040,-0.465
6195,-1.055,-0.445
6196,-1.065,-0.440
6197,-1.065,-0.435
6198,-1.060,-0.430
6199,-1.040,-0.415
6200,-1.035,-0.380
6201,-1.010,-0.370
6202,-1.010,-0.340
6203,-1.000,-0.320
6204,-1.015,-0.325
6205,-1.010,-0.325
6206,-1.010,-0.320
6207,-0.985,-0.300
6208,-0.960,-0.280
6209,-0.935,-0.245
6210,-0.895,-0.215
6211,-0.850,-0.190
6212,-0.835,-0.180
6213,-0.790,-0.175
6214,-0.750,-0.180
6215,-0.720,-0.190
6216,-0.680,-0.175
6217,-0.645,-0.165
6218,-0.630,-0.135
6219,-0.605,-0.115
6220,-0.570,-0.110
6221,-0.520,-0.105
6222,-0.470,-0.110
6223,-0.415,-0.100
6224,-0.370,-0.100
6225,-0.315,-0.100
6226,-0.270,-0.095
6227,-0.235,-0.100
6228,-0.185,-0.110
6229,-0.160,-0.125
6230,-0.130,-0.150
6231,-0.085,-0.175
6232,-0.025,-0.170
6233,0.010,-0.175
6234,0.040,-0.180
6235,0.085,-0.175
6236,0.100,-0.185
6237,0.130,-0.210
6238,0.150,-0.245
6239,0.165,-0.270
6240,0.195,-0.290
6241,0.200,-0.310
6242,0.205,-0.315
6243,0.190,-0.325
6244,0.195,-0.335
6245,0.195,-0.350
6246,0.195,-0.370
6247,0.195,-0.385
6248,0.185,-0.390
6249,0.175,-0.390
6250,0.140,-0.390
6251,0.120,-0.405
6252,0.090,-0.410
6253,0.080,-0.435
6254,0.065,-0.450
6255,0.050,-0.465
6256,0.040,-0.475
6257,0.025,-0.465
6258,-0.010,-0.465
6259,-0.035,-0.445
6260,-0.050,-0.430
6261,-0.080,-0.435
6262,-0.095,-0.435
6263,-0.135,-0.445
6264,-0.150,-0.440
6265,-0.185,-0.430
6266,-0.225,-0.425
6267,-0.265,-0.410
6268,-0.295,-0.390
6269,-0.310,-0.370
6270,-0.315,-0.370
6271,-0.325,-0.355
6272,-0.330,-0.350
6273,-0.360,-0.345
6274,-0.385,-0.320
6275,-0.415,-0.300
6276,-0.440,-0.295
6277,-0.460,-0.275
6278,-0.470,-0.260
6279,-0.465,-0.245
6280,-0.495,-0.205
6281,-0.495,-0.170
6282,-0.485,-0.125
6283,-0.485,-0.090
6284,-0.480,-0.065
6285,-0.465,-0.045
6286,-0.440,-0.040
6287,-0.435,-0.070
6288,-0.425,-0.105
6289,-0.425,-0.140
6290,-0.400,-0.170
6291,-0.385,-0.185
6292,-0.360,-0.210
6293,-0.330,-0.240
6294,-0.290,-0.285
6295,-0.270,-0.320
6296,-0.240,-0.345
6297,-0.215,-0.375
6298,-0.200,-0.390
6299,-0.190,-0.400
6300,-0.190,-0.390
6301,-0.185,-0.400
6302,-0.200,-0.405
6303,-0.215,-0.420
6304,-0.255,-0.430
6305,-0.295,-0.445
6306,-0.360,-0.460
6307,-0.420,-0.450
6308,-0.480,-0.445
6309,-0.525,-0.455
6310,-0.550,-0.470
6311,-0.580,-0.495
6312,-0.575,-0.500
6313,-0.600,-0.510
6314,-0.600,-0.530
6315,-0.610,-0.525
6316,-0.605,-0.515
6317,-0.605,-0.515
6318,-0.590,-0.510
6319,-0.580,-0.505
6320,-0.580,-0.515
6321,-0.585,-0.525
6322,-0.585,-0.530
6323,-0.595,-0.540
6324,-0.600,-0.550
6325,-0.595,-0.560
6326,-0.585,-0.555
6327,-0.590,-0.565
6328,-0.585,-0.555
6329,-0.585,-0.530
6330,-0.595,-0.510
6331,-0.595,-0.470
6332,-0.580,-0.420
6333,-0.580,-0.360
6334,-0.585,-0.300
6335,-0.590,-0.260
6336,-0.610,-0.300
6337,-0.600,-0.420
6338,-0.560,-0.660
6339,-0.460,-1.010
6340,-0.275,-1.450
6341,0.000,-1.880
6342,0.315,-2.260
6343,0.695,-2.540
6344,1.075,-2.720
6345,1.455,-2.830
6346,1.750,-2.855
6347,1.870,-2.860
6348,1.770,-2.820
6349,1.465,-2.785
6350,1.045,-2.735
6351,0.555,-2.680
6352,0.055,-2.550
6353,-0.355,-2.305
6354,-0.680,-1.925
6355,-0.895,-1.505
6356,-1.045,-1.140
6357,-1.130,-0.880
6358,-1.135,-0.750
6359,-1.100,-0.715
6360,-1.020,-0.725
6361,-0.915,-0.750
6362,-0.830,-0.760
6363,-0.790,-0.740
6364,-0.770,-0.725
6365,-0.790,-0.690
6366,-0.815,-0.665
6367,-0.840,-0.625
6368,-0.855,-0.605
6369,-0.870,-0.610
6370,-0.875,-0.615
6371,-0.880,-0.610
6372,-0.885,-0.605
6373,-0.890,-0.590
6374,-0.885,-0.580
6375,-0.920,-0.555
6376,-0.925,-0.545
6377,-0.920,-0.530
6378,-0.925,-0.500
6379,-0.910,-0.485
6380,-0.900,-0.460
6381,-0.895,-0.460
6382,-0.895,-0.455
6383,-0.910,-0.445
6384,-0.925,-0.440
6385,-0.940,-0.435
6386,-0.945,-0.435
6387,-0.950,-0.405
6388,-0.945,-0.405
6389,-0.930,-0.365
6390,-0.930,-0.325
6391,-0.900,-0.295
6392,-0.875,-0.280
6393,-0.860,-0.275
6394,-0.830,-0.265
6395,-0.810,-0.265
6396,-0.795,-0.250
6397,-0.770,-0.240
6398,-0.770,-0.225
6399,-0.755,-0.185
6400,-0.735,-0.160
6401,-0.710,-0.135
6402,-0.665,-0.130
6403,-0.625,-0.100
6404,-0.570,-0.100
6405,-0.525,-0.085
6406,-0.495,-0.065
6407,-0.460,-0.060
6408,-0.435,-0.045
6409,-0.400,-0.055
6410,-0.370,-0.055
6411,-0.330,-0.040
6412,-0.295,-0.035
6413,-0.240,-0.030
6414,-0.225,-0.020
6415,-0.190,-0.015
6416,-0.165,0.000
6417,-0.135,-0.005
6418,-0.100,-0.010
6419,-0.055,-0.025
6420,-0.010,-0.045
6421,0.030,-0.060
