'sample interval','MLII','V1'
'0.00277778 sec','mV','mV'
0,-0.105,0.190
1,-0.105,0.190
2,-0.105,0.190
3,-0.105,0.190
4,-0.105,0.190
5,-0.105,0.190
6,-0.105,0.190
7,-0.105,0.190
8,-0.125,0.190
9,-0.145,0.220
10,-0.150,0.225
11,-0.175,0.250
12,-0.195,0.225
13,-0.205,0.210
14,-0.200,0.210
15,-0.200,0.220
16,-0.195,0.230
17,-0.200,0.230
18,-0.200,0.215
19,-0.210,0.210
20,-0.210,0.215
21,-0.190,0.225
22,-0.190,0.230
23,-0.200,0.240
24,-0.215,0.230
25,-0.225,0.220
26,-0.225,0.225
27,-0.210,0.230
28,-0.210,0.255
29,-0.230,0.270
30,-0.245,0.270
31,-0.260,0.265
32,-0.255,0.260
33,-0.245,0.285
34,-0.230,0.295
35,-0.245,0.295
36,-0.280,0.295
37,-0.255,0.280
38,-0.165,0.275
39,-0.015,0.225
40,0.160,0.110
41,0.375,-0.040
42,0.645,-0.175
43,0.985,-0.270
44,1.370,-0.350
45,1.725,-0.395
46,1.935,-0.395
47,1.895,-0.330
48,1.625,-0.225
49,1.280,-0.120
50,0.915,-0.015
51,0.550,0.090
52,0.260,0.120
53,0.045,0.110
54,-0.110,0.105
55,-0.210,0.115
56,-0.255,0.140
57,-0.260,0.190
58,-0.235,0.220
59,-0.235,0.225
60,-0.270,0.205
61,-0.290,0.205
62,-0.305,0.230
63,-0.295,0.240
64,-0.295,0.265
65,-0.300,0.255
66,-0.330,0.240
67,-0.335,0.225
68,-0.325,0.240
69,-0.325,0.250
70,-0.315,0.260
71,-0.320,0.260
72,-0.330,0.260
73,-0.330,0.240
74,-0.325,0.240
75,-0.315,0.265
76,-0.320,0.260
77,-0.325,0.260
78,-0.325,0.245
79,-0.340,0.245
80,-0.325,0.240
81,-0.300,0.255
82,-0.300,0.265
83,-0.315,0.260
84,-0.320,0.235
85,-0.335,0.235
86,-0.330,0.240
87,-0.305,0.260
88,-0.300,0.260
89,-0.310,0.270
90,-0.325,0.250
91,-0.335,0.235
92,-0.315,0.240
93,-0.295,0.240
94,-0.310,0.255
95,-0.310,0.250
96,-0.325,0.215
97,-0.315,0.200
98,-0.300,0.215
99,-0.290,0.225
100,-0.275,0.230
101,-0.275,0.215
102,-0.285,0.195
103,-0.290,0.185
104,-0.275,0.185
105,-0.260,0.190
106,-0.245,0.200
107,-0.255,0.185
108,-0.255,0.165
109,-0.255,0.150
110,-0.230,0.140
111,-0.210,0.145
112,-0.180,0.150
113,-0.170,0.140
114,-0.170,0.110
115,-0.170,0.090
116,-0.165,0.095
117,-0.130,0.090
118,-0.110,0.085
119,-0.110,0.075
120,-0.110,0.065
121,-0.105,0.035
122,-0.095,0.040
123,-0.080,0.060
124,-0.050,0.050
125,-0.050,0.055
126,-0.050,0.040
127,-0.050,0.030
128,-0.040,0.025
129,-0.020,0.045
130,-0.015,0.070
131,-0.020,0.080
132,-0.045,0.070
133,-0.050,0.085
134,-0.050,0.095
135,-0.035,0.120
136,-0.045,0.150
137,-0.065,0.165
138,-0.105,0.180
139,-0.115,0.160
140,-0.120,0.185
141,-0.110,0.215
142,-0.115,0.245
143,-0.150,0.230
144,-0.180,0.240
145,-0.195,0.235
146,-0.195,0.245
147,-0.195,0.260
148,-0.195,0.275
149,-0.215,0.280
150,-0.245,0.275
151,-0.250,0.255
152,-0.245,0.265
153,-0.235,0.280
154,-0.235,0.295
155,-0.235,0.290
156,-0.260,0.270
157,-0.270,0.260
158,-0.255,0.270
159,-0.240,0.290
160,-0.245,0.295
161,-0.260,0.285
162,-0.285,0.270
163,-0.290,0.265
164,-0.265,0.275
165,-0.250,0.295
166,-0.255,0.300
167,-0.255,0.300
168,-0.270,0.280
169,-0.280,0.270
170,-0.260,0.280
171,-0.245,0.305
172,-0.245,0.300
173,-0.245,0.290
174,-0.270,0.275
175,-0.260,0.265
176,-0.240,0.265
177,-0.235,0.280
178,-0.240,0.305
179,-0.250,0.305
180,-0.255,0.285
181,-0.250,0.260
182,-0.225,0.280
183,-0.190,0.280
184,-0.190,0.270
185,-0.195,0.250
186,-0.195,0.225
187,-0.165,0.195
188,-0.130,0.180
189,-0.065,0.165
190,-0.020,0.115
191,-0.005,0.080
192,0.040,0.015
193,0.115,-0.040
194,0.225,-0.100
195,0.330,-0.160
196,0.415,-0.245
197,0.470,-0.320
198,0.530,-0.410
199,0.625,-0.465
200,0.770,-0.550
201,0.890,-0.600
202,1.000,-0.660
203,1.070,-0.725
204,1.155,-0.785
205,1.265,-0.825
206,1.400,-0.855
207,1.535,-0.870
208,1.660,-0.875
209,1.705,-0.885
210,1.675,-0.860
211,1.600,-0.800
212,1.525,-0.725
213,1.470,-0.625
214,1.405,-0.535
215,1.310,-0.450
216,1.225,-0.345
217,1.195,-0.250
218,1.150,-0.165
219,1.085,-0.100
220,1.010,-0.065
221,0.935,-0.055
222,0.875,-0.045
223,0.885,-0.055
224,0.900,-0.040
225,0.875,-0.045
226,0.760,-0.065
227,0.605,-0.060
228,0.455,-0.045
229,0.280,-0.005
230,0.125,0.070
231,-0.070,0.165
232,-0.245,0.255
233,-0.400,0.335
234,-0.490,0.365
235,-0.510,0.410
236,-0.545,0.420
237,-0.595,0.460
238,-0.635,0.465
239,-0.655,0.480
240,-0.675,0.485
241,-0.685,0.495
242,-0.705,0.505
243,-0.720,0.525
244,-0.720,0.525
245,-0.735,0.535
246,-0.750,0.535
247,-0.765,0.550
248,-0.750,0.545
249,-0.770,0.570
250,-0.795,0.595
251,-0.795,0.600
252,-0.820,0.600
253,-0.820,0.600
254,-0.825,0.615
255,-0.855,0.630
256,-0.860,0.650
257,-0.880,0.665
258,-0.885,0.660
259,-0.905,0.665
260,-0.905,0.680
261,-0.905,0.695
262,-0.925,0.725
263,-0.940,0.735
264,-0.975,0.735
265,-0.980,0.750
266,-0.980,0.755
267,-0.965,0.785
268,-0.965,0.800
269,-0.995,0.795
270,-1.015,0.790
271,-1.020,0.790
272,-1.025,0.815
273,-1.030,0.825
274,-1.035,0.825
275,-1.035,0.825
276,-1.040,0.810
277,-1.035,0.790
278,-1.040,0.790
279,-0.995,0.780
280,-0.990,0.775
281,-1.000,0.770
282,-1.010,0.720
283,-0.995,0.700
284,-0.965,0.675
285,-0.910,0.670
286,-0.905,0.640
287,-0.905,0.620
288,-0.885,0.585
289,-0.850,0.535
290,-0.790,0.515
291,-0.745,0.515
292,-0.720,0.490
293,-0.715,0.475
294,-0.695,0.425
295,-0.665,0.405
296,-0.605,0.400
297,-0.565,0.385
298,-0.540,0.395
299,-0.530,0.365
300,-0.515,0.330
301,-0.475,0.320
302,-0.445,0.320
303,-0.415,0.330
304,-0.410,0.315
305,-0.410,0.310
306,-0.410,0.290
307,-0.395,0.275
308,-0.380,0.295
309,-0.355,0.290
310,-0.355,0.295
311,-0.385,0.295
312,-0.390,0.285
313,-0.390,0.275
314,-0.360,0.280
315,-0.340,0.295
316,-0.350,0.310
317,-0.365,0.295
318,-0.385,0.285
319,-0.385,0.280
320,-0.360,0.295
321,-0.345,0.295
322,-0.365,0.290
323,-0.360,0.290
324,-0.370,0.295
325,-0.360,0.275
326,-0.345,0.290
327,-0.340,0.290
328,-0.360,0.290
329,-0.370,0.290
330,-0.370,0.265
331,-0.355,0.275
332,-0.335,0.280
333,-0.330,0.270
334,-0.345,0.280
335,-0.350,0.275
336,-0.355,0.270
337,-0.335,0.255
338,-0.330,0.255
339,-0.320,0.265
340,-0.320,0.275
341,-0.325,0.275
342,-0.340,0.255
343,-0.320,0.245
344,-0.305,0.245
345,-0.305,0.255
346,-0.295,0.265
347,-0.290,0.265
348,-0.300,0.255
349,-0.300,0.255
350,-0.295,0.255
351,-0.290,0.260
352,-0.280,0.260
353,-0.295,0.265
354,-0.305,0.260
355,-0.300,0.245
356,-0.290,0.250
357,-0.280,0.245
358,-0.285,0.255
359,-0.280,0.260
360,-0.315,0.230
361,-0.285,0.230
362,-0.275,0.230
363,-0.265,0.255
364,-0.260,0.255
365,-0.275,0.265
366,-0.290,0.245
367,-0.280,0.225
368,-0.275,0.235
369,-0.265,0.245
370,-0.260,0.260
371,-0.270,0.245
372,-0.285,0.235
373,-0.280,0.230
374,-0.265,0.230
375,-0.255,0.230
376,-0.260,0.245
377,-0.270,0.245
378,-0.280,0.230
379,-0.280,0.215
380,-0.270,0.215
381,-0.260,0.245
382,-0.260,0.245
383,-0.255,0.235
384,-0.275,0.210
385,-0.290,0.205
386,-0.275,0.220
387,-0.250,0.240
388,-0.255,0.250
389,-0.260,0.240
390,-0.285,0.220
391,-0.290,0.220
392,-0.280,0.225
393,-0.260,0.235
394,-0.250,0.250
395,-0.285,0.240
396,-0.280,0.215
397,-0.280,0.205
398,-0.265,0.220
399,-0.245,0.230
400,-0.235,0.245
401,-0.265,0.235
402,-0.280,0.215
403,-0.280,0.215
404,-0.255,0.215
405,-0.235,0.230
406,-0.230,0.240
407,-0.250,0.220
408,-0.260,0.220
409,-0.260,0.205
410,-0.235,0.210
411,-0.235,0.225
412,-0.230,0.220
413,-0.250,0.220
414,-0.255,0.200
415,-0.255,0.200
416,-0.235,0.220
417,-0.220,0.220
418,-0.235,0.225
419,-0.245,0.215
420,-0.260,0.210
421,-0.255,0.200
422,-0.230,0.215
423,-0.210,0.225
424,-0.210,0.230
425,-0.230,0.230
426,-0.230,0.225
427,-0.210,0.220
428,-0.180,0.240
429,-0.150,0.255
430,-0.160,0.255
431,-0.170,0.255
432,-0.175,0.250
433,-0.135,0.240
434,-0.090,0.245
435,-0.065,0.255
436,-0.065,0.240
437,-0.095,0.230
438,-0.105,0.195
439,-0.095,0.175
440,-0.090,0.185
441,-0.070,0.190
442,-0.085,0.180
443,-0.125,0.170
444,-0.145,0.170
445,-0.150,0.165
446,-0.145,0.170
447,-0.165,0.180
448,-0.205,0.185
449,-0.245,0.190
450,-0.250,0.195
451,-0.235,0.190
452,-0.210,0.190
453,-0.220,0.210
454,-0.240,0.215
455,-0.255,0.205
456,-0.265,0.195
457,-0.255,0.200
458,-0.235,0.190
459,-0.250,0.200
460,-0.270,0.215
461,-0.290,0.200
462,-0.280,0.195
463,-0.245,0.200
464,-0.220,0.200
465,-0.235,0.210
466,-0.245,0.210
467,-0.260,0.205
468,-0.260,0.190
469,-0.250,0.185
470,-0.225,0.190
471,-0.225,0.190
472,-0.250,0.170
473,-0.270,0.180
474,-0.260,0.170
475,-0.200,0.165
476,-0.085,0.130
477,0.060,0.085
478,0.215,0.020
479,0.420,-0.040
480,0.680,-0.045
481,0.980,-0.035
482,1.265,-0.045
483,1.465,-0.040
484,1.485,0.010
485,1.260,0.085
486,0.935,0.130
487,0.590,0.135
488,0.240,0.150
489,-0.030,0.130
490,-0.180,0.105
491,-0.255,0.090
492,-0.255,0.095
493,-0.270,0.110
494,-0.270,0.155
495,-0.275,0.180
496,-0.265,0.210
497,-0.270,0.215
498,-0.275,0.210
499,-0.285,0.210
500,-0.295,0.215
501,-0.305,0.235
502,-0.310,0.230
503,-0.310,0.230
504,-0.310,0.225
505,-0.315,0.220
506,-0.315,0.215
507,-0.320,0.220
508,-0.305,0.230
509,-0.295,0.230
510,-0.290,0.225
511,-0.300,0.215
512,-0.320,0.220
513,-0.295,0.225
514,-0.295,0.225
515,-0.295,0.240
516,-0.295,0.220
517,-0.295,0.210
518,-0.285,0.220
519,-0.280,0.230
520,-0.280,0.245
521,-0.260,0.240
522,-0.290,0.225
523,-0.270,0.205
524,-0.265,0.200
525,-0.250,0.210
526,-0.245,0.215
527,-0.245,0.215
528,-0.270,0.195
529,-0.255,0.180
530,-0.245,0.165
531,-0.225,0.185
532,-0.215,0.195
533,-0.215,0.180
534,-0.230,0.160
535,-0.225,0.155
536,-0.195,0.160
537,-0.195,0.160
538,-0.185,0.175
539,-0.195,0.150
540,-0.185,0.135
541,-0.170,0.120
542,-0.150,0.120
543,-0.130,0.130
544,-0.120,0.120
545,-0.125,0.115
546,-0.120,0.085
547,-0.110,0.065
548,-0.080,0.055
549,-0.060,0.055
550,-0.035,0.050
551,-0.030,0.040
552,-0.030,0.005
553,-0.015,-0.010
554,0.005,-0.015
555,0.040,-0.015
556,0.060,-0.015
557,0.070,-0.020
558,0.060,-0.055
559,0.065,-0.075
560,0.090,-0.065
561,0.125,-0.075
562,0.150,-0.060
563,0.120,-0.060
564,0.125,-0.085
565,0.120,-0.090
566,0.140,-0.090
567,0.170,-0.060
568,0.175,-0.045
569,0.160,-0.050
570,0.145,-0.055
571,0.125,-0.050
572,0.140,-0.020
573,0.145,0.000
574,0.140,0.030
575,0.110,0.045
576,0.070,0.045
577,0.040,0.055
578,0.030,0.085
579,0.040,0.125
580,0.020,0.150
581,-0.020,0.155
582,-0.060,0.155
583,-0.070,0.170
584,-0.080,0.195
585,-0.075,0.215
586,-0.085,0.245
587,-0.115,0.240
588,-0.160,0.240
589,-0.180,0.240
590,-0.165,0.260
591,-0.165,0.270
592,-0.165,0.290
593,-0.205,0.280
594,-0.235,0.270
595,-0.230,0.260
596,-0.220,0.280
597,-0.200,0.290
598,-0.210,0.305
599,-0.225,0.305
600,-0.255,0.290
601,-0.250,0.280
602,-0.225,0.295
603,-0.220,0.300
604,-0.210,0.315
605,-0.235,0.305
606,-0.250,0.285
607,-0.255,0.280
608,-0.230,0.285
609,-0.225,0.305
610,-0.225,0.315
611,-0.225,0.305
612,-0.255,0.290
613,-0.245,0.275
614,-0.230,0.285
615,-0.210,0.285
616,-0.200,0.290
617,-0.215,0.280
618,-0.235,0.275
619,-0.230,0.260
620,-0.220,0.255
621,-0.205,0.275
622,-0.200,0.285
623,-0.230,0.270
624,-0.245,0.250
625,-0.235,0.240
626,-0.215,0.245
627,-0.200,0.275
628,-0.195,0.270
629,-0.220,0.265
630,-0.250,0.245
631,-0.260,0.250
632,-0.230,0.260
633,-0.220,0.275
634,-0.210,0.275
635,-0.225,0.265
636,-0.245,0.260
637,-0.220,0.265
638,-0.200,0.275
639,-0.175,0.300
640,-0.160,0.305
641,-0.180,0.300
642,-0.180,0.285
643,-0.155,0.275
644,-0.115,0.270
645,-0.080,0.290
646,-0.060,0.295
647,-0.070,0.270
648,-0.080,0.235
649,-0.085,0.225
650,-0.065,0.220
651,-0.055,0.210
652,-0.060,0.215
653,-0.085,0.225
654,-0.115,0.195
655,-0.125,0.190
656,-0.135,0.210
657,-0.130,0.215
658,-0.140,0.225
659,-0.180,0.225
660,-0.220,0.210
661,-0.240,0.220
662,-0.245,0.245
663,-0.240,0.280
664,-0.235,0.305
665,-0.255,0.285
666,-0.260,0.275
667,-0.235,0.260
668,-0.195,0.230
669,-0.150,0.215
670,-0.100,0.170
671,-0.060,0.125
672,-0.035,0.060
673,0.035,0.000
674,0.115,-0.060
675,0.200,-0.120
676,0.290,-0.220
677,0.350,-0.335
678,0.415,-0.445
679,0.490,-0.540
680,0.570,-0.600
681,0.630,-0.650
682,0.670,-0.705
683,0.690,-0.790
684,0.745,-0.870
685,0.830,-0.940
686,0.940,-0.980
687,1.025,-0.995
688,1.060,-1.010
689,1.085,-1.045
690,1.190,-1.100
691,1.370,-1.130
692,1.510,-1.155
693,1.605,-1.165
694,1.660,-1.180
695,1.690,-1.160
696,1.765,-1.115
697,1.855,-1.050
698,1.935,-0.925
699,1.945,-0.765
700,1.735,-0.585
701,1.335,-0.360
702,0.930,-0.180
703,0.610,-0.035
704,0.330,0.085
705,0.100,0.170
706,-0.100,0.210
707,-0.265,0.255
708,-0.375,0.290
709,-0.410,0.310
710,-0.405,0.345
711,-0.415,0.385
712,-0.460,0.405
713,-0.495,0.405
714,-0.545,0.415
715,-0.545,0.420
716,-0.545,0.435
717,-0.545,0.465
718,-0.560,0.465
719,-0.590,0.465
720,-0.615,0.465
721,-0.610,0.460
722,-0.610,0.475
723,-0.605,0.490
724,-0.600,0.505
725,-0.630,0.495
726,-0.645,0.495
727,-0.630,0.490
728,-0.615,0.515
729,-0.615,0.525
730,-0.615,0.545
731,-0.660,0.540
732,-0.685,0.540
733,-0.675,0.535
734,-0.660,0.565
735,-0.650,0.590
736,-0.655,0.600
737,-0.690,0.620
738,-0.720,0.605
739,-0.725,0.615
740,-0.700,0.640
741,-0.700,0.665
742,-0.715,0.685
743,-0.745,0.685
744,-0.760,0.685
745,-0.765,0.695
746,-0.755,0.715
747,-0.755,0.745
748,-0.755,0.760
749,-0.790,0.760
750,-0.805,0.760
751,-0.795,0.755
752,-0.785,0.775
753,-0.770,0.800
754,-0.780,0.815
755,-0.800,0.815
756,-0.825,0.815
757,-0.830,0.805
758,-0.820,0.830
759,-0.800,0.845
760,-0.790,0.855
761,-0.805,0.840
762,-0.840,0.820
763,-0.830,0.815
764,-0.805,0.805
765,-0.785,0.810
766,-0.765,0.805
767,-0.765,0.780
768,-0.780,0.745
769,-0.760,0.735
770,-0.715,0.720
771,-0.670,0.710
772,-0.670,0.690
773,-0.675,0.660
774,-0.675,0.610
775,-0.635,0.575
776,-0.590,0.560
777,-0.555,0.555
778,-0.535,0.545
779,-0.545,0.495
780,-0.520,0.470
781,-0.495,0.440
782,-0.445,0.410
783,-0.415,0.410
784,-0.395,0.400
785,-0.415,0.375
786,-0.420,0.360
787,-0.380,0.340
788,-0.360,0.330
789,-0.350,0.350
790,-0.340,0.325
791,-0.350,0.315
792,-0.365,0.305
793,-0.370,0.290
794,-0.340,0.300
795,-0.310,0.315
796,-0.325,0.315
797,-0.355,0.305
798,-0.370,0.285
799,-0.355,0.285
800,-0.340,0.295
801,-0.330,0.305
802,-0.330,0.300
803,-0.370,0.300
804,-0.385,0.285
805,-0.360,0.280
806,-0.350,0.285
807,-0.340,0.305
808,-0.325,0.300
809,-0.355,0.285
810,-0.375,0.265
811,-0.350,0.255
812,-0.345,0.285
813,-0.330,0.290
814,-0.325,0.295
815,-0.360,0.295
816,-0.365,0.280
817,-0.350,0.275
818,-0.340,0.285
819,-0.320,0.300
820,-0.330,0.290
821,-0.350,0.285
822,-0.355,0.265
823,-0.355,0.275
824,-0.335,0.275
825,-0.325,0.300
826,-0.330,0.300
827,-0.345,0.310
828,-0.355,0.295
829,-0.355,0.285
830,-0.325,0.290
831,-0.305,0.315
832,-0.285,0.295
833,-0.295,0.265
834,-0.275,0.245
835,-0.245,0.225
836,-0.190,0.210
837,-0.150,0.185
838,-0.135,0.155
839,-0.110,0.090
840,-0.055,0.025
841,0.045,-0.055
842,0.170,-0.145
843,0.270,-0.245
844,0.390,-0.335
845,0.490,-0.425
846,0.595,-0.535
847,0.710,-0.635
848,0.805,-0.740
849,0.910,-0.800
850,0.975,-0.840
851,1.035,-0.865
852,1.105,-0.885
853,1.185,-0.900
854,1.230,-0.875
855,1.230,-0.820
856,1.175,-0.750
857,1.100,-0.690
858,1.025,-0.625
859,0.995,-0.525
860,0.980,-0.405
861,0.970,-0.270
862,0.930,-0.195
863,0.885,-0.145
864,0.855,-0.115
865,0.865,-0.085
866,0.880,-0.025
867,0.880,0.005
868,0.895,0.025
869,0.880,0.025
870,0.885,0.020
871,0.845,-0.005
872,0.785,0.000
873,0.655,0.025
874,0.520,0.070
875,0.300,0.120
876,0.095,0.190
877,-0.075,0.240
878,-0.205,0.300
879,-0.305,0.330
880,-0.375,0.365
881,-0.430,0.380
882,-0.475,0.385
883,-0.490,0.400
884,-0.530,0.415
885,-0.575,0.425
886,-0.620,0.445
887,-0.665,0.450
888,-0.690,0.475
889,-0.710,0.495
890,-0.715,0.480
891,-0.725,0.505
892,-0.765,0.520
893,-0.805,0.520
894,-0.820,0.510
895,-0.810,0.525
896,-0.800,0.535
897,-0.810,0.545
898,-0.830,0.550
899,-0.845,0.550
900,-0.865,0.545
901,-0.880,0.555
902,-0.870,0.560
903,-0.880,0.580
904,-0.895,0.595
905,-0.920,0.610
906,-0.940,0.605
907,-0.945,0.600
908,-0.960,0.610
909,-0.970,0.635
910,-0.970,0.635
911,-1.010,0.665
912,-1.015,0.640
913,-1.015,0.650
914,-1.015,0.665
915,-1.020,0.680
916,-1.060,0.695
917,-1.080,0.700
918,-1.105,0.685
919,-1.095,0.690
920,-1.090,0.695
921,-1.110,0.695
922,-1.120,0.695
923,-1.140,0.695
924,-1.140,0.670
925,-1.140,0.650
926,-1.140,0.640
927,-1.125,0.640
928,-1.110,0.625
929,-1.110,0.620
930,-1.105,0.600
931,-1.100,0.590
932,-1.080,0.570
933,-1.050,0.565
934,-1.010,0.555
935,-0.985,0.525
936,-0.970,0.490
937,-0.960,0.485
938,-0.905,0.465
939,-0.865,0.460
940,-0.830,0.430
941,-0.810,0.410
942,-0.775,0.385
943,-0.735,0.360
944,-0.690,0.360
945,-0.655,0.360
946,-0.615,0.350
947,-0.600,0.340
948,-0.580,0.310
949,-0.575,0.300
950,-0.540,0.290
951,-0.510,0.300
952,-0.485,0.305
953,-0.485,0.285
954,-0.490,0.275
955,-0.480,0.270
956,-0.455,0.270
957,-0.455,0.280
958,-0.445,0.290
959,-0.445,0.290
960,-0.455,0.280
961,-0.465,0.265
962,-0.430,0.260
963,-0.420,0.285
964,-0.415,0.290
965,-0.440,0.290
966,-0.465,0.290
967,-0.440,0.280
968,-0.420,0.280
969,-0.400,0.300
970,-0.410,0.300
971,-0.410,0.290
972,-0.445,0.265
973,-0.435,0.260
974,-0.420,0.270
975,-0.390,0.285
976,-0.395,0.295
977,-0.395,0.285
978,-0.420,0.275
979,-0.425,0.265
980,-0.405,0.275
981,-0.395,0.270
982,-0.385,0.290
983,-0.385,0.280
984,-0.410,0.255
985,-0.395,0.245
986,-0.385,0.250
987,-0.365,0.265
988,-0.355,0.275
989,-0.375,0.265
990,-0.395,0.250
991,-0.390,0.240
992,-0.380,0.250
993,-0.350,0.265
994,-0.350,0.265
995,-0.365,0.260
996,-0.385,0.255
997,-0.390,0.240
998,-0.345,0.250
999,-0.340,0.265
1000,-0.360,0.250
1001,-0.380,0.235
1002,-0.375,0.230
1003,-0.340,0.240
1004,-0.325,0.245
1005,-0.335,0.245
1006,-0.350,0.235
1007,-0.355,0.225
1008,-0.340,0.210
1009,-0.320,0.220
1010,-0.315,0.245
1011,-0.315,0.235
1012,-0.335,0.235
1013,-0.340,0.215
1014,-0.335,0.220
1015,-0.310,0.225
1016,-0.305,0.235
1017,-0.320,0.230
1018,-0.365,0.225
1019,-0.380,0.205
1020,-0.345,0.205
1021,-0.340,0.220
1022,-0.320,0.215
1023,-0.330,0.225
1024,-0.330,0.225
1025,-0.345,0.205
1026,-0.335,0.195
1027,-0.320,0.215
1028,-0.305,0.210
1029,-0.305,0.210
1030,-0.325,0.210
1031,-0.325,0.200
1032,-0.330,0.185
1033,-0.290,0.200
1034,-0.290,0.220
1035,-0.295,0.215
1036,-0.320,0.205
1037,-0.330,0.200
1038,-0.330,0.190
1039,-0.295,0.200
1040,-0.285,0.215
1041,-0.305,0.205
1042,-0.340,0.200
1043,-0.335,0.190
1044,-0.325,0.190
1045,-0.325,0.190
1046,-0.305,0.205
1047,-0.315,0.210
1048,-0.325,0.210
1049,-0.335,0.200
1050,-0.325,0.190
1051,-0.300,0.200
1052,-0.295,0.200
1053,-0.310,0.190
1054,-0.320,0.190
1055,-0.330,0.170
1056,-0.320,0.165
1057,-0.310,0.185
1058,-0.280,0.200
1059,-0.295,0.200
1060,-0.320,0.185
1061,-0.335,0.170
1062,-0.330,0.175
1063,-0.320,0.175
1064,-0.295,0.180
1065,-0.285,0.185
1066,-0.320,0.195
1067,-0.320,0.165
1068,-0.310,0.175
1069,-0.300,0.180
1070,-0.270,0.195
1071,-0.275,0.185
1072,-0.300,0.175
1073,-0.310,0.175
1074,-0.305,0.155
1075,-0.285,0.180
1076,-0.275,0.195
1077,-0.275,0.195
1078,-0.300,0.185
1079,-0.315,0.165
1080,-0.320,0.165
1081,-0.285,0.165
1082,-0.260,0.185
1083,-0.280,0.190
1084,-0.295,0.175
1085,-0.295,0.155
1086,-0.285,0.165
1087,-0.280,0.155
1088,-0.275,0.175
1089,-0.285,0.170
1090,-0.290,0.165
1091,-0.300,0.160
1092,-0.305,0.160
1093,-0.290,0.155
1094,-0.265,0.180
1095,-0.290,0.190
1096,-0.285,0.165
1097,-0.295,0.150
1098,-0.295,0.145
1099,-0.280,0.165
1100,-0.260,0.170
1101,-0.265,0.180
1102,-0.290,0.175
1103,-0.315,0.160
1104,-0.305,0.155
1105,-0.285,0.165
1106,-0.260,0.165
1107,-0.285,0.175
1108,-0.280,0.170
1109,-0.300,0.150
1110,-0.295,0.145
1111,-0.270,0.160
1112,-0.260,0.170
1113,-0.260,0.170
1114,-0.280,0.170
1115,-0.290,0.155
1116,-0.290,0.140
1117,-0.285,0.160
1118,-0.255,0.185
1119,-0.250,0.180
1120,-0.255,0.170
1121,-0.265,0.160
1122,-0.245,0.165
1123,-0.225,0.170
1124,-0.200,0.195
1125,-0.185,0.200
1126,-0.190,0.195
1127,-0.190,0.175
1128,-0.185,0.170
1129,-0.155,0.170
1130,-0.110,0.155
1131,-0.100,0.155
1132,-0.095,0.125
1133,-0.105,0.100
1134,-0.100,0.090
1135,-0.095,0.095
1136,-0.085,0.105
1137,-0.080,0.120
1138,-0.120,0.105
1139,-0.150,0.105
1140,-0.170,0.085
1141,-0.145,0.080
1142,-0.150,0.100
1143,-0.155,0.095
1144,-0.190,0.090
1145,-0.200,0.065
1146,-0.205,0.075
1147,-0.235,0.090
1148,-0.210,0.120
1149,-0.210,0.135
1150,-0.230,0.135
1151,-0.245,0.105
1152,-0.265,0.105
1153,-0.245,0.100
1154,-0.225,0.120
1155,-0.225,0.125
1156,-0.230,0.125
1157,-0.260,0.105
1158,-0.245,0.095
1159,-0.230,0.105
1160,-0.220,0.120
1161,-0.225,0.110
1162,-0.240,0.110
1163,-0.245,0.105
1164,-0.255,0.100
1165,-0.235,0.105
1166,-0.230,0.110
1167,-0.220,0.120
1168,-0.240,0.100
1169,-0.250,0.070
1170,-0.270,0.065
1171,-0.275,0.065
1172,-0.255,0.075
1173,-0.205,0.085
1174,-0.115,0.045
1175,0.025,-0.030
1176,0.210,-0.110
1177,0.485,-0.145
1178,0.795,-0.130
1179,1.080,-0.120
1180,1.330,-0.115
1181,1.520,-0.130
1182,1.560,-0.095
1183,1.355,-0.025
1184,0.995,0.040
1185,0.570,0.095
1186,0.175,0.085
1187,-0.095,0.040
1188,-0.200,0.010
1189,-0.220,-0.010
1190,-0.225,0.000
1191,-0.220,0.025
1192,-0.250,0.060
1193,-0.255,0.080
1194,-0.250,0.085
1195,-0.220,0.095
1196,-0.225,0.110
1197,-0.240,0.125
1198,-0.250,0.110
1199,-0.265,0.110
1200,-0.275,0.110
1201,-0.250,0.105
1202,-0.260,0.120
1203,-0.285,0.120
1204,-0.300,0.125
1205,-0.290,0.115
1206,-0.290,0.110
1207,-0.265,0.095
1208,-0.260,0.110
1209,-0.265,0.115
1210,-0.275,0.110
1211,-0.280,0.100
1212,-0.285,0.075
1213,-0.255,0.095
1214,-0.235,0.115
1215,-0.265,0.115
1216,-0.270,0.105
1217,-0.275,0.085
1218,-0.270,0.080
1219,-0.250,0.090
1220,-0.225,0.095
1221,-0.220,0.105
1222,-0.235,0.105
1223,-0.240,0.090
1224,-0.240,0.065
1225,-0.230,0.075
1226,-0.210,0.085
1227,-0.205,0.085
1228,-0.220,0.070
1229,-0.210,0.060
1230,-0.195,0.045
1231,-0.190,0.050
1232,-0.175,0.060
1233,-0.160,0.060
1234,-0.160,0.045
1235,-0.165,0.035
1236,-0.155,0.010
1237,-0.130,0.020
1238,-0.135,0.035
1239,-0.125,0.035
1240,-0.115,0.015
1241,-0.110,-0.005
1242,-0.110,-0.015
1243,-0.080,-0.025
1244,-0.065,-0.030
1245,-0.050,-0.020
1246,-0.060,-0.040
1247,-0.050,-0.065
1248,-0.045,-0.075
1249,-0.005,-0.085
1250,0.015,-0.080
1251,0.020,-0.090
1252,0.025,-0.105
1253,0.015,-0.135
1254,0.035,-0.145
1255,0.065,-0.145
1256,0.105,-0.150
1257,0.115,-0.155
1258,0.105,-0.165
1259,0.095,-0.190
1260,0.125,-0.180
1261,0.140,-0.200
1262,0.170,-0.185
1263,0.165,-0.180
1264,0.155,-0.190
1265,0.150,-0.205
1266,0.155,-0.215
1267,0.180,-0.210
1268,0.195,-0.205
1269,0.215,-0.180
1270,0.200,-0.190
1271,0.205,-0.185
1272,0.205,-0.190
1273,0.210,-0.175
1274,0.215,-0.155
1275,0.220,-0.135
1276,0.185,-0.130
1277,0.175,-0.125
1278,0.170,-0.120
1279,0.170,-0.090
1280,0.180,-0.060
1281,0.160,-0.040
1282,0.130,-0.025
1283,0.100,-0.025
1284,0.070,-0.015
1285,0.050,0.010
1286,0.035,0.025
1287,0.025,0.040
1288,0.010,0.060
1289,-0.015,0.050
1290,-0.035,0.050
1291,-0.045,0.085
1292,-0.060,0.095
1293,-0.065,0.100
1294,-0.080,0.100
1295,-0.090,0.100
1296,-0.090,0.090
1297,-0.095,0.100
1298,-0.085,0.115
1299,-0.090,0.120
1300,-0.095,0.125
1301,-0.110,0.115
1302,-0.110,0.115
1303,-0.105,0.120
1304,-0.090,0.130
1305,-0.095,0.130
1306,-0.120,0.130
1307,-0.120,0.125
1308,-0.125,0.115
1309,-0.105,0.115
1310,-0.100,0.125
1311,-0.105,0.125
1312,-0.105,0.120
1313,-0.100,0.110
1314,-0.110,0.095
1315,-0.100,0.095
1316,-0.100,0.105
1317,-0.110,0.115
1318,-0.115,0.105
1319,-0.120,0.080
1320,-0.120,0.075
1321,-0.110,0.085
1322,-0.090,0.105
1323,-0.100,0.100
1324,-0.115,0.100
1325,-0.115,0.085
1326,-0.105,0.070
1327,-0.095,0.075
1328,-0.090,0.085
1329,-0.090,0.095
1330,-0.100,0.090
1331,-0.105,0.090
1332,-0.090,0.075
1333,-0.100,0.080
1334,-0.070,0.095
1335,-0.075,0.095
1336,-0.090,0.105
1337,-0.090,0.090
1338,-0.080,0.090
1339,-0.045,0.105
1340,-0.050,0.130
1341,-0.035,0.120
1342,-0.030,0.120
1343,-0.030,0.105
1344,-0.025,0.105
1345,0.025,0.110
1346,0.035,0.130
1347,0.060,0.125
1348,0.050,0.130
1349,0.045,0.100
1350,0.065,0.090
1351,0.080,0.080
1352,0.090,0.080
1353,0.100,0.075
1354,0.095,0.055
1355,0.110,0.010
1356,0.150,-0.020
1357,0.195,-0.060
1358,0.225,-0.090
1359,0.275,-0.160
1360,0.315,-0.240
1361,0.360,-0.345
1362,0.450,-0.450
1363,0.555,-0.540
1364,0.625,-0.600
1365,0.675,-0.655
1366,0.710,-0.715
1367,0.780,-0.775
1368,0.850,-0.835
1369,0.935,-0.865
1370,1.045,-0.890
1371,1.130,-0.920
1372,1.195,-0.955
1373,1.245,-0.985
1374,1.305,-1.035
1375,1.415,-1.065
1376,1.535,-1.055
1377,1.635,-1.045
1378,1.645,-1.005
1379,1.610,-0.970
1380,1.560,-0.910
1381,1.530,-0.830
1382,1.500,-0.755
1383,1.450,-0.665
1384,1.370,-0.575
1385,1.305,-0.510
1386,1.255,-0.435
1387,1.235,-0.355
1388,1.185,-0.295
1389,1.145,-0.270
1390,1.085,-0.255
1391,1.040,-0.260
1392,1.010,-0.260
1393,1.005,-0.250
1394,0.995,-0.235
1395,0.960,-0.230
1396,0.890,-0.230
1397,0.785,-0.240
1398,0.680,-0.235
1399,0.560,-0.190
1400,0.395,-0.130
1401,0.190,-0.050
1402,-0.025,0.030
1403,-0.185,0.095
1404,-0.290,0.150
1405,-0.360,0.200
1406,-0.380,0.250
1407,-0.430,0.270
1408,-0.480,0.280
1409,-0.500,0.275
1410,-0.510,0.290
1411,-0.515,0.300
1412,-0.530,0.320
1413,-0.550,0.335
1414,-0.580,0.345
1415,-0.590,0.345
1416,-0.595,0.340
1417,-0.585,0.365
1418,-0.595,0.385
1419,-0.605,0.395
1420,-0.615,0.385
1421,-0.630,0.390
1422,-0.630,0.400
1423,-0.630,0.405
1424,-0.630,0.440
1425,-0.645,0.455
1426,-0.675,0.475
1427,-0.695,0.480
1428,-0.700,0.480
1429,-0.695,0.515
1430,-0.710,0.530
1431,-0.735,0.560
1432,-0.750,0.560
1433,-0.760,0.555
1434,-0.770,0.565
1435,-0.760,0.605
1436,-0.765,0.620
1437,-0.770,0.655
1438,-0.805,0.660
1439,-0.825,0.650
1440,-0.825,0.655
1441,-0.815,0.675
1442,-0.820,0.690
1443,-0.830,0.715
1444,-0.865,0.705
1445,-0.870,0.710
1446,-0.885,0.715
1447,-0.880,0.715
1448,-0.880,0.725
1449,-0.875,0.735
1450,-0.885,0.720
1451,-0.900,0.700
1452,-0.885,0.705
1453,-0.890,0.695
1454,-0.885,0.705
1455,-0.895,0.700
1456,-0.890,0.670
1457,-0.890,0.650
1458,-0.880,0.625
1459,-0.850,0.630
1460,-0.835,0.610
1461,-0.815,0.610
1462,-0.825,0.580
1463,-0.810,0.545
1464,-0.785,0.505
1465,-0.745,0.495
1466,-0.705,0.465
1467,-0.690,0.440
1468,-0.680,0.415
1469,-0.670,0.375
1470,-0.615,0.335
1471,-0.570,0.325
1472,-0.520,0.315
1473,-0.490,0.285
1474,-0.470,0.255
1475,-0.450,0.240
1476,-0.410,0.205
1477,-0.380,0.200
1478,-0.345,0.205
1479,-0.320,0.195
1480,-0.320,0.190
1481,-0.305,0.145
1482,-0.280,0.140
1483,-0.240,0.135
1484,-0.225,0.140
1485,-0.215,0.140
1486,-0.230,0.140
1487,-0.225,0.110
1488,-0.225,0.115
1489,-0.220,0.110
1490,-0.200,0.130
1491,-0.190,0.115
1492,-0.215,0.105
1493,-0.225,0.100
1494,-0.225,0.100
1495,-0.200,0.110
1496,-0.205,0.115
1497,-0.200,0.130
1498,-0.215,0.110
1499,-0.235,0.110
1500,-0.220,0.095
1501,-0.200,0.105
1502,-0.190,0.120
1503,-0.195,0.125
1504,-0.225,0.130
1505,-0.220,0.105
1506,-0.215,0.110
1507,-0.210,0.110
1508,-0.205,0.125
1509,-0.205,0.125
1510,-0.225,0.115
1511,-0.240,0.120
1512,-0.225,0.110
1513,-0.215,0.120
1514,-0.210,0.125
1515,-0.215,0.135
1516,-0.230,0.130
1517,-0.250,0.115
1518,-0.240,0.110
1519,-0.205,0.125
1520,-0.200,0.140
1521,-0.200,0.140
1522,-0.210,0.130
1523,-0.220,0.120
1524,-0.220,0.105
1525,-0.200,0.125
1526,-0.200,0.135
1527,-0.195,0.130
1528,-0.200,0.130
1529,-0.215,0.120
1530,-0.215,0.115
1531,-0.185,0.115
1532,-0.185,0.125
1533,-0.180,0.125
1534,-0.190,0.120
1535,-0.200,0.105
1536,-0.190,0.090
1537,-0.170,0.100
1538,-0.160,0.125
1539,-0.170,0.120
1540,-0.175,0.115
1541,-0.185,0.100
1542,-0.180,0.100
1543,-0.160,0.105
1544,-0.150,0.120
1545,-0.145,0.125
1546,-0.165,0.125
1547,-0.170,0.110
1548,-0.165,0.115
1549,-0.150,0.130
1550,-0.140,0.150
1551,-0.140,0.140
1552,-0.130,0.130
1553,-0.125,0.120
1554,-0.110,0.095
1555,-0.075,0.090
1556,-0.035,0.100
1557,0.005,0.065
1558,0.035,0.025
1559,0.070,-0.015
1560,0.135,-0.045
1561,0.205,-0.070
1562,0.265,-0.100
1563,0.330,-0.140
1564,0.390,-0.235
1565,0.465,-0.355
1566,0.545,-0.440
1567,0.645,-0.520
1568,0.755,-0.585
1569,0.845,-0.650
1570,0.905,-0.725
1571,0.970,-0.795
1572,1.050,-0.865
1573,1.145,-0.935
1574,1.260,-0.960
1575,1.340,-0.990
1576,1.400,-1.015
1577,1.455,-1.055
1578,1.535,-1.090
1579,1.645,-1.085
1580,1.690,-1.070
1581,1.645,-1.040
1582,1.580,-1.000
1583,1.490,-0.955
1584,1.435,-0.885
1585,1.395,-0.805
1586,1.355,-0.720
1587,1.320,-0.640
1588,1.270,-0.535
1589,1.225,-0.445
1590,1.180,-0.390
1591,1.175,-0.315
1592,1.165,-0.285
1593,1.145,-0.255
1594,1.115,-0.235
1595,1.080,-0.235
1596,1.085,-0.215
1597,1.105,-0.175
1598,1.100,-0.155
1599,1.045,-0.150
1600,0.920,-0.150
1601,0.790,-0.145
1602,0.625,-0.120
1603,0.430,-0.055
1604,0.225,0.025
1605,0.015,0.090
1606,-0.135,0.160
1607,-0.250,0.205
1608,-0.340,0.225
1609,-0.380,0.260
1610,-0.405,0.295
1611,-0.440,0.315
1612,-0.480,0.325
1613,-0.505,0.315
1614,-0.520,0.330
1615,-0.525,0.345
1616,-0.530,0.370
1617,-0.545,0.380
1618,-0.575,0.365
1619,-0.600,0.375
1620,-0.615,0.375
1621,-0.605,0.400
1622,-0.600,0.420
1623,-0.620,0.435
1624,-0.650,0.435
1625,-0.670,0.445
1626,-0.670,0.440
1627,-0.670,0.470
1628,-0.675,0.485
1629,-0.670,0.500
1630,-0.705,0.510
1631,-0.710,0.500
1632,-0.730,0.505
1633,-0.730,0.530
1634,-0.725,0.555
1635,-0.750,0.575
1636,-0.775,0.585
1637,-0.790,0.595
1638,-0.805,0.585
1639,-0.790,0.615
1640,-0.800,0.640
1641,-0.805,0.660
1642,-0.825,0.655
1643,-0.835,0.660
1644,-0.845,0.660
1645,-0.850,0.680
1646,-0.845,0.705
1647,-0.865,0.720
1648,-0.880,0.715
1649,-0.885,0.715
1650,-0.890,0.720
1651,-0.880,0.725
1652,-0.895,0.725
1653,-0.905,0.730
1654,-0.920,0.735
1655,-0.935,0.700
1656,-0.920,0.690
1657,-0.900,0.690
1658,-0.900,0.705
1659,-0.890,0.700
1660,-0.905,0.680
1661,-0.905,0.655
1662,-0.900,0.640
1663,-0.875,0.625
1664,-0.850,0.600
1665,-0.815,0.600
1666,-0.810,0.565
1667,-0.790,0.530
1668,-0.760,0.490
1669,-0.740,0.460
1670,-0.685,0.435
1671,-0.645,0.415
1672,-0.630,0.380
1673,-0.600,0.345
1674,-0.560,0.320
1675,-0.505,0.305
1676,-0.465,0.290
1677,-0.460,0.270
1678,-0.420,0.245
1679,-0.415,0.215
1680,-0.365,0.195
1681,-0.305,0.180
1682,-0.285,0.185
1683,-0.275,0.185
1684,-0.270,0.160
1685,-0.255,0.140
1686,-0.240,0.125
1687,-0.200,0.125
1688,-0.185,0.130
1689,-0.170,0.120
1690,-0.180,0.125
1691,-0.185,0.105
1692,-0.175,0.095
1693,-0.160,0.100
1694,-0.155,0.115
1695,-0.150,0.115
1696,-0.180,0.105
1697,-0.185,0.095
1698,-0.175,0.090
1699,-0.165,0.105
1700,-0.160,0.105
1701,-0.160,0.120
1702,-0.180,0.105
1703,-0.190,0.090
1704,-0.185,0.090
1705,-0.165,0.100
1706,-0.155,0.110
1707,-0.165,0.105
1708,-0.200,0.115
1709,-0.195,0.100
1710,-0.190,0.100
1711,-0.160,0.100
1712,-0.145,0.125
1713,-0.160,0.120
1714,-0.175,0.125
1715,-0.175,0.105
1716,-0.180,0.100
1717,-0.150,0.115
1718,-0.155,0.125
1719,-0.150,0.120
1720,-0.160,0.120
1721,-0.170,0.095
1722,-0.165,0.105
1723,-0.145,0.105
1724,-0.135,0.120
1725,-0.150,0.135
1726,-0.160,0.120
1727,-0.165,0.100
1728,-0.145,0.100
1729,-0.135,0.110
1730,-0.120,0.120
1731,-0.125,0.110
1732,-0.130,0.100
1733,-0.150,0.085
1734,-0.135,0.090
1735,-0.115,0.100
1736,-0.110,0.115
1737,-0.115,0.120
1738,-0.140,0.090
1739,-0.150,0.080
1740,-0.130,0.075
1741,-0.120,0.070
1742,-0.120,0.095
1743,-0.115,0.100
1744,-0.140,0.100
1745,-0.150,0.080
1746,-0.135,0.075
1747,-0.115,0.070
1748,-0.105,0.090
1749,-0.105,0.090
1750,-0.135,0.075
1751,-0.125,0.075
1752,-0.130,0.065
1753,-0.120,0.065
1754,-0.095,0.085
1755,-0.105,0.090
1756,-0.120,0.075
1757,-0.130,0.060
1758,-0.120,0.050
1759,-0.105,0.060
1760,-0.090,0.075
1761,-0.105,0.080
1762,-0.115,0.070
1763,-0.115,0.065
1764,-0.110,0.040
1765,-0.100,0.065
1766,-0.090,0.075
1767,-0.105,0.070
1768,-0.110,0.060
1769,-0.125,0.065
1770,-0.115,0.055
1771,-0.095,0.070
1772,-0.085,0.070
1773,-0.085,0.070
1774,-0.095,0.070
1775,-0.120,0.045
1776,-0.110,0.045
1777,-0.100,0.045
1778,-0.085,0.060
1779,-0.080,0.065
1780,-0.105,0.065
1781,-0.105,0.055
1782,-0.115,0.055
1783,-0.095,0.060
1784,-0.085,0.065
1785,-0.090,0.060
1786,-0.110,0.070
1787,-0.115,0.050
1788,-0.105,0.050
1789,-0.085,0.060
1790,-0.085,0.060
1791,-0.090,0.065
1792,-0.115,0.060
1793,-0.120,0.050
1794,-0.105,0.040
1795,-0.090,0.045
1796,-0.075,0.065
1797,-0.075,0.075
1798,-0.075,0.070
1799,-0.075,0.060
1800,-0.065,0.070
1801,-0.030,0.095
1802,-0.030,0.105
1803,-0.015,0.120
1804,-0.020,0.110
1805,-0.025,0.110
1806,-0.005,0.095
1807,0.030,0.100
1808,0.065,0.095
1809,0.080,0.095
1810,0.065,0.065
1811,0.055,0.035
1812,0.065,0.010
1813,0.080,0.000
1814,0.080,0.015
1815,0.055,0.025
1816,0.025,0.015
1817,0.000,0.000
1818,0.000,-0.005
1819,0.005,0.000
1820,-0.005,0.015
1821,-0.020,0.015
1822,-0.055,-0.005
1823,-0.070,-0.010
1824,-0.075,-0.005
1825,-0.070,0.015
1826,-0.075,0.035
1827,-0.090,0.035
1828,-0.110,0.020
1829,-0.120,0.015
1830,-0.120,0.005
1831,-0.120,0.025
1832,-0.110,0.030
1833,-0.120,0.035
1834,-0.125,0.020
1835,-0.120,0.015
1836,-0.110,0.000
1837,-0.110,0.010
1838,-0.105,0.030
1839,-0.115,0.025
1840,-0.120,0.015
1841,-0.115,0.015
1842,-0.100,-0.005
1843,-0.085,0.005
1844,-0.085,0.020
1845,-0.105,0.015
1846,-0.105,0.015
1847,-0.100,-0.005
1848,-0.090,-0.030
1849,-0.100,-0.030
1850,-0.095,-0.015
1851,-0.060,-0.010
1852,-0.005,-0.010
1853,0.110,-0.045
1854,0.285,-0.115
1855,0.490,-0.175
1856,0.725,-0.200
1857,0.970,-0.195
1858,1.210,-0.205
1859,1.430,-0.245
1860,1.630,-0.270
1861,1.710,-0.235
1862,1.570,-0.150
1863,1.235,-0.090
1864,0.840,-0.070
1865,0.495,-0.075
1866,0.230,-0.070
1867,0.090,-0.080
1868,0.015,-0.085
1869,-0.055,-0.085
1870,-0.120,-0.055
1871,-0.160,-0.035
1872,-0.140,-0.010
1873,-0.100,0.000
1874,-0.090,0.040
1875,-0.110,0.040
1876,-0.135,0.035
1877,-0.150,0.030
1878,-0.145,0.035
1879,-0.140,0.035
1880,-0.135,0.055
1881,-0.155,0.050
1882,-0.180,0.040
1883,-0.165,0.050
1884,-0.160,0.035
1885,-0.155,0.055
1886,-0.145,0.060
1887,-0.155,0.070
1888,-0.180,0.070
1889,-0.175,0.050
1890,-0.155,0.045
1891,-0.150,0.035
1892,-0.145,0.060
1893,-0.145,0.060
1894,-0.170,0.055
1895,-0.155,0.055
1896,-0.140,0.040
1897,-0.135,0.050
1898,-0.115,0.045
1899,-0.125,0.055
1900,-0.135,0.055
1901,-0.130,0.035
1902,-0.125,0.020
1903,-0.105,0.025
1904,-0.090,0.040
1905,-0.090,0.030
1906,-0.090,0.030
1907,-0.095,0.010
1908,-0.090,0.010
1909,-0.070,0.005
1910,-0.030,0.005
1911,-0.050,0.010
1912,-0.040,-0.005
1913,-0.045,-0.015
1914,-0.030,-0.025
1915,0.000,-0.025
1916,0.020,-0.025
1917,0.020,-0.035
1918,0.015,-0.055
1919,0.010,-0.065
1920,0.035,-0.085
1921,0.080,-0.085
1922,0.110,-0.090
1923,0.115,-0.090
1924,0.105,-0.120
1925,0.090,-0.150
1926,0.115,-0.165
1927,0.165,-0.160
1928,0.180,-0.160
1929,0.200,-0.165
1930,0.205,-0.190
1931,0.195,-0.210
1932,0.205,-0.230
1933,0.245,-0.230
1934,0.270,-0.220
1935,0.285,-0.220
1936,0.290,-0.250
1937,0.290,-0.255
1938,0.310,-0.255
1939,0.325,-0.250
1940,0.340,-0.245
1941,0.335,-0.235
1942,0.315,-0.230
1943,0.330,-0.250
1944,0.325,-0.250
1945,0.345,-0.220
1946,0.345,-0.190
1947,0.320,-0.170
1948,0.265,-0.155
1949,0.250,-0.140
1950,0.235,-0.125
1951,0.235,-0.095
1952,0.210,-0.065
1953,0.180,-0.045
1954,0.155,-0.040
1955,0.120,-0.030
1956,0.110,-0.005
1957,0.105,0.010
1958,0.080,0.035
1959,0.040,0.050
1960,0.005,0.055
1961,-0.010,0.050
1962,-0.015,0.060
1963,-0.010,0.075
1964,-0.020,0.090
1965,-0.035,0.105
1966,-0.060,0.085
1967,-0.090,0.075
1968,-0.075,0.080
1969,-0.055,0.090
1970,-0.045,0.110
1971,-0.065,0.105
1972,-0.085,0.095
1973,-0.095,0.085
1974,-0.080,0.085
1975,-0.070,0.080
1976,-0.070,0.100
1977,-0.070,0.110
1978,-0.090,0.100
1979,-0.095,0.100
1980,-0.095,0.100
1981,-0.085,0.105
1982,-0.075,0.120
1983,-0.080,0.110
1984,-0.090,0.110
1985,-0.095,0.100
1986,-0.090,0.090
1987,-0.085,0.095
1988,-0.070,0.100
1989,-0.095,0.100
1990,-0.095,0.090
1991,-0.095,0.090
1992,-0.075,0.075
1993,-0.070,0.080
1994,-0.055,0.080
1995,-0.065,0.110
1996,-0.075,0.085
1997,-0.080,0.065
1998,-0.065,0.065
1999,-0.045,0.075
2000,-0.050,0.085
2001,-0.060,0.080
2002,-0.070,0.075
2003,-0.070,0.060
2004,-0.075,0.070
2005,-0.065,0.070
2006,-0.055,0.090
2007,-0.065,0.105
2008,-0.075,0.085
2009,-0.070,0.080
2010,-0.065,0.070
2011,-0.055,0.080
2012,-0.090,0.095
2013,-0.070,0.100
2014,-0.060,0.105
2015,-0.055,0.100
2016,-0.030,0.100
2017,-0.010,0.115
2018,0.005,0.125
2019,0.000,0.135
2020,0.000,0.125
2021,0.015,0.115
2022,0.030,0.105
2023,0.070,0.110
2024,0.090,0.115
2025,0.095,0.105
2026,0.080,0.095
2027,0.080,0.065
2028,0.075,0.035
2029,0.080,0.050
2030,0.075,0.080
2031,0.070,0.080
2032,0.050,0.075
2033,0.045,0.060
2034,0.050,0.050
2035,0.060,0.045
2036,0.070,0.040
2037,0.080,0.020
2038,0.090,-0.025
2039,0.105,-0.075
2040,0.155,-0.100
2041,0.205,-0.125
2042,0.260,-0.150
2043,0.310,-0.210
2044,0.350,-0.295
2045,0.410,-0.395
2046,0.490,-0.510
2047,0.580,-0.610
2048,0.645,-0.690
2049,0.710,-0.765
2050,0.755,-0.825
2051,0.815,-0.905
2052,0.880,-0.980
2053,0.965,-1.045
2054,1.055,-1.100
2055,1.125,-1.140
2056,1.175,-1.165
2057,1.240,-1.195
2058,1.350,-1.255
2059,1.465,-1.275
2060,1.545,-1.275
2061,1.570,-1.255
2062,1.530,-1.225
2063,1.480,-1.175
2064,1.430,-1.110
2065,1.385,-1.025
2066,1.350,-0.925
2067,1.325,-0.815
2068,1.315,-0.730
2069,1.330,-0.665
2070,1.340,-0.625
2071,1.370,-0.585
2072,1.370,-0.550
2073,1.365,-0.510
2074,1.370,-0.470
2075,1.375,-0.415
2076,1.385,-0.365
2077,1.380,-0.310
2078,1.315,-0.270
2079,1.200,-0.235
2080,1.020,-0.200
2081,0.795,-0.140
2082,0.560,-0.055
2083,0.315,0.040
2084,0.090,0.125
2085,-0.090,0.170
2086,-0.235,0.210
2087,-0.335,0.230
2088,-0.380,0.250
2089,-0.400,0.270
2090,-0.415,0.300
2091,-0.455,0.315
2092,-0.485,0.320
2093,-0.510,0.330
2094,-0.520,0.320
2095,-0.520,0.335
2096,-0.520,0.360
2097,-0.535,0.370
2098,-0.570,0.370
2099,-0.585,0.355
2100,-0.580,0.360
2101,-0.570,0.395
2102,-0.565,0.405
2103,-0.595,0.415
2104,-0.610,0.420
2105,-0.625,0.435
2106,-0.615,0.425
2107,-0.620,0.460
2108,-0.630,0.470
2109,-0.650,0.480
2110,-0.675,0.480
2111,-0.685,0.485
2112,-0.670,0.495
2113,-0.665,0.515
2114,-0.680,0.540
2115,-0.720,0.555
2116,-0.750,0.545
2117,-0.750,0.555
2118,-0.745,0.570
2119,-0.735,0.585
2120,-0.740,0.615
2121,-0.765,0.630
2122,-0.780,0.640
2123,-0.795,0.630
2124,-0.800,0.640
2125,-0.785,0.665
2126,-0.795,0.680
2127,-0.805,0.685
2128,-0.840,0.685
2129,-0.865,0.685
2130,-0.860,0.685
2131,-0.840,0.695
2132,-0.830,0.715
2133,-0.845,0.720
2134,-0.865,0.715
2135,-0.880,0.685
2136,-0.860,0.675
2137,-0.850,0.680
2138,-0.835,0.685
2139,-0.840,0.670
2140,-0.855,0.660
2141,-0.855,0.625
2142,-0.840,0.610
2143,-0.825,0.595
2144,-0.795,0.595
2145,-0.800,0.575
2146,-0.795,0.545
2147,-0.780,0.505
2148,-0.755,0.470
2149,-0.725,0.460
2150,-0.700,0.445
2151,-0.675,0.415
2152,-0.660,0.385
2153,-0.640,0.335
2154,-0.595,0.300
2155,-0.535,0.290
2156,-0.495,0.290
2157,-0.485,0.260
2158,-0.470,0.235
2159,-0.465,0.205
2160,-0.405,0.170
2161,-0.360,0.170
2162,-0.310,0.170
2163,-0.300,0.155
2164,-0.300,0.135
2165,-0.275,0.125
2166,-0.245,0.115
2167,-0.205,0.115
2168,-0.195,0.115
2169,-0.205,0.120
2170,-0.215,0.125
2171,-0.220,0.100
2172,-0.210,0.090
2173,-0.185,0.095
2174,-0.175,0.120
2175,-0.185,0.115
2176,-0.190,0.105
2177,-0.210,0.100
2178,-0.215,0.090
2179,-0.185,0.090
2180,-0.180,0.105
2181,-0.175,0.115
2182,-0.205,0.105
2183,-0.200,0.080
2184,-0.195,0.075
2185,-0.175,0.085
2186,-0.175,0.100
2187,-0.175,0.110
2188,-0.200,0.100
2189,-0.205,0.085
2190,-0.200,0.085
2191,-0.190,0.095
2192,-0.175,0.110
2193,-0.195,0.120
2194,-0.205,0.100
2195,-0.205,0.105
2196,-0.200,0.090
2197,-0.180,0.105
2198,-0.165,0.125
2199,-0.165,0.115
2200,-0.180,0.115
2201,-0.195,0.105
2202,-0.180,0.080
2203,-0.170,0.095
2204,-0.145,0.110
2205,-0.165,0.105
2206,-0.170,0.100
2207,-0.195,0.090
2208,-0.190,0.065
2209,-0.160,0.100
2210,-0.140,0.105
2211,-0.145,0.095
2212,-0.175,0.095
2213,-0.170,0.090
2214,-0.155,0.095
2215,-0.140,0.110
2216,-0.130,0.115
2217,-0.130,0.115
2218,-0.140,0.120
2219,-0.125,0.080
2220,-0.080,0.055
2221,-0.060,0.060
2222,-0.010,0.050
2223,0.005,0.025
2224,0.020,-0.010
2225,0.050,-0.050
2226,0.095,-0.105
2227,0.160,-0.145
2228,0.225,-0.200
2229,0.295,-0.270
2230,0.370,-0.375
2231,0.445,-0.465
2232,0.520,-0.565
2233,0.620,-0.625
2234,0.705,-0.685
2235,0.770,-0.755
2236,0.835,-0.835
2237,0.930,-0.930
2238,1.010,-0.990
2239,1.095,-1.020
2240,1.155,-1.035
2241,1.205,-1.050
2242,1.270,-1.065
2243,1.355,-1.095
2244,1.445,-1.090
2245,1.490,-1.045
2246,1.490,-0.980
2247,1.410,-0.915
2248,1.350,-0.850
2249,1.290,-0.800
2250,1.260,-0.715
2251,1.235,-0.610
2252,1.195,-0.475
2253,1.155,-0.385
2254,1.115,-0.305
2255,1.075,-0.255
2256,1.060,-0.210
2257,1.075,-0.190
2258,1.085,-0.160
2259,1.100,-0.140
2260,1.115,-0.130
2261,1.150,-0.140
2262,1.170,-0.155
2263,1.120,-0.185
2264,1.040,-0.180
2265,0.915,-0.160
2266,0.745,-0.150
2267,0.555,-0.115
2268,0.355,-0.075
2269,0.175,0.020
2270,0.005,0.090
2271,-0.105,0.130
2272,-0.210,0.150
2273,-0.265,0.165
2274,-0.310,0.170
2275,-0.335,0.200
2276,-0.385,0.225
2277,-0.430,0.245
2278,-0.465,0.260
2279,-0.490,0.265
2280,-0.500,0.280
2281,-0.505,0.285
2282,-0.520,0.310
2283,-0.545,0.315
2284,-0.580,0.310
2285,-0.585,0.310
2286,-0.590,0.320
2287,-0.595,0.330
2288,-0.600,0.350
2289,-0.620,0.365
2290,-0.655,0.375
2291,-0.645,0.355
2292,-0.650,0.360
2293,-0.640,0.375
2294,-0.650,0.395
2295,-0.675,0.400
2296,-0.705,0.410
2297,-0.730,0.410
2298,-0.730,0.410
2299,-0.720,0.430
2300,-0.725,0.455
2301,-0.755,0.460
2302,-0.780,0.460
2303,-0.800,0.465
2304,-0.795,0.480
2305,-0.785,0.490
2306,-0.790,0.510
2307,-0.820,0.520
2308,-0.835,0.515
2309,-0.855,0.505
2310,-0.860,0.500
2311,-0.855,0.515
2312,-0.865,0.525
2313,-0.890,0.530
2314,-0.895,0.525
2315,-0.900,0.515
2316,-0.890,0.505
2317,-0.870,0.505
2318,-0.875,0.525
2319,-0.880,0.510
2320,-0.880,0.505
2321,-0.885,0.490
2322,-0.870,0.470
2323,-0.840,0.465
2324,-0.830,0.470
2325,-0.825,0.450
2326,-0.825,0.415
2327,-0.800,0.400
2328,-0.765,0.375
2329,-0.745,0.355
2330,-0.705,0.355
2331,-0.695,0.330
2332,-0.690,0.310
2333,-0.645,0.280
2334,-0.620,0.255
2335,-0.580,0.240
2336,-0.550,0.225
2337,-0.535,0.215
2338,-0.515,0.185
2339,-0.475,0.170
2340,-0.440,0.135
2341,-0.400,0.135
2342,-0.375,0.135
2343,-0.355,0.130
2344,-0.370,0.115
2345,-0.345,0.080
2346,-0.305,0.070
2347,-0.275,0.080
2348,-0.250,0.080
2349,-0.255,0.075
2350,-0.245,0.075
2351,-0.250,0.050
2352,-0.250,0.055
2353,-0.225,0.060
2354,-0.230,0.070
2355,-0.245,0.060
2356,-0.240,0.060
2357,-0.245,0.045
2358,-0.225,0.050
2359,-0.205,0.050
2360,-0.220,0.070
2361,-0.225,0.065
2362,-0.225,0.055
2363,-0.235,0.050
2364,-0.235,0.045
2365,-0.210,0.060
2366,-0.210,0.075
2367,-0.230,0.080
2368,-0.230,0.060
2369,-0.240,0.060
2370,-0.220,0.045
2371,-0.210,0.055
2372,-0.220,0.070
2373,-0.215,0.080
2374,-0.230,0.065
2375,-0.220,0.055
2376,-0.210,0.045
2377,-0.185,0.060
2378,-0.190,0.070
2379,-0.210,0.065
2380,-0.210,0.045
2381,-0.215,0.035
2382,-0.190,0.030
2383,-0.170,0.030
2384,-0.160,0.055
2385,-0.175,0.055
2386,-0.185,0.040
2387,-0.210,0.025
2388,-0.180,0.020
2389,-0.160,0.035
2390,-0.160,0.045
2391,-0.170,0.045
2392,-0.180,0.040
2393,-0.185,0.015
2394,-0.160,0.020
2395,-0.145,0.025
2396,-0.145,0.045
2397,-0.150,0.030
2398,-0.170,0.035
2399,-0.165,0.025
2400,-0.145,0.020
2401,-0.125,0.010
2402,-0.130,0.030
2403,-0.130,0.025
2404,-0.160,0.015
2405,-0.145,0.005
2406,-0.140,0.010
2407,-0.125,0.005
2408,-0.130,0.020
2409,-0.140,0.025
2410,-0.155,0.020
2411,-0.155,0.000
2412,-0.155,-0.010
2413,-0.130,-0.005
2414,-0.130,0.010
2415,-0.135,0.025
2416,-0.145,0.005
2417,-0.150,-0.005
2418,-0.125,-0.005
2419,-0.110,0.000
2420,-0.125,0.005
2421,-0.150,0.005
2422,-0.140,0.000
2423,-0.145,-0.010
2424,-0.130,-0.015
2425,-0.125,-0.005
2426,-0.115,0.010
2427,-0.120,0.010
2428,-0.135,0.010
2429,-0.155,-0.005
2430,-0.150,-0.015
2431,-0.130,-0.015
2432,-0.130,0.000
2433,-0.140,0.010
2434,-0.155,0.000
2435,-0.145,-0.010
2436,-0.135,-0.005
2437,-0.125,-0.010
2438,-0.115,0.000
2439,-0.135,0.005
2440,-0.145,0.000
2441,-0.155,-0.020
2442,-0.130,-0.010
2443,-0.110,-0.005
2444,-0.120,0.015
2445,-0.125,0.000
2446,-0.145,-0.015
2447,-0.140,-0.015
2448,-0.135,-0.030
2449,-0.110,-0.010
2450,-0.120,-0.005
2451,-0.135,0.000
2452,-0.155,-0.030
2453,-0.145,-0.025
2454,-0.140,-0.025
2455,-0.130,-0.025
2456,-0.125,0.005
2457,-0.130,-0.005
2458,-0.140,-0.005
2459,-0.135,-0.030
2460,-0.125,-0.040
2461,-0.105,-0.020
2462,-0.105,-0.010
2463,-0.120,-0.005
2464,-0.120,-0.020
2465,-0.125,-0.035
2466,-0.110,-0.040
2467,-0.105,-0.020
2468,-0.100,-0.010
2469,-0.120,-0.015
2470,-0.145,-0.005
2471,-0.140,-0.030
2472,-0.120,-0.040
2473,-0.095,-0.020
2474,-0.090,-0.015
2475,-0.115,-0.005
2476,-0.135,-0.015
2477,-0.130,-0.035
2478,-0.120,-0.035
2479,-0.115,-0.030
2480,-0.105,-0.015
2481,-0.120,-0.020
2482,-0.125,-0.020
2483,-0.125,-0.040
2484,-0.110,-0.035
2485,-0.090,-0.035
2486,-0.110,-0.025
2487,-0.120,-0.020
2488,-0.120,-0.025
2489,-0.110,-0.035
2490,-0.120,-0.035
2491,-0.110,-0.040
2492,-0.110,-0.005
2493,-0.115,-0.015
2494,-0.135,-0.025
2495,-0.125,-0.035
2496,-0.110,-0.040
2497,-0.095,-0.025
2498,-0.085,-0.005
2499,-0.090,-0.010
2500,-0.120,-0.010
2501,-0.095,-0.030
2502,-0.075,-0.015
2503,-0.065,-0.005
2504,-0.050,0.015
2505,-0.060,0.015
2506,-0.060,0.010
2507,-0.045,0.010
2508,-0.010,0.015
2509,0.015,0.025
2510,0.025,0.030
2511,0.020,0.005
2512,0.025,-0.005
2513,0.045,-0.020
2514,0.060,-0.045
2515,0.075,-0.050
2516,0.070,-0.050
2517,0.060,-0.055
2518,0.030,-0.065
2519,0.010,-0.085
2520,0.035,-0.070
2521,0.025,-0.065
2522,0.015,-0.065
2523,-0.020,-0.060
2524,-0.050,-0.065
2525,-0.065,-0.075
2526,-0.075,-0.060
2527,-0.065,-0.055
2528,-0.090,-0.030
2529,-0.115,-0.035
2530,-0.120,-0.045
2531,-0.135,-0.055
2532,-0.130,-0.060
2533,-0.120,-0.060
2534,-0.130,-0.040
2535,-0.135,-0.040
2536,-0.150,-0.045
2537,-0.140,-0.060
2538,-0.120,-0.060
2539,-0.105,-0.055
2540,-0.110,-0.040
2541,-0.120,-0.055
2542,-0.130,-0.050
2543,-0.135,-0.065
2544,-0.115,-0.070
2545,-0.105,-0.055
2546,-0.120,-0.070
2547,-0.150,-0.070
2548,-0.185,-0.095
2549,-0.180,-0.085
2550,-0.120,-0.095
2551,0.005,-0.125
2552,0.145,-0.180
2553,0.315,-0.255
2554,0.545,-0.290
2555,0.825,-0.285
2556,1.125,-0.295
2557,1.390,-0.290
2558,1.595,-0.255
2559,1.625,-0.220
2560,1.445,-0.160
2561,1.080,-0.130
2562,0.655,-0.085
2563,0.225,-0.080
2564,-0.085,-0.105
2565,-0.185,-0.135
2566,-0.180,-0.170
2567,-0.160,-0.165
2568,-0.145,-0.150
2569,-0.145,-0.105
2570,-0.145,-0.065
2571,-0.130,-0.050
2572,-0.150,-0.040
2573,-0.170,-0.055
2574,-0.175,-0.055
2575,-0.170,-0.045
2576,-0.160,-0.025
2577,-0.160,-0.030
2578,-0.180,-0.040
2579,-0.185,-0.040
2580,-0.180,-0.035
2581,-0.165,-0.040
2582,-0.140,-0.035
2583,-0.155,-0.035
2584,-0.170,-0.040
2585,-0.180,-0.045
2586,-0.170,-0.060
2587,-0.160,-0.040
2588,-0.150,-0.040
2589,-0.155,-0.045
2590,-0.165,-0.045
2591,-0.170,-0.055
2592,-0.165,-0.060
2593,-0.150,-0.060
2594,-0.140,-0.030
2595,-0.150,-0.045
2596,-0.165,-0.050
2597,-0.160,-0.070
2598,-0.155,-0.070
2599,-0.140,-0.065
2600,-0.115,-0.060
2601,-0.125,-0.050
2602,-0.130,-0.065
2603,-0.135,-0.075
2604,-0.130,-0.090
2605,-0.095,-0.095
2606,-0.095,-0.070
2607,-0.105,-0.085
2608,-0.100,-0.100
2609,-0.090,-0.110
2610,-0.075,-0.115
2611,-0.045,-0.110
2612,-0.035,-0.115
2613,-0.050,-0.105
2614,-0.040,-0.120
2615,-0.040,-0.135
2616,-0.020,-0.160
2617,0.010,-0.150
2618,0.010,-0.155
2619,0.025,-0.170
2620,0.020,-0.180
2621,0.045,-0.205
2622,0.055,-0.220
2623,0.085,-0.205
2624,0.100,-0.215
2625,0.100,-0.230
2626,0.095,-0.245
2627,0.105,-0.260
2628,0.140,-0.275
2629,0.160,-0.265
2630,0.170,-0.270
2631,0.170,-0.265
2632,0.160,-0.285
2633,0.160,-0.300
2634,0.170,-0.315
2635,0.215,-0.305
2636,0.235,-0.295
2637,0.225,-0.290
2638,0.230,-0.295
2639,0.230,-0.310
2640,0.245,-0.305
2641,0.255,-0.295
2642,0.265,-0.275
2643,0.255,-0.265
2644,0.250,-0.275
2645,0.230,-0.260
2646,0.225,-0.245
2647,0.215,-0.230
2648,0.215,-0.195
2649,0.195,-0.170
2650,0.155,-0.160
2651,0.125,-0.155
2652,0.120,-0.140
2653,0.100,-0.110
2654,0.095,-0.085
2655,0.075,-0.065
2656,0.050,-0.055
2657,0.020,-0.060
2658,0.000,-0.065
2659,-0.010,-0.035
2660,-0.015,-0.005
2661,-0.030,0.000
2662,-0.075,0.020
2663,-0.095,0.000
2664,-0.110,0.005
2665,-0.090,0.010
2666,-0.085,0.035
2667,-0.115,0.035
2668,-0.120,0.040
2669,-0.125,0.035
2670,-0.140,0.025
2671,-0.120,0.040
2672,-0.135,0.050
2673,-0.150,0.055
2674,-0.155,0.045
2675,-0.165,0.035
2676,-0.140,0.025
2677,-0.130,0.040
2678,-0.120,0.045
2679,-0.125,0.055
2680,-0.145,0.045
2681,-0.155,0.025
2682,-0.145,0.030
2683,-0.125,0.035
2684,-0.130,0.045
2685,-0.120,0.050
2686,-0.130,0.040
2687,-0.135,0.025
2688,-0.135,0.010
2689,-0.125,0.025
2690,-0.110,0.035
2691,-0.135,0.030
2692,-0.145,0.030
2693,-0.145,0.000
2694,-0.150,0.000
2695,-0.125,0.000
2696,-0.120,0.030
2697,-0.115,0.030
2698,-0.130,0.010
2699,-0.145,-0.005
2700,-0.140,0.005
2701,-0.120,0.020
2702,-0.110,0.035
2703,-0.110,0.035
2704,-0.125,0.025
2705,-0.105,0.035
2706,-0.090,0.020
2707,-0.060,0.045
2708,-0.040,0.050
2709,-0.040,0.050
2710,-0.040,0.045
2711,-0.035,0.040
2712,0.000,0.030
2713,0.040,0.020
2714,0.055,0.045
2715,0.040,0.040
2716,0.020,0.035
2717,0.005,0.020
2718,0.010,0.000
2719,0.025,0.000
2720,0.035,0.010
2721,0.030,0.020
2722,0.000,0.015
2723,0.005,0.000
2724,0.045,-0.045
2725,0.075,-0.070
2726,0.110,-0.080
2727,0.110,-0.115
2728,0.130,-0.160
2729,0.165,-0.195
2730,0.240,-0.260
2731,0.330,-0.365
2732,0.410,-0.455
2733,0.460,-0.555
2734,0.525,-0.655
2735,0.585,-0.725
2736,0.660,-0.810
2737,0.765,-0.845
2738,0.835,-0.865
2739,0.905,-0.950
2740,0.965,-1.005
2741,1.040,-1.035
2742,1.115,-1.070
2743,1.190,-1.090
2744,1.270,-1.115
2745,1.360,-1.150
2746,1.450,-1.180
2747,1.505,-1.160
2748,1.520,-1.120
2749,1.495,-1.050
2750,1.430,-0.960
2751,1.345,-0.900
2752,1.285,-0.830
2753,1.240,-0.760
2754,1.190,-0.655
2755,1.150,-0.555
2756,1.120,-0.460
2757,1.060,-0.410
2758,1.000,-0.390
2759,0.985,-0.390
2760,0.995,-0.365
2761,0.990,-0.340
2762,0.990,-0.300
2763,0.965,-0.280
2764,0.945,-0.280
2765,0.905,-0.290
2766,0.850,-0.280
2767,0.745,-0.250
2768,0.620,-0.190
2769,0.440,-0.120
2770,0.200,-0.050
2771,-0.010,0.035
2772,-0.180,0.100
2773,-0.310,0.165
2774,-0.395,0.215
2775,-0.460,0.240
2776,-0.505,0.245
2777,-0.525,0.245
2778,-0.555,0.265
2779,-0.540,0.280
2780,-0.570,0.305
2781,-0.595,0.315
2782,-0.630,0.320
2783,-0.635,0.315
2784,-0.630,0.330
2785,-0.630,0.350
2786,-0.635,0.365
2787,-0.655,0.370
2788,-0.680,0.375
2789,-0.695,0.385
2790,-0.695,0.390
2791,-0.690,0.405
2792,-0.695,0.435
2793,-0.720,0.450
2794,-0.740,0.465
2795,-0.760,0.455
2796,-0.770,0.470
2797,-0.770,0.495
2798,-0.790,0.525
2799,-0.795,0.545
2800,-0.820,0.555
2801,-0.825,0.560
2802,-0.845,0.575
2803,-0.840,0.600
2804,-0.845,0.625
2805,-0.855,0.635
2806,-0.885,0.650
2807,-0.895,0.650
2808,-0.905,0.645
2809,-0.890,0.680
2810,-0.900,0.695
2811,-0.925,0.715
2812,-0.960,0.710
2813,-0.960,0.705
2814,-0.945,0.700
2815,-0.960,0.715
2816,-0.965,0.745
2817,-0.970,0.725
2818,-0.990,0.735
2819,-0.990,0.700
2820,-0.980,0.690
2821,-0.965,0.690
2822,-0.960,0.700
2823,-0.960,0.680
2824,-0.975,0.650
2825,-0.965,0.640
2826,-0.935,0.610
2827,-0.910,0.590
2828,-0.895,0.585
2829,-0.895,0.565
2830,-0.895,0.520
2831,-0.870,0.485
2832,-0.840,0.455
2833,-0.785,0.440
2834,-0.760,0.420
2835,-0.745,0.390
2836,-0.720,0.345
2837,-0.690,0.310
2838,-0.650,0.280
2839,-0.605,0.260
2840,-0.580,0.245
2841,-0.540,0.235
2842,-0.535,0.205
2843,-0.505,0.170
2844,-0.460,0.155
2845,-0.420,0.150
2846,-0.405,0.170
2847,-0.400,0.145
2848,-0.380,0.135
2849,-0.375,0.110
2850,-0.330,0.105
2851,-0.325,0.105
2852,-0.305,0.125
2853,-0.305,0.125
2854,-0.325,0.115
2855,-0.320,0.095
2856,-0.305,0.080
2857,-0.285,0.100
2858,-0.280,0.110
2859,-0.305,0.105
2860,-0.315,0.100
2861,-0.325,0.090
2862,-0.315,0.085
2863,-0.285,0.095
2864,-0.285,0.100
2865,-0.295,0.110
2866,-0.315,0.110
2867,-0.315,0.085
2868,-0.315,0.095
2869,-0.290,0.100
2870,-0.290,0.105
2871,-0.295,0.110
2872,-0.305,0.115
2873,-0.315,0.095
2874,-0.305,0.095
2875,-0.300,0.115
2876,-0.295,0.115
2877,-0.300,0.120
2878,-0.310,0.120
2879,-0.320,0.105
2880,-0.310,0.090
2881,-0.295,0.100
2882,-0.280,0.120
2883,-0.280,0.120
2884,-0.300,0.100
2885,-0.305,0.095
2886,-0.310,0.090
2887,-0.280,0.105
2888,-0.265,0.115
2889,-0.260,0.100
2890,-0.270,0.095
2891,-0.280,0.075
2892,-0.270,0.085
2893,-0.240,0.090
2894,-0.240,0.095
2895,-0.240,0.095
2896,-0.240,0.095
2897,-0.250,0.085
2898,-0.235,0.080
2899,-0.225,0.090
2900,-0.215,0.100
2901,-0.220,0.105
2902,-0.245,0.100
2903,-0.250,0.095
2904,-0.225,0.105
2905,-0.200,0.095
2906,-0.175,0.110
2907,-0.170,0.090
2908,-0.150,0.075
2909,-0.125,0.035
2910,-0.070,0.010
2911,-0.020,-0.010
2912,0.010,-0.025
2913,0.055,-0.070
2914,0.095,-0.150
2915,0.135,-0.225
2916,0.245,-0.320
2917,0.355,-0.435
2918,0.450,-0.515
2919,0.515,-0.595
2920,0.595,-0.665
2921,0.665,-0.735
2922,0.765,-0.785
2923,0.860,-0.845
2924,0.950,-0.900
2925,1.060,-0.970
2926,1.145,-1.000
2927,1.230,-1.020
2928,1.355,-1.055
2929,1.490,-1.070
2930,1.560,-1.050
2931,1.590,-1.025
2932,1.535,-1.010
2933,1.455,-0.965
2934,1.390,-0.910
2935,1.330,-0.810
2936,1.280,-0.700
2937,1.245,-0.585
2938,1.195,-0.490
2939,1.160,-0.405
2940,1.125,-0.360
2941,1.095,-0.320
2942,1.055,-0.275
2943,1.030,-0.265
2944,0.985,-0.225
2945,0.975,-0.215
2946,1.000,-0.190
2947,1.025,-0.170
2948,0.985,-0.160
2949,0.900,-0.150
2950,0.770,-0.165
2951,0.620,-0.145
2952,0.455,-0.095
2953,0.255,-0.030
2954,0.050,0.055
2955,-0.135,0.135
2956,-0.320,0.185
2957,-0.410,0.200
2958,-0.460,0.235
2959,-0.470,0.265
2960,-0.490,0.280
2961,-0.525,0.295
2962,-0.565,0.300
2963,-0.600,0.295
2964,-0.615,0.300
2965,-0.610,0.330
2966,-0.625,0.335
2967,-0.655,0.365
2968,-0.685,0.370
2969,-0.690,0.360
2970,-0.685,0.360
2971,-0.680,0.385
2972,-0.685,0.405
2973,-0.720,0.415
2974,-0.745,0.415
2975,-0.755,0.415
2976,-0.745,0.440
2977,-0.740,0.465
2978,-0.760,0.480
2979,-0.785,0.495
2980,-0.815,0.505
2981,-0.835,0.505
2982,-0.840,0.500
2983,-0.830,0.535
2984,-0.845,0.570
2985,-0.875,0.575
2986,-0.900,0.590
2987,-0.920,0.595
2988,-0.915,0.600
2989,-0.915,0.625
2990,-0.925,0.650
2991,-0.950,0.655
2992,-0.970,0.665
2993,-0.990,0.650
2994,-0.990,0.660
2995,-0.985,0.670
2996,-0.975,0.680
2997,-0.990,0.680
2998,-1.020,0.665
2999,-1.015,0.640
3000,-0.985,0.625
3001,-0.945,0.610
3002,-0.925,0.605
3003,-0.935,0.590
3004,-0.925,0.550
3005,-0.905,0.505
3006,-0.845,0.475
3007,-0.805,0.445
3008,-0.760,0.415
3009,-0.720,0.400
3010,-0.715,0.360
3011,-0.670,0.320
3012,-0.620,0.285
3013,-0.565,0.275
3014,-0.525,0.250
3015,-0.495,0.240
3016,-0.470,0.210
3017,-0.440,0.175
3018,-0.395,0.160
3019,-0.350,0.150
3020,-0.335,0.150
3021,-0.315,0.145
3022,-0.310,0.140
3023,-0.295,0.110
3024,-0.275,0.105
3025,-0.260,0.105
3026,-0.245,0.120
3027,-0.260,0.120
3028,-0.270,0.120
3029,-0.290,0.085
3030,-0.260,0.085
3031,-0.230,0.095
3032,-0.225,0.115
3033,-0.240,0.105
3034,-0.255,0.095
3035,-0.260,0.090
3036,-0.255,0.100
3037,-0.235,0.095
3038,-0.225,0.110
3039,-0.235,0.110
3040,-0.260,0.095
3041,-0.260,0.100
3042,-0.250,0.095
3043,-0.230,0.100
3044,-0.260,0.120
3045,-0.250,0.125
3046,-0.265,0.110
3047,-0.255,0.095
3048,-0.250,0.095
3049,-0.220,0.095
3050,-0.225,0.120
3051,-0.230,0.115
3052,-0.245,0.095
3053,-0.240,0.075
3054,-0.215,0.075
3055,-0.195,0.090
3056,-0.195,0.100
3057,-0.210,0.095
3058,-0.235,0.080
3059,-0.225,0.060
3060,-0.205,0.070
3061,-0.180,0.080
3062,-0.185,0.090
3063,-0.195,0.095
3064,-0.210,0.085
3065,-0.205,0.065
3066,-0.180,0.065
3067,-0.160,0.070
3068,-0.165,0.085
3069,-0.180,0.085
3070,-0.190,0.080
3071,-0.190,0.065
3072,-0.170,0.055
3073,-0.160,0.075
3074,-0.155,0.090
3075,-0.170,0.085
3076,-0.180,0.075
3077,-0.190,0.055
3078,-0.175,0.055
3079,-0.155,0.065
3080,-0.150,0.075
3081,-0.165,0.070
3082,-0.185,0.070
3083,-0.180,0.055
3084,-0.165,0.065
3085,-0.145,0.060
3086,-0.140,0.060
3087,-0.165,0.075
3088,-0.165,0.060
3089,-0.160,0.035
3090,-0.165,0.035
3091,-0.145,0.045
3092,-0.140,0.055
3093,-0.155,0.070
3094,-0.165,0.050
3095,-0.170,0.040
3096,-0.145,0.040
3097,-0.140,0.055
3098,-0.135,0.060
3099,-0.145,0.065
3100,-0.150,0.045
3101,-0.155,0.040
3102,-0.135,0.040
3103,-0.130,0.045
3104,-0.135,0.050
3105,-0.135,0.050
3106,-0.155,0.050
3107,-0.160,0.045
3108,-0.150,0.035
3109,-0.130,0.045
3110,-0.140,0.050
3111,-0.135,0.060
3112,-0.160,0.050
3113,-0.155,0.040
3114,-0.145,0.035
3115,-0.125,0.040
3116,-0.120,0.060
3117,-0.130,0.050
3118,-0.150,0.045
3119,-0.155,0.025
3120,-0.125,0.040
3121,-0.125,0.050
3122,-0.145,0.065
3123,-0.145,0.060
3124,-0.145,0.055
3125,-0.145,0.040
3126,-0.135,0.035
3127,-0.125,0.045
3128,-0.135,0.055
3129,-0.155,0.060
3130,-0.140,0.045
3131,-0.140,0.030
3132,-0.125,0.035
3133,-0.120,0.040
3134,-0.115,0.060
3135,-0.125,0.050
3136,-0.145,0.045
3137,-0.145,0.040
3138,-0.135,0.040
3139,-0.115,0.045
3140,-0.105,0.050
3141,-0.110,0.055
3142,-0.105,0.065
3143,-0.100,0.070
3144,-0.080,0.070
3145,-0.050,0.080
3146,-0.045,0.090
3147,-0.035,0.105
3148,-0.025,0.090
3149,-0.015,0.080
3150,0.020,0.065
3151,0.050,0.050
3152,0.050,0.055
3153,0.035,0.030
3154,0.030,0.005
3155,0.025,-0.010
3156,0.035,-0.025
3157,0.025,-0.010
3158,0.005,-0.010
3159,-0.020,-0.005
3160,-0.050,-0.005
3161,-0.050,-0.025
3162,-0.055,-0.045
3163,-0.055,-0.035
3164,-0.065,-0.010
3165,-0.090,0.005
3166,-0.115,0.005
3167,-0.125,-0.005
3168,-0.125,0.010
3169,-0.125,-0.005
3170,-0.125,0.020
3171,-0.140,0.020
3172,-0.165,0.000
3173,-0.145,-0.005
3174,-0.145,-0.005
3175,-0.135,-0.005
3176,-0.130,0.015
3177,-0.145,0.010
3178,-0.155,0.005
3179,-0.140,-0.005
3180,-0.125,-0.010
3181,-0.115,-0.005
3182,-0.125,0.000
3183,-0.140,0.005
3184,-0.145,-0.010
3185,-0.145,-0.015
3186,-0.120,-0.020
3187,-0.115,-0.010
3188,-0.125,-0.025
3189,-0.155,-0.025
3190,-0.165,-0.035
3191,-0.150,-0.045
3192,-0.070,-0.040
3193,0.040,-0.050
3194,0.175,-0.105
3195,0.340,-0.190
3196,0.530,-0.225
3197,0.750,-0.250
3198,0.995,-0.245
3199,1.250,-0.255
3200,1.470,-0.265
3201,1.600,-0.250
3202,1.540,-0.190
3203,1.280,-0.140
3204,0.935,-0.125
3205,0.595,-0.100
3206,0.290,-0.080
3207,0.100,-0.080
3208,0.000,-0.115
3209,-0.070,-0.135
3210,-0.115,-0.120
3211,-0.145,-0.095
3212,-0.160,-0.050
3213,-0.165,-0.025
3214,-0.135,-0.020
3215,-0.130,-0.020
3216,-0.135,-0.010
3217,-0.135,0.005
3218,-0.150,0.020
3219,-0.175,0.010
3220,-0.185,0.005
3221,-0.185,0.000
3222,-0.180,-0.005
3223,-0.165,0.015
3224,-0.170,0.030
3225,-0.205,0.025
3226,-0.200,0.020
3227,-0.195,0.005
3228,-0.175,0.010
3229,-0.180,0.015
3230,-0.165,0.020
3231,-0.180,0.025
3232,-0.190,0.020
3233,-0.195,0.000
3234,-0.170,0.000
3235,-0.150,0.005
3236,-0.155,0.025
3237,-0.165,0.015
3238,-0.180,0.005
3239,-0.185,-0.010
3240,-0.155,0.010
3241,-0.150,0.010
3242,-0.140,0.030
3243,-0.140,0.010
3244,-0.155,-0.005
3245,-0.155,-0.015
3246,-0.125,-0.015
3247,-0.100,-0.015
3248,-0.095,-0.005
3249,-0.105,0.005
3250,-0.125,-0.015
3251,-0.140,-0.035
3252,-0.110,-0.040
3253,-0.075,-0.030
3254,-0.075,-0.030
3255,-0.090,-0.035
3256,-0.100,-0.050
3257,-0.085,-0.060
3258,-0.065,-0.065
3259,-0.030,-0.055
3260,-0.010,-0.055
3261,-0.040,-0.065
3262,-0.040,-0.085
3263,-0.055,-0.105
3264,-0.015,-0.120
3265,0.025,-0.110
3266,0.045,-0.105
3267,0.035,-0.110
3268,0.015,-0.135
3269,0.025,-0.160
3270,0.055,-0.170
3271,0.110,-0.170
3272,0.115,-0.175
3273,0.120,-0.185
3274,0.110,-0.210
3275,0.125,-0.235
3276,0.155,-0.240
3277,0.190,-0.240
3278,0.205,-0.230
3279,0.210,-0.245
3280,0.205,-0.265
3281,0.210,-0.285
3282,0.235,-0.290
3283,0.255,-0.285
3284,0.270,-0.265
3285,0.270,-0.275
3286,0.265,-0.285
3287,0.260,-0.310
3288,0.275,-0.300
3289,0.310,-0.290
3290,0.320,-0.275
3291,0.315,-0.265
3292,0.295,-0.260
3293,0.275,-0.275
3294,0.275,-0.265
3295,0.290,-0.235
3296,0.290,-0.200
3297,0.240,-0.190
3298,0.205,-0.180
3299,0.170,-0.175
3300,0.170,-0.140
3301,0.175,-0.105
3302,0.155,-0.080
3303,0.140,-0.050
3304,0.080,-0.050
3305,0.060,-0.040
3306,0.050,-0.035
3307,0.055,-0.015
3308,0.020,0.005
3309,0.030,0.020
3310,-0.020,0.020
3311,-0.035,0.015
3312,-0.045,0.025
3313,-0.030,0.040
3314,-0.035,0.055
3315,-0.055,0.060
3316,-0.080,0.055
3317,-0.120,0.040
3318,-0.140,0.040
3319,-0.110,0.055
3320,-0.105,0.060
3321,-0.105,0.065
3322,-0.125,0.075
3323,-0.125,0.065
3324,-0.125,0.045
3325,-0.110,0.060
3326,-0.110,0.070
3327,-0.105,0.080
3328,-0.120,0.070
3329,-0.135,0.060
3330,-0.135,0.055
3331,-0.120,0.055
3332,-0.115,0.080
3333,-0.100,0.065
3334,-0.125,0.065
3335,-0.130,0.055
3336,-0.125,0.050
3337,-0.120,0.055
3338,-0.105,0.065
3339,-0.095,0.075
3340,-0.125,0.050
3341,-0.115,0.045
3342,-0.100,0.035
3343,-0.080,0.050
3344,-0.080,0.060
3345,-0.105,0.055
3346,-0.120,0.055
3347,-0.130,0.030
3348,-0.130,0.025
3349,-0.115,0.025
3350,-0.105,0.030
3351,-0.095,0.030
3352,-0.110,0.025
3353,-0.100,0.010
3354,-0.105,0.020
3355,-0.095,0.030
3356,-0.100,0.025
3357,-0.110,0.040
3358,-0.110,0.035
3359,-0.120,0.015
3360,-0.105,0.015
3361,-0.110,0.040
3362,-0.110,0.035
3363,-0.110,0.040
3364,-0.120,0.040
3365,-0.090,0.035
3366,-0.070,0.025
3367,-0.060,0.045
3368,-0.050,0.065
3369,-0.050,0.075
3370,-0.045,0.075
3371,-0.040,0.060
3372,-0.015,0.055
3373,0.005,0.075
3374,0.020,0.075
3375,0.025,0.070
3376,0.025,0.055
3377,0.025,0.040
3378,0.045,0.035
3379,0.065,0.030
3380,0.055,0.045
3381,0.020,0.035
3382,0.005,0.025
3383,0.010,0.020
3384,0.030,0.015
3385,0.045,0.015
3386,0.045,0.020
3387,0.035,0.025
3388,0.025,-0.025
3389,0.050,-0.060
3390,0.070,-0.085
3391,0.125,-0.110
3392,0.160,-0.125
3393,0.170,-0.170
3394,0.205,-0.225
3395,0.270,-0.295
3396,0.350,-0.405
3397,0.435,-0.510
3398,0.515,-0.605
3399,0.570,-0.685
3400,0.615,-0.775
3401,0.680,-0.830
3402,0.755,-0.885
3403,0.830,-0.925
3404,0.900,-0.965
3405,0.965,-1.035
3406,1.040,-1.085
3407,1.115,-1.125
3408,1.185,-1.135
3409,1.245,-1.145
3410,1.340,-1.170
3411,1.420,-1.195
3412,1.495,-1.215
3413,1.550,-1.220
3414,1.555,-1.165
3415,1.545,-1.115
3416,1.505,-1.045
3417,1.445,-0.990
3418,1.390,-0.940
3419,1.330,-0.865
3420,1.295,-0.775
3421,1.285,-0.675
3422,1.245,-0.565
3423,1.220,-0.510
3424,1.170,-0.480
3425,1.140,-0.460
3426,1.145,-0.450
3427,1.160,-0.400
3428,1.155,-0.345
3429,1.140,-0.310
3430,1.125,-0.300
3431,1.090,-0.305
3432,1.030,-0.300
3433,0.960,-0.275
3434,0.865,-0.235
3435,0.715,-0.190
3436,0.520,-0.140
3437,0.295,-0.070
3438,0.095,0.010
3439,-0.090,0.080
3440,-0.215,0.130
3441,-0.325,0.185
3442,-0.395,0.195
3443,-0.445,0.205
3444,-0.460,0.220
3445,-0.455,0.240
3446,-0.465,0.270
3447,-0.495,0.290
3448,-0.540,0.275
3449,-0.575,0.290
3450,-0.580,0.285
3451,-0.580,0.300
3452,-0.575,0.315
3453,-0.580,0.325
3454,-0.605,0.325
3455,-0.610,0.335
3456,-0.620,0.335
3457,-0.620,0.350
3458,-0.625,0.375
3459,-0.650,0.375
3460,-0.670,0.385
3461,-0.670,0.380
3462,-0.655,0.405
3463,-0.635,0.400
3464,-0.665,0.430
3465,-0.685,0.430
3466,-0.690,0.440
3467,-0.700,0.440
3468,-0.695,0.440
3469,-0.690,0.470
3470,-0.700,0.490
3471,-0.725,0.505
3472,-0.740,0.505
3473,-0.745,0.515
3474,-0.750,0.525
3475,-0.750,0.550
3476,-0.770,0.565
3477,-0.800,0.585
3478,-0.825,0.585
3479,-0.825,0.580
3480,-0.815,0.610
3481,-0.810,0.620
3482,-0.810,0.645
3483,-0.830,0.645
3484,-0.860,0.635
3485,-0.865,0.635
3486,-0.860,0.640
3487,-0.860,0.650
3488,-0.850,0.670
3489,-0.865,0.670
3490,-0.890,0.660
3491,-0.910,0.640
3492,-0.880,0.630
3493,-0.855,0.645
3494,-0.830,0.645
3495,-0.860,0.645
3496,-0.860,0.620
3497,-0.870,0.595
3498,-0.845,0.580
3499,-0.815,0.570
3500,-0.805,0.560
3501,-0.795,0.550
3502,-0.805,0.515
3503,-0.795,0.480
3504,-0.775,0.465
3505,-0.735,0.440
3506,-0.715,0.435
3507,-0.695,0.420
3508,-0.680,0.375
3509,-0.660,0.340
3510,-0.645,0.310
3511,-0.600,0.305
3512,-0.565,0.295
3513,-0.530,0.265
3514,-0.505,0.230
3515,-0.495,0.200
3516,-0.465,0.180
3517,-0.425,0.175
3518,-0.385,0.180
3519,-0.345,0.155
3520,-0.345,0.140
3521,-0.315,0.105
3522,-0.290,0.090
3523,-0.250,0.075
3524,-0.235,0.100
3525,-0.235,0.095
3526,-0.240,0.080
3527,-0.235,0.065
3528,-0.225,0.050
3529,-0.200,0.060
3530,-0.195,0.075
3531,-0.195,0.070
3532,-0.210,0.065
3533,-0.205,0.045
3534,-0.205,0.055
3535,-0.195,0.060
3536,-0.180,0.065
3537,-0.195,0.070
3538,-0.205,0.065
3539,-0.210,0.050
3540,-0.205,0.050
3541,-0.190,0.065
3542,-0.180,0.060
3543,-0.175,0.085
3544,-0.185,0.055
3545,-0.190,0.055
3546,-0.180,0.045
3547,-0.175,0.050
3548,-0.175,0.070
3549,-0.175,0.065
3550,-0.180,0.060
3551,-0.170,0.055
3552,-0.160,0.050
3553,-0.175,0.070
3554,-0.180,0.085
3555,-0.190,0.085
3556,-0.190,0.075
3557,-0.175,0.065
3558,-0.170,0.065
3559,-0.170,0.085
3560,-0.165,0.075
3561,-0.180,0.085
3562,-0.185,0.075
3563,-0.180,0.060
3564,-0.170,0.050
3565,-0.165,0.070
3566,-0.170,0.065
3567,-0.165,0.075
3568,-0.185,0.060
3569,-0.175,0.045
3570,-0.170,0.045
3571,-0.165,0.040
3572,-0.170,0.065
3573,-0.175,0.085
3574,-0.170,0.080
3575,-0.175,0.070
3576,-0.155,0.070
3577,-0.135,0.065
3578,-0.120,0.075
3579,-0.100,0.075
3580,-0.105,0.060
3581,-0.080,0.025
3582,-0.035,0.000
3583,0.015,-0.020
3584,0.060,-0.040
3585,0.085,-0.070
3586,0.120,-0.110
3587,0.165,-0.165
3588,0.235,-0.230
3589,0.320,-0.300
3590,0.390,-0.375
3591,0.475,-0.460
3592,0.545,-0.530
3593,0.620,-0.590
3594,0.710,-0.640
3595,0.805,-0.685
3596,0.885,-0.720
3597,0.940,-0.760
3598,1.025,-0.800
3599,1.130,-0.870
3600,1.225,-0.885
3601,1.305,-0.900
3602,1.385,-0.910
3603,1.455,-0.925
3604,1.550,-0.960
3605,1.630,-0.975
3606,1.670,-0.955
3607,1.660,-0.900
3608,1.620,-0.825
3609,1.540,-0.760
3610,1.480,-0.695
3611,1.420,-0.660
3612,1.355,-0.580
3613,1.315,-0.475
3614,1.235,-0.395
3615,1.170,-0.310
3616,1.105,-0.285
3617,1.055,-0.255
3618,1.035,-0.235
3619,1.035,-0.215
3620,1.020,-0.215
3621,1.000,-0.215
3622,0.995,-0.225
3623,0.965,-0.260
3624,0.885,-0.265
3625,0.760,-0.265
3626,0.595,-0.230
3627,0.400,-0.180
3628,0.190,-0.105
3629,0.010,-0.040
3630,-0.125,0.045
3631,-0.225,0.105
3632,-0.305,0.155
3633,-0.370,0.185
3634,-0.415,0.200
3635,-0.445,0.200
3636,-0.455,0.210
3637,-0.475,0.230
3638,-0.485,0.245
3639,-0.510,0.260
3640,-0.520,0.265
3641,-0.535,0.255
3642,-0.540,0.265
3643,-0.545,0.275
3644,-0.560,0.295
3645,-0.570,0.305
3646,-0.595,0.315
3647,-0.600,0.310
3648,-0.600,0.300
3649,-0.605,0.325
3650,-0.605,0.340
3651,-0.630,0.350
3652,-0.645,0.345
3653,-0.650,0.350
3654,-0.645,0.370
3655,-0.650,0.380
3656,-0.670,0.390
3657,-0.680,0.405
3658,-0.705,0.415
3659,-0.690,0.410
3660,-0.695,0.430
3661,-0.700,0.450
3662,-0.710,0.480
3663,-0.735,0.485
3664,-0.765,0.485
3665,-0.770,0.480
3666,-0.780,0.500
3667,-0.770,0.505
3668,-0.780,0.530
3669,-0.805,0.550
3670,-0.820,0.545
3671,-0.825,0.530
3672,-0.825,0.535
3673,-0.825,0.545
3674,-0.825,0.570
3675,-0.850,0.575
3676,-0.860,0.560
3677,-0.860,0.550
3678,-0.860,0.550
3679,-0.850,0.550
3680,-0.855,0.560
3681,-0.870,0.555
3682,-0.870,0.535
3683,-0.875,0.510
3684,-0.855,0.515
3685,-0.825,0.515
3686,-0.820,0.505
3687,-0.830,0.490
3688,-0.820,0.460
3689,-0.795,0.435
3690,-0.765,0.420
3691,-0.740,0.405
3692,-0.740,0.385
3693,-0.730,0.360
3694,-0.700,0.325
3695,-0.675,0.290
3696,-0.635,0.270
3697,-0.580,0.255
3698,-0.555,0.235
3699,-0.550,0.210
3700,-0.515,0.195
3701,-0.480,0.150
3702,-0.430,0.135
3703,-0.375,0.130
3704,-0.355,0.135
3705,-0.350,0.115
3706,-0.330,0.100
3707,-0.310,0.080
3708,-0.285,0.065
3709,-0.240,0.070
3710,-0.235,0.070
3711,-0.235,0.060
3712,-0.240,0.055
3713,-0.225,0.035
3714,-0.220,0.045
3715,-0.180,0.050
3716,-0.190,0.065
3717,-0.205,0.055
3718,-0.210,0.030
3719,-0.215,0.035
3720,-0.190,0.025
3721,-0.185,0.045
3722,-0.180,0.055
3723,-0.195,0.050
3724,-0.215,0.045
3725,-0.200,0.035
3726,-0.190,0.030
3727,-0.185,0.035
3728,-0.195,0.055
3729,-0.225,0.055
3730,-0.215,0.045
3731,-0.205,0.030
3732,-0.190,0.030
3733,-0.170,0.050
3734,-0.185,0.055
3735,-0.215,0.055
3736,-0.240,0.035
3737,-0.225,0.035
3738,-0.195,0.035
3739,-0.165,0.045
3740,-0.155,0.050
3741,-0.185,0.050
3742,-0.200,0.040
3743,-0.195,0.025
3744,-0.185,0.020
3745,-0.170,0.030
3746,-0.160,0.045
3747,-0.180,0.040
3748,-0.190,0.035
3749,-0.180,0.020
3750,-0.170,0.025
3751,-0.150,0.025
3752,-0.140,0.035
3753,-0.170,0.035
3754,-0.170,0.030
3755,-0.155,0.015
3756,-0.140,0.010
3757,-0.125,0.025
3758,-0.135,0.025
3759,-0.135,0.030
3760,-0.170,0.015
3761,-0.160,0.000
3762,-0.130,-0.010
3763,-0.110,0.015
3764,-0.110,0.030
3765,-0.135,0.015
3766,-0.145,0.015
3767,-0.145,0.000
3768,-0.135,-0.005
3769,-0.120,0.010
3770,-0.090,0.020
3771,-0.110,0.015
3772,-0.145,0.000
3773,-0.135,-0.015
3774,-0.110,-0.005
3775,-0.090,0.010
3776,-0.095,0.015
3777,-0.105,0.010
3778,-0.140,-0.005
3779,-0.135,-0.015
3780,-0.110,-0.010
3781,-0.095,-0.005
3782,-0.090,0.010
3783,-0.105,0.020
3784,-0.110,0.000
3785,-0.115,-0.020
3786,-0.100,-0.020
3787,-0.085,-0.015
3788,-0.085,0.010
3789,-0.110,0.015
3790,-0.140,-0.005
3791,-0.140,-0.020
3792,-0.120,-0.015
3793,-0.090,-0.005
3794,-0.090,0.010
3795,-0.100,0.010
3796,-0.125,-0.010
3797,-0.130,-0.015
3798,-0.125,-0.015
3799,-0.100,-0.005
3800,-0.085,0.005
3801,-0.105,0.000
3802,-0.105,-0.010
3803,-0.125,-0.020
3804,-0.115,-0.020
3805,-0.090,-0.025
3806,-0.080,-0.005
3807,-0.090,0.005
3808,-0.105,-0.010
3809,-0.115,-0.020
3810,-0.110,-0.035
3811,-0.090,-0.015
3812,-0.090,0.005
3813,-0.095,-0.010
3814,-0.100,-0.015
3815,-0.125,-0.030
3816,-0.105,-0.030
3817,-0.075,-0.020
3818,-0.070,-0.010
3819,-0.085,-0.005
3820,-0.085,-0.010
3821,-0.105,-0.030
3822,-0.085,-0.035
3823,-0.070,-0.020
3824,-0.060,0.010
3825,-0.065,0.000
3826,-0.055,0.000
3827,-0.055,0.000
3828,-0.030,0.005
3829,-0.010,0.015
3830,0.005,0.030
3831,0.000,0.030
3832,0.015,0.035
3833,0.025,0.015
3834,0.040,0.005
3835,0.070,0.005
3836,0.085,0.010
3837,0.090,0.015
3838,0.090,-0.020
3839,0.085,-0.055
3840,0.080,-0.060
3841,0.085,-0.070
3842,0.085,-0.055
3843,0.055,-0.055
3844,0.045,-0.060
3845,0.035,-0.065
3846,0.025,-0.070
3847,0.020,-0.075
3848,-0.010,-0.060
3849,-0.025,-0.050
3850,-0.055,-0.060
3851,-0.060,-0.055
3852,-0.055,-0.045
3853,-0.050,-0.055
3854,-0.065,-0.035
3855,-0.080,-0.035
3856,-0.100,-0.045
3857,-0.110,-0.055
3858,-0.110,-0.045
3859,-0.105,-0.050
3860,-0.095,-0.035
3861,-0.100,-0.035
3862,-0.115,-0.050
3863,-0.110,-0.055
3864,-0.120,-0.060
3865,-0.090,-0.045
3866,-0.085,-0.040
3867,-0.095,-0.035
3868,-0.105,-0.050
3869,-0.100,-0.055
3870,-0.110,-0.060
3871,-0.105,-0.050
3872,-0.085,-0.040
3873,-0.100,-0.060
3874,-0.115,-0.080
3875,-0.140,-0.080
3876,-0.140,-0.065
3877,-0.070,-0.055
3878,0.055,-0.070
3879,0.190,-0.125
3880,0.350,-0.190
3881,0.535,-0.270
3882,0.800,-0.275
3883,1.105,-0.265
3884,1.390,-0.260
3885,1.625,-0.260
3886,1.720,-0.260
3887,1.620,-0.230
3888,1.325,-0.160
3889,0.955,-0.110
3890,0.580,-0.085
3891,0.245,-0.095
3892,0.000,-0.130
3893,-0.105,-0.165
3894,-0.130,-0.175
3895,-0.120,-0.160
3896,-0.105,-0.125
3897,-0.145,-0.100
3898,-0.135,-0.080
3899,-0.135,-0.070
3900,-0.110,-0.055
3901,-0.115,-0.040
3902,-0.115,-0.025
3903,-0.130,-0.025
3904,-0.140,-0.040
3905,-0.140,-0.035
3906,-0.135,-0.030
3907,-0.140,-0.030
3908,-0.150,-0.030
3909,-0.155,-0.030
3910,-0.160,-0.025
3911,-0.155,-0.050
3912,-0.150,-0.045
3913,-0.145,-0.030
3914,-0.140,-0.015
3915,-0.135,-0.015
3916,-0.150,-0.025
3917,-0.145,-0.045
3918,-0.145,-0.035
3919,-0.150,-0.025
3920,-0.130,-0.015
3921,-0.145,-0.015
3922,-0.155,-0.030
3923,-0.135,-0.030
3924,-0.135,-0.035
3925,-0.120,-0.035
3926,-0.110,-0.015
3927,-0.120,-0.015
3928,-0.130,-0.030
3929,-0.120,-0.035
3930,-0.100,-0.050
3931,-0.110,-0.045
3932,-0.095,-0.035
3933,-0.105,-0.045
3934,-0.095,-0.055
3935,-0.085,-0.065
3936,-0.070,-0.080
3937,-0.055,-0.080
3938,-0.035,-0.070
3939,-0.050,-0.075
3940,-0.050,-0.085
3941,-0.050,-0.100
3942,-0.040,-0.105
3943,-0.010,-0.095
3944,-0.005,-0.100
3945,0.010,-0.100
3946,0.015,-0.120
3947,0.015,-0.130
3948,0.030,-0.145
3949,0.045,-0.150
3950,0.055,-0.145
3951,0.065,-0.160
3952,0.075,-0.170
3953,0.080,-0.205
3954,0.085,-0.225
3955,0.120,-0.220
3956,0.140,-0.220
3957,0.140,-0.220
3958,0.160,-0.250
3959,0.170,-0.275
3960,0.185,-0.280
3961,0.220,-0.270
3962,0.215,-0.280
3963,0.230,-0.280
3964,0.240,-0.290
3965,0.230,-0.295
3966,0.245,-0.305
3967,0.265,-0.315
3968,0.265,-0.300
3969,0.285,-0.295
3970,0.275,-0.300
3971,0.280,-0.305
3972,0.270,-0.300
3973,0.295,-0.290
3974,0.285,-0.280
3975,0.270,-0.270
3976,0.255,-0.260
3977,0.255,-0.260
3978,0.270,-0.240
3979,0.250,-0.215
3980,0.215,-0.175
3981,0.210,-0.175
3982,0.175,-0.160
3983,0.165,-0.155
3984,0.140,-0.115
3985,0.140,-0.105
3986,0.110,-0.070
3987,0.085,-0.040
3988,0.070,-0.045
3989,0.035,-0.035
3990,0.030,-0.030
3991,0.005,-0.010
3992,0.000,0.025
3993,-0.020,0.025
3994,-0.055,0.030
3995,-0.060,0.015
3996,-0.085,0.020
3997,-0.070,0.025
3998,-0.075,0.050
3999,-0.100,0.045
4000,-0.105,0.050
4001,-0.105,0.040
4002,-0.105,0.035
4003,-0.100,0.045
4004,-0.100,0.060
4005,-0.105,0.065
4006,-0.115,0.055
4007,-0.130,0.045
4008,-0.115,0.055
4009,-0.100,0.055
4010,-0.085,0.070
4011,-0.090,0.075
4012,-0.105,0.060
4013,-0.110,0.040
4014,-0.115,0.045
4015,-0.090,0.045
4016,-0.080,0.070
4017,-0.085,0.065
4018,-0.105,0.055
4019,-0.115,0.035
4020,-0.100,0.035
4021,-0.080,0.040
4022,-0.065,0.060
4023,-0.090,0.055
4024,-0.100,0.045
4025,-0.120,0.025
4026,-0.110,0.020
4027,-0.095,0.035
4028,-0.090,0.045
4029,-0.080,0.040
4030,-0.095,0.035
4031,-0.115,0.020
4032,-0.105,0.015
4033,-0.070,0.020
4034,-0.080,0.030
4035,-0.075,0.040
4036,-0.095,0.030
4037,-0.115,0.030
4038,-0.095,0.035
4039,-0.075,0.045
4040,-0.060,0.060
4041,-0.060,0.075
4042,-0.060,0.065
4043,-0.060,0.060
4044,-0.030,0.065
4045,-0.015,0.070
4046,0.000,0.090
4047,0.005,0.090
4048,0.020,0.070
4049,0.020,0.045
4050,0.040,0.030
4051,0.075,0.045
4052,0.075,0.050
4053,0.070,0.020
4054,0.035,0.000
4055,0.015,-0.015
4056,0.025,-0.020
4057,0.030,-0.005
4058,0.020,0.020
4059,0.000,0.010
4060,-0.040,0.010
4061,-0.085,0.010
4062,-0.095,0.010
4063,-0.085,0.035
4064,-0.085,0.055
4065,-0.100,0.085
4066,-0.115,0.055
4067,-0.100,0.030
4068,-0.050,0.020
4069,0.000,-0.010
4070,0.030,-0.045
4071,0.060,-0.080
4072,0.100,-0.135
4073,0.170,-0.200
4074,0.245,-0.265
4075,0.335,-0.335
4076,0.405,-0.430
4077,0.475,-0.555
4078,0.515,-0.660
4079,0.595,-0.750
4080,0.690,-0.815
4081,0.750,-0.880
4082,0.800,-0.925
4083,0.845,-1.010
4084,0.920,-1.080
4085,1.025,-1.150
4086,1.110,-1.165
4087,1.170,-1.180
4088,1.230,-1.210
4089,1.285,-1.250
4090,1.360,-1.280
4091,1.490,-1.280
4092,1.585,-1.270
4093,1.655,-1.265
4094,1.695,-1.265
4095,1.730,-1.255
4096,1.795,-1.230
4097,1.905,-1.145
4098,2.000,-1.025
4099,2.045,-0.895
4100,1.855,-0.755
4101,1.470,-0.585
4102,1.045,-0.415
4103,0.695,-0.255
4104,0.420,-0.135
4105,0.165,-0.045
4106,-0.030,0.030
4107,-0.175,0.070
4108,-0.265,0.095
4109,-0.310,0.130
4110,-0.320,0.155
4111,-0.350,0.210
4112,-0.390,0.225
4113,-0.420,0.240
4114,-0.445,0.245
4115,-0.465,0.250
4116,-0.465,0.260
4117,-0.485,0.280
4118,-0.505,0.305
4119,-0.520,0.310
4120,-0.525,0.295
4121,-0.525,0.295
4122,-0.525,0.295
4123,-0.515,0.320
4124,-0.530,0.330
4125,-0.545,0.330
4126,-0.555,0.340
4127,-0.545,0.330
4128,-0.540,0.340
4129,-0.535,0.355
4130,-0.545,0.365
4131,-0.575,0.375
4132,-0.585,0.385
4133,-0.580,0.395
4134,-0.570,0.395
4135,-0.565,0.420
4136,-0.590,0.430
4137,-0.600,0.450
4138,-0.605,0.460
4139,-0.630,0.455
4140,-0.610,0.465
4141,-0.620,0.490
4142,-0.635,0.500
4143,-0.645,0.510
4144,-0.655,0.530
4145,-0.665,0.525
4146,-0.665,0.540
4147,-0.675,0.560
4148,-0.675,0.575
4149,-0.705,0.605
4150,-0.710,0.595
4151,-0.700,0.595
4152,-0.700,0.610
4153,-0.705,0.625
4154,-0.715,0.640
4155,-0.720,0.655
4156,-0.735,0.650
4157,-0.720,0.645
4158,-0.720,0.635
4159,-0.710,0.640
4160,-0.710,0.650
4161,-0.710,0.650
4162,-0.710,0.635
4163,-0.710,0.620
4164,-0.700,0.605
4165,-0.700,0.620
4166,-0.675,0.605
4167,-0.675,0.585
4168,-0.650,0.560
4169,-0.635,0.525
4170,-0.610,0.515
4171,-0.595,0.505
4172,-0.580,0.495
4173,-0.555,0.465
4174,-0.545,0.420
4175,-0.510,0.385
4176,-0.485,0.360
4177,-0.455,0.345
4178,-0.430,0.330
4179,-0.405,0.310
4180,-0.385,0.280
4181,-0.355,0.260
4182,-0.345,0.225
4183,-0.315,0.215
4184,-0.305,0.215
4185,-0.280,0.190
4186,-0.280,0.175
4187,-0.270,0.155
4188,-0.240,0.155
4189,-0.230,0.145
4190,-0.215,0.150
4191,-0.225,0.140
4192,-0.210,0.135
4193,-0.215,0.120
4194,-0.205,0.135
4195,-0.200,0.130
4196,-0.225,0.125
4197,-0.215,0.125
4198,-0.240,0.115
4199,-0.240,0.105
4200,-0.210,0.110
4201,-0.220,0.110
4202,-0.225,0.120
4203,-0.225,0.120
4204,-0.245,0.105
4205,-0.235,0.085
4206,-0.225,0.095
4207,-0.215,0.105
4208,-0.215,0.110
4209,-0.220,0.095
4210,-0.235,0.090
4211,-0.220,0.085
4212,-0.200,0.090
4213,-0.195,0.100
4214,-0.195,0.110
4215,-0.210,0.115
4216,-0.230,0.095
4217,-0.230,0.100
4218,-0.205,0.090
4219,-0.205,0.100
4220,-0.195,0.115
4221,-0.205,0.100
4222,-0.230,0.095
4223,-0.220,0.095
4224,-0.210,0.085
4225,-0.205,0.100
4226,-0.210,0.110
4227,-0.230,0.100
4228,-0.240,0.100
4229,-0.230,0.075
4230,-0.215,0.090
4231,-0.195,0.085
4232,-0.190,0.115
4233,-0.200,0.100
4234,-0.230,0.100
4235,-0.230,0.105
4236,-0.205,0.105
4237,-0.180,0.110
4238,-0.160,0.105
4239,-0.155,0.100
4240,-0.150,0.065
4241,-0.140,0.035
4242,-0.095,0.030
4243,-0.060,0.020
4244,-0.020,0.015
4245,0.000,-0.020
4246,0.020,-0.065
4247,0.075,-0.135
4248,0.160,-0.200
4249,0.250,-0.250
4250,0.335,-0.335
4251,0.395,-0.415
4252,0.455,-0.510
4253,0.515,-0.580
4254,0.615,-0.650
4255,0.720,-0.700
4256,0.795,-0.755
4257,0.845,-0.840
4258,0.885,-0.920
4259,0.950,-0.980
4260,1.030,-1.015
4261,1.085,-1.015
4262,1.180,-1.020
4263,1.260,-1.040
4264,1.325,-1.035
4265,1.360,-1.020
4266,1.385,-0.985
4267,1.380,-0.920
4268,1.335,-0.845
4269,1.275,-0.770
4270,1.225,-0.720
4271,1.200,-0.630
4272,1.170,-0.525
4273,1.185,-0.415
4274,1.170,-0.335
4275,1.125,-0.290
4276,1.065,-0.260
4277,1.040,-0.260
4278,1.030,-0.260
4279,1.025,-0.235
4280,1.045,-0.205
4281,1.055,-0.205
4282,1.030,-0.205
4283,0.970,-0.235
4284,0.870,-0.230
4285,0.730,-0.210
4286,0.570,-0.165
4287,0.365,-0.100
4288,0.130,-0.040
4289,-0.075,0.050
4290,-0.225,0.130
4291,-0.325,0.190
4292,-0.395,0.220
4293,-0.445,0.240
4294,-0.485,0.245
4295,-0.505,0.250
4296,-0.525,0.265
4297,-0.530,0.295
4298,-0.560,0.300
4299,-0.600,0.305
4300,-0.600,0.310
4301,-0.620,0.305
4302,-0.625,0.315
4303,-0.635,0.335
4304,-0.640,0.345
4305,-0.660,0.355
4306,-0.695,0.355
4307,-0.690,0.355
4308,-0.690,0.350
4309,-0.680,0.385
4310,-0.685,0.385
4311,-0.715,0.400
4312,-0.745,0.395
4313,-0.755,0.395
4314,-0.760,0.410
4315,-0.755,0.430
4316,-0.765,0.445
4317,-0.785,0.450
4318,-0.815,0.450
4319,-0.825,0.455
4320,-0.815,0.465
4321,-0.840,0.500
4322,-0.860,0.510
4323,-0.885,0.525
4324,-0.900,0.520
4325,-0.895,0.520
4326,-0.900,0.515
4327,-0.895,0.555
4328,-0.915,0.555
4329,-0.940,0.585
4330,-0.970,0.560
4331,-1.000,0.565
4332,-0.965,0.570
4333,-0.960,0.570
4334,-0.980,0.590
4335,-0.985,0.595
4336,-1.000,0.575
4337,-1.005,0.560
4338,-0.980,0.575
4339,-0.955,0.565
4340,-0.965,0.565
4341,-0.975,0.565
4342,-0.975,0.530
4343,-0.965,0.525
4344,-0.935,0.505
4345,-0.905,0.500
4346,-0.890,0.485
4347,-0.870,0.465
4348,-0.860,0.440
4349,-0.845,0.395
4350,-0.810,0.390
4351,-0.770,0.380
4352,-0.730,0.360
4353,-0.705,0.340
4354,-0.695,0.295
4355,-0.655,0.270
4356,-0.610,0.240
4357,-0.555,0.235
4358,-0.525,0.235
4359,-0.520,0.215
4360,-0.505,0.200
4361,-0.475,0.170
4362,-0.430,0.150
4363,-0.395,0.155
4364,-0.385,0.155
4365,-0.365,0.145
4366,-0.360,0.130
4367,-0.345,0.105
4368,-0.310,0.115
4369,-0.290,0.130
4370,-0.290,0.125
4371,-0.295,0.125
4372,-0.295,0.115
4373,-0.295,0.100
4374,-0.270,0.105
4375,-0.255,0.115
4376,-0.255,0.120
4377,-0.280,0.130
4378,-0.295,0.115
4379,-0.295,0.105
4380,-0.290,0.095
4381,-0.275,0.115
4382,-0.270,0.125
4383,-0.265,0.120
4384,-0.265,0.115
4385,-0.270,0.095
4386,-0.280,0.105
4387,-0.255,0.110
4388,-0.260,0.125
4389,-0.275,0.125
4390,-0.280,0.115
4391,-0.280,0.095
4392,-0.245,0.105
4393,-0.250,0.110
4394,-0.245,0.115
4395,-0.260,0.125
4396,-0.270,0.095
4397,-0.260,0.095
4398,-0.250,0.085
4399,-0.230,0.090
4400,-0.220,0.100
4401,-0.235,0.095
4402,-0.250,0.095
4403,-0.245,0.075
4404,-0.240,0.085
4405,-0.235,0.090
4406,-0.225,0.095
4407,-0.225,0.090
4408,-0.250,0.085
4409,-0.245,0.095
4410,-0.220,0.070
4411,-0.205,0.090
4412,-0.205,0.105
4413,-0.220,0.095
4414,-0.220,0.090
4415,-0.225,0.075
4416,-0.205,0.070
4417,-0.210,0.080
4418,-0.200,0.090
4419,-0.210,0.075
4420,-0.230,0.065
4421,-0.230,0.055
4422,-0.210,0.065
4423,-0.195,0.065
4424,-0.200,0.070
4425,-0.215,0.070
4426,-0.230,0.065
4427,-0.210,0.055
4428,-0.200,0.050
4429,-0.205,0.055
4430,-0.215,0.060
4431,-0.235,0.060
4432,-0.230,0.045
4433,-0.210,0.045
4434,-0.210,0.045
4435,-0.195,0.050
4436,-0.185,0.055
4437,-0.205,0.060
4438,-0.225,0.045
4439,-0.215,0.035
4440,-0.215,0.035
4441,-0.195,0.040
4442,-0.195,0.060
4443,-0.200,0.055
4444,-0.210,0.060
4445,-0.215,0.030
4446,-0.200,0.040
4447,-0.185,0.045
4448,-0.175,0.055
4449,-0.200,0.065
4450,-0.225,0.045
4451,-0.200,0.035
4452,-0.185,0.025
4453,-0.170,0.045
4454,-0.175,0.055
4455,-0.200,0.035
4456,-0.210,0.040
4457,-0.205,0.025
4458,-0.195,0.025
4459,-0.175,0.040
4460,-0.170,0.040
4461,-0.190,0.045
4462,-0.210,0.040
4463,-0.210,0.025
4464,-0.185,0.030
4465,-0.175,0.045
4466,-0.190,0.045
4467,-0.200,0.030
4468,-0.215,0.035
4469,-0.205,0.030
4470,-0.180,0.025
4471,-0.175,0.030
4472,-0.180,0.040
4473,-0.200,0.035
4474,-0.195,0.030
4475,-0.200,0.015
4476,-0.190,0.020
4477,-0.165,0.040
4478,-0.170,0.035
4479,-0.195,0.035
4480,-0.195,0.015
4481,-0.195,0.015
4482,-0.185,0.030
4483,-0.170,0.015
4484,-0.170,0.030
4485,-0.205,0.035
4486,-0.195,0.030
4487,-0.185,0.015
4488,-0.175,0.030
4489,-0.160,0.030
4490,-0.170,0.035
4491,-0.180,0.035
4492,-0.210,0.025
4493,-0.200,0.025
4494,-0.175,0.025
4495,-0.155,0.030
4496,-0.155,0.030
4497,-0.185,0.030
4498,-0.200,0.020
4499,-0.195,0.005
4500,-0.170,0.015
4501,-0.170,0.030
4502,-0.155,0.050
4503,-0.165,0.035
4504,-0.180,0.030
4505,-0.175,0.020
4506,-0.150,0.015
4507,-0.135,0.035
4508,-0.130,0.050
4509,-0.130,0.050
4510,-0.135,0.050
4511,-0.120,0.040
4512,-0.110,0.045
4513,-0.080,0.065
4514,-0.090,0.080
4515,-0.075,0.080
4516,-0.055,0.045
4517,-0.035,0.025
4518,-0.010,0.025
4519,0.015,0.020
4520,0.015,0.000
4521,-0.005,0.000
4522,-0.040,-0.025
4523,-0.040,-0.045
4524,-0.040,-0.035
4525,-0.030,-0.030
4526,-0.035,-0.015
4527,-0.070,-0.010
4528,-0.115,-0.015
4529,-0.130,-0.040
4530,-0.145,-0.030
4531,-0.140,-0.020
4532,-0.155,0.005
4533,-0.180,0.005
4534,-0.205,-0.010
4535,-0.180,-0.025
4536,-0.170,-0.030
4537,-0.160,-0.005
4538,-0.170,0.000
4539,-0.170,0.000
4540,-0.185,-0.015
4541,-0.190,-0.030
4542,-0.170,-0.030
4543,-0.165,-0.020
4544,-0.150,0.000
4545,-0.185,-0.020
4546,-0.175,-0.030
4547,-0.195,-0.040
4548,-0.180,-0.030
4549,-0.170,-0.025
4550,-0.170,-0.010
4551,-0.170,-0.015
4552,-0.185,-0.030
4553,-0.175,-0.045
4554,-0.170,-0.065
4555,-0.175,-0.060
4556,-0.175,-0.045
4557,-0.115,-0.055
4558,-0.010,-0.105
4559,0.125,-0.160
4560,0.315,-0.220
4561,0.545,-0.235
4562,0.795,-0.235
4563,1.080,-0.230
4564,1.350,-0.240
4565,1.530,-0.225
4566,1.500,-0.190
4567,1.240,-0.105
4568,0.870,-0.070
4569,0.475,-0.045
4570,0.110,-0.065
4571,-0.110,-0.105
4572,-0.175,-0.120
4573,-0.165,-0.110
4574,-0.190,-0.085
4575,-0.205,-0.045
4576,-0.215,-0.040
4577,-0.195,-0.035
4578,-0.190,-0.025
4579,-0.190,-0.010
4580,-0.200,0.000
4581,-0.215,0.010
4582,-0.245,-0.005
4583,-0.225,-0.015
4584,-0.225,-0.010
4585,-0.205,-0.005
4586,-0.215,0.010
4587,-0.225,0.005
4588,-0.240,0.000
4589,-0.250,-0.015
4590,-0.225,-0.015
4591,-0.205,-0.005
4592,-0.205,0.005
4593,-0.205,0.010
4594,-0.220,-0.020
4595,-0.235,-0.035
4596,-0.235,-0.010
4597,-0.200,-0.010
4598,-0.195,-0.010
4599,-0.200,0.000
4600,-0.205,-0.020
4601,-0.205,-0.025
4602,-0.195,-0.020
4603,-0.185,-0.010
4604,-0.180,-0.010
4605,-0.195,0.000
4606,-0.205,-0.030
4607,-0.195,-0.030
4608,-0.180,-0.035
4609,-0.145,-0.030
4610,-0.145,-0.035
4611,-0.140,-0.040
4612,-0.155,-0.055
4613,-0.130,-0.055
4614,-0.110,-0.055
4615,-0.095,-0.050
4616,-0.095,-0.065
4617,-0.105,-0.075
4618,-0.100,-0.075
4619,-0.080,-0.105
4620,-0.065,-0.100
4621,-0.030,-0.110
4622,-0.030,-0.090
4623,-0.055,-0.110
4624,-0.040,-0.125
4625,-0.030,-0.150
4626,0.000,-0.165
4627,0.015,-0.155
4628,0.030,-0.170
4629,0.025,-0.165
4630,0.030,-0.190
4631,0.050,-0.215
4632,0.075,-0.215
4633,0.090,-0.200
4634,0.100,-0.205
4635,0.090,-0.210
4636,0.090,-0.230
4637,0.110,-0.250
4638,0.135,-0.260
4639,0.160,-0.240
4640,0.170,-0.240
4641,0.165,-0.245
4642,0.165,-0.260
4643,0.185,-0.270
4644,0.195,-0.265
4645,0.225,-0.255
4646,0.235,-0.240
4647,0.215,-0.225
4648,0.195,-0.225
4649,0.195,-0.225
4650,0.205,-0.210
4651,0.215,-0.190
4652,0.175,-0.165
4653,0.125,-0.155
4654,0.125,-0.145
4655,0.085,-0.140
4656,0.090,-0.125
4657,0.110,-0.085
4658,0.095,-0.060
4659,0.065,-0.045
4660,0.030,-0.045
4661,0.005,-0.035
4662,0.000,-0.025
4663,-0.020,0.005
4664,-0.020,0.020
4665,-0.040,0.030
4666,-0.080,0.030
4667,-0.105,0.040
4668,-0.100,0.045
4669,-0.105,0.055
4670,-0.095,0.085
4671,-0.120,0.075
4672,-0.155,0.075
4673,-0.150,0.065
4674,-0.145,0.070
4675,-0.130,0.090
4676,-0.135,0.085
4677,-0.145,0.090
4678,-0.160,0.090
4679,-0.160,0.080
4680,-0.145,0.085
4681,-0.125,0.085
4682,-0.130,0.095
4683,-0.135,0.095
4684,-0.145,0.090
4685,-0.130,0.075
4686,-0.150,0.075
4687,-0.120,0.090
4688,-0.115,0.095
4689,-0.130,0.080
4690,-0.140,0.080
4691,-0.150,0.055
4692,-0.135,0.070
4693,-0.105,0.075
4694,-0.110,0.080
4695,-0.135,0.080
4696,-0.150,0.065
4697,-0.145,0.060
4698,-0.125,0.060
4699,-0.120,0.075
4700,-0.110,0.075
4701,-0.120,0.075
4702,-0.140,0.060
4703,-0.160,0.060
4704,-0.120,0.060
4705,-0.095,0.070
4706,-0.095,0.090
4707,-0.105,0.085
4708,-0.110,0.075
4709,-0.100,0.075
4710,-0.070,0.080
4711,-0.050,0.095
4712,-0.040,0.100
4713,-0.060,0.105
4714,-0.045,0.095
4715,-0.025,0.070
4716,0.015,0.075
4717,0.050,0.075
4718,0.065,0.070
4719,0.040,0.060
4720,0.030,0.040
4721,0.020,0.025
4722,0.030,0.030
4723,0.030,0.035
4724,0.025,0.050
4725,-0.010,0.055
4726,-0.045,0.060
4727,-0.035,0.045
4728,-0.040,0.050
4729,-0.040,0.060
4730,-0.075,0.080
4731,-0.105,0.070
4732,-0.150,0.070
4733,-0.120,0.045
4734,-0.080,0.030
4735,-0.010,0.010
4736,0.015,-0.010
4737,0.035,-0.055
4738,0.065,-0.110
4739,0.115,-0.165
4740,0.200,-0.230
4741,0.285,-0.310
4742,0.375,-0.390
4743,0.440,-0.480
4744,0.505,-0.560
4745,0.565,-0.640
4746,0.645,-0.680
4747,0.735,-0.725
4748,0.800,-0.745
4749,0.845,-0.790
4750,0.915,-0.850
4751,1.015,-0.890
4752,1.110,-0.930
4753,1.180,-0.945
4754,1.245,-0.955
4755,1.330,-0.995
4756,1.430,-1.020
4757,1.535,-1.045
4758,1.575,-1.015
4759,1.565,-0.960
4760,1.540,-0.890
4761,1.550,-0.845
4762,1.605,-0.840
4763,1.670,-0.845
4764,1.705,-0.815
4765,1.760,-0.745
4766,1.800,-0.680
4767,1.815,-0.615
4768,1.815,-0.575
4769,1.765,-0.525
4770,1.570,-0.450
4771,1.245,-0.365
4772,0.895,-0.255
4773,0.590,-0.165
4774,0.330,-0.095
4775,0.105,-0.040
4776,-0.045,0.010
4777,-0.145,0.070
4778,-0.215,0.130
4779,-0.300,0.165
4780,-0.375,0.190
4781,-0.410,0.195
4782,-0.425,0.220
4783,-0.445,0.255
4784,-0.460,0.270
4785,-0.490,0.280
4786,-0.520,0.280
4787,-0.510,0.280
4788,-0.520,0.290
4789,-0.505,0.305
4790,-0.535,0.325
4791,-0.565,0.325
4792,-0.585,0.335
4793,-0.570,0.315
4794,-0.555,0.335
4795,-0.545,0.355
4796,-0.565,0.375
4797,-0.590,0.375
4798,-0.610,0.360
4799,-0.610,0.370
4800,-0.595,0.380
4801,-0.585,0.410
4802,-0.595,0.430
4803,-0.625,0.455
4804,-0.640,0.430
4805,-0.640,0.430
4806,-0.645,0.455
4807,-0.635,0.470
4808,-0.665,0.505
4809,-0.680,0.500
4810,-0.715,0.505
4811,-0.705,0.515
4812,-0.705,0.530
4813,-0.685,0.555
4814,-0.700,0.580
4815,-0.720,0.590
4816,-0.760,0.585
4817,-0.765,0.590
4818,-0.770,0.600
4819,-0.755,0.615
4820,-0.755,0.640
4821,-0.780,0.650
4822,-0.795,0.640
4823,-0.800,0.640
4824,-0.800,0.640
4825,-0.795,0.665
4826,-0.795,0.675
4827,-0.815,0.675
4828,-0.835,0.650
4829,-0.820,0.650
4830,-0.810,0.645
4831,-0.795,0.650
4832,-0.790,0.645
4833,-0.800,0.630
4834,-0.810,0.615
4835,-0.790,0.590
4836,-0.750,0.580
4837,-0.730,0.575
4838,-0.710,0.560
4839,-0.720,0.525
4840,-0.720,0.500
4841,-0.680,0.455
4842,-0.640,0.435
4843,-0.590,0.420
4844,-0.555,0.415
4845,-0.560,0.395
4846,-0.550,0.355
4847,-0.520,0.315
4848,-0.485,0.300
4849,-0.430,0.295
4850,-0.400,0.275
4851,-0.385,0.255
4852,-0.365,0.235
4853,-0.330,0.200
4854,-0.300,0.190
4855,-0.265,0.185
4856,-0.250,0.180
4857,-0.250,0.175
4858,-0.245,0.155
4859,-0.235,0.135
4860,-0.210,0.135
4861,-0.185,0.140
4862,-0.195,0.140
4863,-0.210,0.135
4864,-0.220,0.115
4865,-0.210,0.100
4866,-0.200,0.120
4867,-0.175,0.115
4868,-0.185,0.130
4869,-0.205,0.125
4870,-0.205,0.095
4871,-0.190,0.090
4872,-0.175,0.105
4873,-0.160,0.110
4874,-0.160,0.115
4875,-0.175,0.120
4876,-0.190,0.105
4877,-0.170,0.095
4878,-0.160,0.100
4879,-0.150,0.100
4880,-0.160,0.130
4881,-0.175,0.110
4882,-0.175,0.105
4883,-0.165,0.085
4884,-0.160,0.095
4885,-0.155,0.110
4886,-0.150,0.120
4887,-0.165,0.125
4888,-0.185,0.105
4889,-0.165,0.090
4890,-0.160,0.110
4891,-0.150,0.120
4892,-0.135,0.130
4893,-0.160,0.115
4894,-0.145,0.115
4895,-0.130,0.105
4896,-0.125,0.115
4897,-0.115,0.115
4898,-0.115,0.120
4899,-0.135,0.110
4900,-0.125,0.110
4901,-0.130,0.100
4902,-0.110,0.105
4903,-0.110,0.125
4904,-0.095,0.115
4905,-0.110,0.095
4906,-0.110,0.095
4907,-0.105,0.090
4908,-0.100,0.095
4909,-0.085,0.105
4910,-0.075,0.110
4911,-0.085,0.115
4912,-0.095,0.095
4913,-0.080,0.090
4914,-0.065,0.105
4915,-0.060,0.110
4916,-0.075,0.130
4917,-0.055,0.130
4918,-0.030,0.110
4919,-0.010,0.100
4920,0.020,0.120
4921,0.055,0.100
4922,0.095,0.095
4923,0.135,0.070
4924,0.185,0.040
4925,0.240,-0.005
4926,0.315,-0.045
4927,0.370,-0.095
4928,0.440,-0.145
4929,0.515,-0.225
4930,0.580,-0.345
4931,0.650,-0.450
4932,0.735,-0.550
4933,0.825,-0.625
4934,0.890,-0.675
4935,0.930,-0.745
4936,0.970,-0.810
4937,1.030,-0.885
4938,1.125,-0.925
4939,1.240,-0.980
4940,1.290,-1.000
4941,1.355,-1.020
4942,1.440,-1.050
4943,1.530,-1.070
4944,1.620,-1.050
4945,1.645,-1.025
4946,1.620,-0.970
4947,1.540,-0.920
4948,1.450,-0.875
4949,1.390,-0.820
4950,1.345,-0.750
4951,1.310,-0.650
4952,1.290,-0.545
4953,1.270,-0.460
4954,1.225,-0.400
4955,1.190,-0.360
4956,1.160,-0.310
4957,1.160,-0.275
4958,1.125,-0.240
4959,1.095,-0.230
4960,1.080,-0.210
4961,1.085,-0.210
4962,1.065,-0.195
4963,1.030,-0.200
4964,0.930,-0.180
4965,0.795,-0.170
4966,0.630,-0.150
4967,0.480,-0.115
4968,0.305,-0.075
4969,0.120,0.010
4970,-0.035,0.080
4971,-0.175,0.150
4972,-0.305,0.170
4973,-0.350,0.205
4974,-0.390,0.230
4975,-0.390,0.255
4976,-0.420,0.290
4977,-0.450,0.310
4978,-0.475,0.300
4979,-0.500,0.300
4980,-0.520,0.320
4981,-0.520,0.335
4982,-0.535,0.370
4983,-0.560,0.365
4984,-0.590,0.365
4985,-0.595,0.370
4986,-0.585,0.380
4987,-0.585,0.400
4988,-0.600,0.415
4989,-0.630,0.430
4990,-0.665,0.435
4991,-0.680,0.440
4992,-0.665,0.450
4993,-0.670,0.480
4994,-0.665,0.500
4995,-0.690,0.510
4996,-0.730,0.515
4997,-0.730,0.525
4998,-0.740,0.545
4999,-0.735,0.570
5000,-0.740,0.585
5001,-0.765,0.585
5002,-0.780,0.600
5003,-0.805,0.600
5004,-0.810,0.620
5005,-0.810,0.645
5006,-0.810,0.670
5007,-0.840,0.685
5008,-0.870,0.690
5009,-0.865,0.685
5010,-0.865,0.700
5011,-0.865,0.730
5012,-0.860,0.725
5013,-0.880,0.730
5014,-0.895,0.735
5015,-0.900,0.720
5016,-0.900,0.725
5017,-0.885,0.730
5018,-0.885,0.735
5019,-0.895,0.735
5020,-0.905,0.700
5021,-0.905,0.685
5022,-0.900,0.675
5023,-0.880,0.680
5024,-0.850,0.645
5025,-0.840,0.630
5026,-0.840,0.585
5027,-0.820,0.575
5028,-0.785,0.540
5029,-0.760,0.525
5030,-0.720,0.500
5031,-0.710,0.465
5032,-0.690,0.430
5033,-0.635,0.380
5034,-0.590,0.355
5035,-0.550,0.340
5036,-0.500,0.325
5037,-0.485,0.285
5038,-0.465,0.250
5039,-0.445,0.215
5040,-0.380,0.200
5041,-0.330,0.195
5042,-0.305,0.180
5043,-0.275,0.160
5044,-0.265,0.145
5045,-0.235,0.130
5046,-0.210,0.115
5047,-0.165,0.115
5048,-0.150,0.125
5049,-0.145,0.110
5050,-0.150,0.100
5051,-0.130,0.085
5052,-0.120,0.085
5053,-0.110,0.095
5054,-0.095,0.100
5055,-0.115,0.100
5056,-0.140,0.085
5057,-0.130,0.090
5058,-0.115,0.075
5059,-0.100,0.105
5060,-0.110,0.110
5061,-0.110,0.095
5062,-0.135,0.080
5063,-0.135,0.075
5064,-0.115,0.075
5065,-0.095,0.090
5066,-0.100,0.100
5067,-0.115,0.100
5068,-0.125,0.090
5069,-0.135,0.090
5070,-0.125,0.090
5071,-0.110,0.095
5072,-0.105,0.105
5073,-0.135,0.100
5074,-0.150,0.085
5075,-0.135,0.075
5076,-0.110,0.085
5077,-0.100,0.095
5078,-0.085,0.110
5079,-0.120,0.105
5080,-0.115,0.095
5081,-0.115,0.085
5082,-0.095,0.100
5083,-0.075,0.095
5084,-0.075,0.105
5085,-0.095,0.100
5086,-0.085,0.090
5087,-0.090,0.090
5088,-0.075,0.090
5089,-0.060,0.105
5090,-0.060,0.105
5091,-0.075,0.100
5092,-0.070,0.105
5093,-0.060,0.095
5094,-0.045,0.080
5095,-0.025,0.100
5096,-0.030,0.115
5097,-0.060,0.100
5098,-0.075,0.090
5099,-0.080,0.075
5100,-0.045,0.085
5101,-0.030,0.085
5102,-0.025,0.105
5103,-0.035,0.085
5104,-0.055,0.085
5105,-0.065,0.075
5106,-0.040,0.080
5107,-0.020,0.080
5108,-0.020,0.095
5109,-0.030,0.085
5110,-0.040,0.075
5111,-0.050,0.065
5112,-0.030,0.070
5113,-0.015,0.070
5114,-0.015,0.090
5115,-0.045,0.070
5116,-0.060,0.060
5117,-0.055,0.065
5118,-0.035,0.065
5119,-0.035,0.075
5120,-0.030,0.075
5121,-0.055,0.080
5122,-0.070,0.070
5123,-0.065,0.055
5124,-0.040,0.050
5125,-0.015,0.070
5126,-0.020,0.070
5127,-0.030,0.075
5128,-0.040,0.055
5129,-0.050,0.035
5130,-0.035,0.045
5131,-0.005,0.060
5132,-0.010,0.060
5133,-0.025,0.065
5134,-0.045,0.050
5135,-0.040,0.035
5136,-0.020,0.050
5137,0.000,0.060
5138,-0.005,0.065
5139,-0.020,0.060
5140,-0.025,0.050
5141,-0.020,0.055
5142,0.005,0.050
5143,0.015,0.070
5144,0.035,0.080
5145,0.020,0.085
5146,0.025,0.085
5147,0.045,0.080
5148,0.065,0.085
5149,0.095,0.105
5150,0.105,0.115
5151,0.105,0.100
5152,0.140,0.080
5153,0.165,0.040
5154,0.175,0.015
5155,0.180,0.010
5156,0.165,0.020
5157,0.125,0.015
5158,0.110,0.010
5159,0.105,-0.010
5160,0.090,-0.005
5161,0.075,-0.005
5162,0.060,0.010
5163,0.020,0.020
5164,0.000,0.015
5165,-0.005,0.025
5166,0.000,0.015
5167,0.000,0.020
5168,-0.005,0.030
5169,-0.020,0.025
5170,-0.030,0.010
5171,-0.030,0.010
5172,-0.020,0.005
5173,0.015,0.015
5174,-0.005,0.025
5175,-0.005,0.015
5176,-0.020,-0.005
5177,-0.015,-0.005
5178,-0.005,0.000
5179,0.015,0.020
5180,0.005,0.015
5181,-0.005,0.005
5182,-0.030,-0.005
5183,-0.025,-0.025
5184,-0.010,-0.015
5185,-0.025,-0.025
5186,-0.035,-0.020
5187,-0.045,-0.025
5188,0.010,-0.030
5189,0.130,-0.055
5190,0.275,-0.125
5191,0.470,-0.195
5192,0.690,-0.260
5193,0.925,-0.315
5194,1.190,-0.350
5195,1.450,-0.410
5196,1.680,-0.425
5197,1.785,-0.375
5198,1.620,-0.285
5199,1.225,-0.200
5200,0.820,-0.175
5201,0.470,-0.165
5202,0.245,-0.155
5203,0.145,-0.145
5204,0.090,-0.120
5205,0.015,-0.085
5206,-0.055,-0.060
5207,-0.080,-0.045
5208,-0.060,-0.015
5209,-0.020,0.010
5210,-0.020,0.040
5211,-0.050,0.055
5212,-0.065,0.050
5213,-0.085,0.040
5214,-0.085,0.040
5215,-0.090,0.070
5216,-0.090,0.070
5217,-0.105,0.075
5218,-0.125,0.065
5219,-0.115,0.055
5220,-0.100,0.060
5221,-0.085,0.085
5222,-0.100,0.100
5223,-0.105,0.080
5224,-0.100,0.080
5225,-0.105,0.065
5226,-0.110,0.075
5227,-0.080,0.075
5228,-0.085,0.085
5229,-0.095,0.085
5230,-0.115,0.080
5231,-0.110,0.070
5232,-0.095,0.080
5233,-0.075,0.085
5234,-0.060,0.090
5235,-0.075,0.090
5236,-0.100,0.080
5237,-0.075,0.075
5238,-0.080,0.070
5239,-0.060,0.065
5240,-0.040,0.090
5241,-0.065,0.070
5242,-0.060,0.045
5243,-0.050,0.035
5244,-0.040,0.045
5245,-0.015,0.040
5246,-0.015,0.045
5247,-0.030,0.035
5248,-0.010,0.015
5249,0.010,0.005
5250,0.010,-0.005
5251,0.060,-0.010
5252,0.060,-0.010
5253,0.045,-0.010
5254,0.050,-0.035
5255,0.065,-0.060
5256,0.095,-0.075
5257,0.130,-0.075
5258,0.130,-0.070
5259,0.135,-0.085
5260,0.140,-0.115
5261,0.170,-0.140
5262,0.190,-0.145
5263,0.220,-0.155
5264,0.250,-0.160
5265,0.235,-0.165
5266,0.245,-0.200
5267,0.260,-0.220
5268,0.265,-0.215
5269,0.285,-0.220
5270,0.300,-0.220
5271,0.300,-0.230
5272,0.300,-0.240
5273,0.325,-0.250
5274,0.340,-0.245
5275,0.360,-0.235
5276,0.355,-0.220
5277,0.340,-0.240
5278,0.340,-0.245
5279,0.350,-0.245
5280,0.370,-0.215
5281,0.365,-0.190
5282,0.345,-0.160
5283,0.305,-0.140
5284,0.280,-0.140
5285,0.270,-0.125
5286,0.260,-0.105
5287,0.240,-0.070
5288,0.210,-0.030
5289,0.175,-0.020
5290,0.135,0.000
5291,0.125,-0.005
5292,0.115,0.025
5293,0.105,0.040
5294,0.090,0.080
5295,0.050,0.105
5296,0.010,0.090
5297,0.005,0.090
5298,0.000,0.100
5299,-0.005,0.110
5300,-0.015,0.145
5301,-0.040,0.135
5302,-0.060,0.135
5303,-0.070,0.130
5304,-0.065,0.135
5305,-0.060,0.145
5306,-0.090,0.160
5307,-0.120,0.150
5308,-0.130,0.140
5309,-0.130,0.145
5310,-0.115,0.140
5311,-0.085,0.160
5312,-0.070,0.170
5313,-0.085,0.155
5314,-0.080,0.155
5315,-0.085,0.155
5316,-0.080,0.145
5317,-0.055,0.135
5318,-0.055,0.165
5319,-0.080,0.160
5320,-0.090,0.150
5321,-0.090,0.145
5322,-0.070,0.150
5323,-0.055,0.160
5324,-0.065,0.170
5325,-0.075,0.155
5326,-0.090,0.145
5327,-0.090,0.130
5328,-0.065,0.125
5329,-0.080,0.135
5330,-0.070,0.150
5331,-0.095,0.145
5332,-0.105,0.125
5333,-0.105,0.110
5334,-0.075,0.120
5335,-0.065,0.125
5336,-0.065,0.130
5337,-0.080,0.130
5338,-0.095,0.120
5339,-0.080,0.120
5340,-0.075,0.120
5341,-0.065,0.135
5342,-0.070,0.135
5343,-0.090,0.130
5344,-0.085,0.125
5345,-0.090,0.115
5346,-0.075,0.115
5347,-0.090,0.125
5348,-0.095,0.130
5349,-0.105,0.125
5350,-0.105,0.125
5351,-0.105,0.110
5352,-0.095,0.115
5353,-0.080,0.130
5354,-0.070,0.150
5355,-0.070,0.150
5356,-0.060,0.145
5357,-0.050,0.145
5358,-0.045,0.145
5359,-0.020,0.160
5360,0.005,0.170
5361,0.005,0.160
5362,0.005,0.155
5363,0.015,0.125
5364,0.050,0.115
5365,0.065,0.130
5366,0.065,0.125
5367,0.045,0.110
5368,0.030,0.070
5369,0.040,0.055
5370,0.045,0.055
5371,0.035,0.075
5372,0.020,0.085
5373,-0.020,0.095
5374,-0.040,0.095
5375,-0.060,0.090
5376,-0.075,0.095
5377,-0.075,0.115
5378,-0.090,0.145
5379,-0.105,0.150
5380,-0.105,0.140
5381,-0.090,0.115
5382,-0.045,0.085
5383,-0.005,0.055
5384,0.035,0.025
5385,0.060,-0.020
5386,0.120,-0.075
5387,0.195,-0.150
5388,0.280,-0.185
5389,0.370,-0.245
5390,0.420,-0.310
5391,0.460,-0.415
5392,0.520,-0.515
5393,0.590,-0.600
5394,0.675,-0.680
5395,0.750,-0.730
5396,0.805,-0.785
5397,0.855,-0.855
5398,0.920,-0.935
5399,1.015,-1.010
5400,1.135,-1.050
5401,1.210,-1.075
5402,1.275,-1.095
5403,1.355,-1.150
5404,1.430,-1.195
5405,1.540,-1.225
5406,1.590,-1.210
5407,1.655,-1.160
5408,1.665,-1.105
5409,1.695,-1.090
5410,1.730,-1.090
5411,1.790,-1.115
5412,1.870,-1.085
5413,1.935,-1.020
5414,1.995,-0.925
5415,2.060,-0.820
5416,2.080,-0.755
5417,1.970,-0.685
5418,1.705,-0.565
5419,1.340,-0.405
5420,1.000,-0.260
5421,0.690,-0.130
5422,0.375,-0.020
5423,0.150,0.030
5424,-0.010,0.085
5425,-0.125,0.140
5426,-0.200,0.185
5427,-0.280,0.225
5428,-0.325,0.245
5429,-0.345,0.265
5430,-0.355,0.285
5431,-0.355,0.320
5432,-0.380,0.330
5433,-0.410,0.360
5434,-0.440,0.360
5435,-0.445,0.360
5436,-0.450,0.365
5437,-0.455,0.385
5438,-0.465,0.405
5439,-0.495,0.420
5440,-0.505,0.405
5441,-0.505,0.410
5442,-0.495,0.425
5443,-0.490,0.440
5444,-0.495,0.455
5445,-0.530,0.460
5446,-0.545,0.450
5447,-0.565,0.460
5448,-0.530,0.470
5449,-0.525,0.490
5450,-0.530,0.515
5451,-0.560,0.510
5452,-0.580,0.520
5453,-0.590,0.525
5454,-0.585,0.520
5455,-0.570,0.550
5456,-0.590,0.555
5457,-0.625,0.570
5458,-0.645,0.580
5459,-0.645,0.565
5460,-0.635,0.600
5461,-0.625,0.615
5462,-0.635,0.645
5463,-0.660,0.660
5464,-0.680,0.645
5465,-0.700,0.665
5466,-0.680,0.680
5467,-0.670,0.705
5468,-0.665,0.725
5469,-0.690,0.735
5470,-0.725,0.725
5471,-0.725,0.725
5472,-0.710,0.735
5473,-0.695,0.765
5474,-0.690,0.785
5475,-0.695,0.785
5476,-0.715,0.765
5477,-0.710,0.770
5478,-0.695,0.765
5479,-0.690,0.785
5480,-0.690,0.780
5481,-0.685,0.770
5482,-0.695,0.755
5483,-0.675,0.735
5484,-0.655,0.735
5485,-0.635,0.730
5486,-0.625,0.720
5487,-0.635,0.695
5488,-0.630,0.665
5489,-0.600,0.640
5490,-0.575,0.625
5491,-0.550,0.600
5492,-0.525,0.575
5493,-0.525,0.550
5494,-0.525,0.515
5495,-0.485,0.485
5496,-0.450,0.465
5497,-0.410,0.450
5498,-0.390,0.430
5499,-0.390,0.390
5500,-0.380,0.360
5501,-0.370,0.335
5502,-0.330,0.295
5503,-0.300,0.305
5504,-0.275,0.290
5505,-0.265,0.260
5506,-0.265,0.245
5507,-0.250,0.215
5508,-0.240,0.210
5509,-0.205,0.220
5510,-0.180,0.210
5511,-0.185,0.195
5512,-0.200,0.180
5513,-0.195,0.180
5514,-0.185,0.170
5515,-0.170,0.195
5516,-0.170,0.190
5517,-0.200,0.175
5518,-0.185,0.165
5519,-0.200,0.165
5520,-0.175,0.170
5521,-0.170,0.180
5522,-0.165,0.195
5523,-0.185,0.195
5524,-0.210,0.170
5525,-0.190,0.160
5526,-0.170,0.165
5527,-0.160,0.175
5528,-0.160,0.170
5529,-0.180,0.180
5530,-0.180,0.165
5531,-0.170,0.160
5532,-0.160,0.160
5533,-0.160,0.170
5534,-0.140,0.180
5535,-0.160,0.175
5536,-0.170,0.155
5537,-0.170,0.160
5538,-0.160,0.170
5539,-0.145,0.180
5540,-0.135,0.180
5541,-0.155,0.175
5542,-0.155,0.155
5543,-0.140,0.140
5544,-0.110,0.115
5545,-0.075,0.130
5546,-0.040,0.120
5547,-0.030,0.090
5548,-0.005,0.050
5549,0.020,-0.005
5550,0.060,-0.030
5551,0.155,-0.065
5552,0.235,-0.110
5553,0.295,-0.165
5554,0.360,-0.240
5555,0.440,-0.315
5556,0.525,-0.380
5557,0.615,-0.435
5558,0.705,-0.480
5559,0.785,-0.535
5560,0.885,-0.610
5561,0.950,-0.670
5562,1.025,-0.725
5563,1.120,-0.760
5564,1.185,-0.785
5565,1.240,-0.815
5566,1.275,-0.830
5567,1.380,-0.850
5568,1.490,-0.850
5569,1.545,-0.825
5570,1.535,-0.810
5571,1.465,-0.745
5572,1.410,-0.715
5573,1.360,-0.655
5574,1.330,-0.570
5575,1.295,-0.495
5576,1.255,-0.395
5577,1.225,-0.310
5578,1.190,-0.275
5579,1.145,-0.245
5580,1.130,-0.235
5581,1.115,-0.205
5582,1.090,-0.175
5583,1.065,-0.180
5584,1.050,-0.175
5585,1.045,-0.185
5586,0.985,-0.170
5587,0.895,-0.185
5588,0.785,-0.165
5589,0.625,-0.150
5590,0.435,-0.115
5591,0.250,-0.050
5592,0.110,0.035
5593,-0.005,0.110
5594,-0.100,0.160
5595,-0.175,0.195
5596,-0.235,0.215
5597,-0.270,0.220
5598,-0.285,0.240
5599,-0.305,0.270
5600,-0.345,0.280
5601,-0.390,0.305
5602,-0.450,0.295
5603,-0.480,0.305
5604,-0.485,0.330
5605,-0.500,0.365
5606,-0.525,0.375
5607,-0.545,0.385
5608,-0.590,0.375
5609,-0.595,0.370
5610,-0.595,0.380
5611,-0.600,0.405
5612,-0.605,0.405
5613,-0.630,0.420
5614,-0.640,0.405
5615,-0.660,0.410
5616,-0.655,0.410
5617,-0.645,0.440
5618,-0.655,0.455
5619,-0.685,0.460
5620,-0.715,0.455
5621,-0.720,0.455
5622,-0.710,0.470
5623,-0.715,0.485
5624,-0.725,0.500
5625,-0.745,0.495
5626,-0.775,0.495
5627,-0.780,0.490
5628,-0.785,0.510
5629,-0.770,0.520
5630,-0.770,0.540
5631,-0.780,0.550
5632,-0.795,0.535
5633,-0.815,0.535
5634,-0.800,0.545
5635,-0.790,0.570
5636,-0.810,0.575
5637,-0.835,0.580
5638,-0.845,0.570
5639,-0.855,0.550
5640,-0.835,0.550
5641,-0.825,0.565
5642,-0.830,0.570
5643,-0.840,0.560
5644,-0.840,0.545
5645,-0.835,0.520
5646,-0.810,0.525
5647,-0.780,0.515
5648,-0.780,0.520
5649,-0.785,0.505
5650,-0.785,0.480
5651,-0.760,0.460
5652,-0.715,0.450
5653,-0.680,0.440
5654,-0.660,0.420
5655,-0.655,0.410
5656,-0.635,0.400
5657,-0.615,0.355
5658,-0.590,0.335
5659,-0.555,0.345
5660,-0.535,0.320
5661,-0.530,0.300
5662,-0.500,0.280
5663,-0.460,0.245
5664,-0.425,0.235
5665,-0.380,0.250
5666,-0.355,0.235
5667,-0.350,0.220
5668,-0.340,0.190
5669,-0.320,0.180
5670,-0.295,0.175
5671,-0.265,0.175
5672,-0.260,0.180
5673,-0.265,0.165
5674,-0.275,0.150
5675,-0.270,0.135
5676,-0.245,0.145
5677,-0.230,0.145
5678,-0.220,0.165
5679,-0.245,0.155
5680,-0.250,0.140
5681,-0.245,0.140
5682,-0.230,0.155
5683,-0.225,0.155
5684,-0.220,0.150
5685,-0.230,0.150
5686,-0.245,0.140
5687,-0.240,0.135
5688,-0.225,0.135
5689,-0.205,0.155
5690,-0.225,0.160
5691,-0.225,0.150
5692,-0.235,0.125
5693,-0.225,0.125
5694,-0.205,0.125
5695,-0.190,0.135
5696,-0.190,0.140
5697,-0.215,0.145
5698,-0.235,0.135
5699,-0.220,0.115
5700,-0.215,0.130
5701,-0.195,0.130
5702,-0.185,0.140
5703,-0.200,0.125
5704,-0.200,0.115
5705,-0.185,0.110
5706,-0.185,0.110
5707,-0.170,0.125
5708,-0.185,0.125
5709,-0.180,0.120
5710,-0.200,0.115
5711,-0.190,0.090
5712,-0.190,0.120
5713,-0.170,0.120
5714,-0.170,0.135
5715,-0.170,0.125
5716,-0.180,0.115
5717,-0.180,0.105
5718,-0.165,0.110
5719,-0.150,0.120
5720,-0.160,0.125
5721,-0.160,0.120
5722,-0.175,0.105
5723,-0.160,0.100
5724,-0.145,0.105
5725,-0.140,0.120
5726,-0.145,0.130
5727,-0.160,0.120
5728,-0.160,0.095
5729,-0.155,0.100
5730,-0.140,0.105
5731,-0.130,0.110
5732,-0.130,0.120
5733,-0.140,0.115
5734,-0.155,0.090
5735,-0.155,0.090
5736,-0.145,0.080
5737,-0.150,0.105
5738,-0.140,0.115
5739,-0.140,0.110
5740,-0.150,0.105
5741,-0.160,0.080
5742,-0.165,0.105
5743,-0.145,0.110
5744,-0.135,0.105
5745,-0.150,0.105
5746,-0.160,0.095
5747,-0.160,0.080
5748,-0.145,0.100
5749,-0.135,0.110
5750,-0.140,0.130
5751,-0.140,0.115
5752,-0.140,0.085
5753,-0.145,0.075
5754,-0.145,0.085
5755,-0.140,0.110
5756,-0.135,0.100
5757,-0.135,0.095
5758,-0.140,0.090
5759,-0.145,0.085
5760,-0.135,0.095
5761,-0.125,0.095
5762,-0.125,0.095
5763,-0.155,0.100
5764,-0.145,0.095
5765,-0.145,0.085
5766,-0.125,0.095
5767,-0.120,0.100
5768,-0.130,0.105
5769,-0.145,0.100
5770,-0.155,0.090
5771,-0.145,0.080
5772,-0.120,0.080
5773,-0.115,0.100
5774,-0.115,0.110
5775,-0.130,0.095
5776,-0.130,0.090
5777,-0.125,0.080
5778,-0.120,0.090
5779,-0.100,0.090
5780,-0.100,0.090
5781,-0.125,0.095
5782,-0.150,0.070
5783,-0.130,0.075
5784,-0.110,0.095
5785,-0.110,0.100
5786,-0.110,0.100
5787,-0.130,0.090
5788,-0.130,0.075
5789,-0.120,0.065
5790,-0.125,0.065
5791,-0.120,0.090
5792,-0.125,0.085
5793,-0.145,0.085
5794,-0.140,0.075
5795,-0.125,0.080
5796,-0.105,0.075
5797,-0.110,0.095
5798,-0.115,0.095
5799,-0.110,0.095
5800,-0.125,0.065
5801,-0.125,0.065
5802,-0.105,0.075
5803,-0.095,0.085
5804,-0.095,0.095
5805,-0.115,0.090
5806,-0.135,0.085
5807,-0.120,0.070
5808,-0.100,0.070
5809,-0.085,0.095
5810,-0.080,0.095
5811,-0.100,0.080
5812,-0.115,0.085
5813,-0.110,0.075
5814,-0.095,0.070
5815,-0.075,0.080
5816,-0.100,0.085
5817,-0.110,0.090
5818,-0.130,0.075
5819,-0.115,0.070
5820,-0.095,0.085
5821,-0.080,0.085
5822,-0.090,0.100
5823,-0.115,0.095
5824,-0.115,0.085
5825,-0.125,0.080
5826,-0.110,0.095
5827,-0.125,0.095
5828,-0.115,0.105
5829,-0.115,0.110
5830,-0.120,0.085
5831,-0.125,0.090
5832,-0.110,0.090
5833,-0.100,0.095
5834,-0.105,0.105
5835,-0.115,0.120
5836,-0.125,0.100
5837,-0.120,0.090
5838,-0.105,0.095
5839,-0.085,0.110
5840,-0.080,0.135
5841,-0.075,0.145
5842,-0.085,0.135
5843,-0.080,0.130
5844,-0.070,0.140
5845,-0.060,0.150
5846,-0.040,0.165
5847,-0.025,0.155
5848,-0.030,0.135
5849,-0.010,0.130
5850,0.015,0.125
5851,0.035,0.105
5852,0.035,0.100
5853,0.015,0.080
5854,0.010,0.060
5855,0.010,0.060
5856,0.015,0.070
5857,0.010,0.075
5858,0.000,0.075
5859,-0.015,0.060
5860,-0.045,0.055
5861,-0.050,0.055
5862,-0.055,0.055
5863,-0.055,0.075
5864,-0.075,0.070
5865,-0.090,0.085
5866,-0.105,0.090
5867,-0.120,0.070
5868,-0.105,0.080
5869,-0.115,0.085
5870,-0.120,0.090
5871,-0.140,0.095
5872,-0.130,0.080
5873,-0.140,0.060
5874,-0.120,0.075
5875,-0.105,0.070
5876,-0.110,0.090
5877,-0.130,0.090
5878,-0.140,0.070
5879,-0.135,0.065
5880,-0.125,0.080
5881,-0.115,0.085
5882,-0.130,0.095
5883,-0.120,0.085
5884,-0.140,0.070
5885,-0.135,0.070
5886,-0.115,0.055
5887,-0.125,0.055
5888,-0.140,0.060
5889,-0.140,0.075
5890,-0.090,0.065
5891,0.025,0.030
5892,0.165,-0.025
5893,0.350,-0.090
5894,0.565,-0.140
5895,0.840,-0.170
5896,1.110,-0.185
5897,1.335,-0.220
5898,1.540,-0.245
5899,1.675,-0.235
5900,1.630,-0.190
5901,1.375,-0.115
5902,1.055,-0.095
5903,0.700,-0.075
5904,0.340,-0.055
5905,0.075,-0.035
5906,-0.085,-0.040
5907,-0.150,-0.045
5908,-0.150,-0.055
5909,-0.170,-0.025
5910,-0.180,0.015
5911,-0.185,0.055
5912,-0.170,0.075
5913,-0.180,0.095
5914,-0.180,0.085
5915,-0.195,0.100
5916,-0.185,0.105
5917,-0.190,0.120
5918,-0.200,0.120
5919,-0.220,0.120
5920,-0.255,0.115
5921,-0.250,0.110
5922,-0.245,0.105
5923,-0.225,0.125
5924,-0.235,0.130
5925,-0.240,0.130
5926,-0.265,0.120
5927,-0.260,0.105
5928,-0.245,0.110
5929,-0.240,0.120
5930,-0.225,0.130
5931,-0.240,0.120
5932,-0.235,0.110
5933,-0.225,0.125
5934,-0.220,0.125
5935,-0.210,0.130
5936,-0.225,0.120
5937,-0.230,0.105
5938,-0.245,0.105
5939,-0.230,0.090
5940,-0.240,0.085
5941,-0.210,0.100
5942,-0.215,0.110
5943,-0.220,0.100
5944,-0.235,0.085
5945,-0.230,0.065
5946,-0.210,0.070
5947,-0.200,0.080
5948,-0.195,0.070
5949,-0.200,0.070
5950,-0.220,0.065
5951,-0.205,0.055
5952,-0.180,0.055
5953,-0.170,0.065
5954,-0.170,0.075
5955,-0.185,0.060
5956,-0.190,0.045
5957,-0.185,0.030
5958,-0.155,0.040
5959,-0.140,0.035
5960,-0.135,0.045
5961,-0.145,0.030
5962,-0.135,0.010
5963,-0.120,-0.010
5964,-0.085,-0.010
5965,-0.080,-0.005
5966,-0.075,-0.015
5967,-0.080,-0.025
5968,-0.080,-0.045
5969,-0.065,-0.055
5970,-0.035,-0.060
5971,-0.025,-0.075
5972,-0.010,-0.065
5973,-0.010,-0.080
5974,-0.010,-0.100
5975,0.000,-0.110
5976,0.025,-0.115
5977,0.045,-0.110
5978,0.055,-0.115
5979,0.035,-0.125
5980,0.050,-0.155
5981,0.045,-0.160
5982,0.080,-0.155
5983,0.095,-0.150
5984,0.085,-0.145
5985,0.090,-0.150
5986,0.080,-0.160
5987,0.100,-0.175
5988,0.110,-0.160
5989,0.135,-0.150
5990,0.130,-0.145
5991,0.120,-0.135
5992,0.120,-0.140
5993,0.120,-0.140
5994,0.140,-0.110
5995,0.150,-0.095
5996,0.130,-0.080
5997,0.105,-0.070
5998,0.090,-0.065
5999,0.070,-0.060
6000,0.070,-0.040
6001,0.060,-0.005
6002,0.045,0.010
6003,0.020,0.030
6004,-0.025,0.035
6005,-0.035,0.050
6006,-0.030,0.065
6007,-0.040,0.095
6008,-0.075,0.105
6009,-0.100,0.120
6010,-0.145,0.130
6011,-0.150,0.120
6012,-0.150,0.135
6013,-0.150,0.165
6014,-0.145,0.170
6015,-0.185,0.165
6016,-0.200,0.160
6017,-0.205,0.165
6018,-0.185,0.185
6019,-0.185,0.190
6020,-0.185,0.200
6021,-0.205,0.200
6022,-0.220,0.185
6023,-0.230,0.185
6024,-0.230,0.190
6025,-0.225,0.200
6026,-0.220,0.195
6027,-0.220,0.205
6028,-0.235,0.180
6029,-0.225,0.180
6030,-0.210,0.190
6031,-0.205,0.200
6032,-0.215,0.200
6033,-0.235,0.190
6034,-0.240,0.190
6035,-0.235,0.175
6036,-0.220,0.185
6037,-0.215,0.205
6038,-0.210,0.210
6039,-0.230,0.195
6040,-0.235,0.185
6041,-0.225,0.185
6042,-0.215,0.180
6043,-0.205,0.195
6044,-0.220,0.195
6045,-0.235,0.190
6046,-0.245,0.180
6047,-0.230,0.160
6048,-0.210,0.160
6049,-0.210,0.180
6050,-0.210,0.180
6051,-0.230,0.180
6052,-0.240,0.155
6053,-0.230,0.140
6054,-0.210,0.165
6055,-0.205,0.170
6056,-0.220,0.175
6057,-0.225,0.175
6058,-0.230,0.155
6059,-0.220,0.160
6060,-0.215,0.160
6061,-0.200,0.165
6062,-0.210,0.170
6063,-0.225,0.165
6064,-0.230,0.160
6065,-0.220,0.155
6066,-0.205,0.155
6067,-0.210,0.175
6068,-0.200,0.195
6069,-0.200,0.185
6070,-0.190,0.200
6071,-0.175,0.200
6072,-0.165,0.215
6073,-0.150,0.235
6074,-0.145,0.255
6075,-0.155,0.260
6076,-0.120,0.235
6077,-0.085,0.220
6078,-0.050,0.220
6079,-0.010,0.210
6080,-0.015,0.200
6081,0.005,0.160
6082,0.030,0.110
6083,0.080,0.055
6084,0.120,0.030
6085,0.165,0.010
6086,0.185,-0.010
6087,0.215,-0.080
6088,0.265,-0.170
6089,0.335,-0.290
6090,0.430,-0.390
6091,0.490,-0.475
6092,0.540,-0.560
6093,0.575,-0.625
6094,0.625,-0.690
6095,0.675,-0.755
6096,0.760,-0.810
6097,0.835,-0.865
6098,0.910,-0.960
6099,0.975,-1.005
6100,1.035,-1.065
6101,1.085,-1.095
6102,1.160,-1.115
6103,1.245,-1.140
6104,1.315,-1.170
6105,1.350,-1.175
6106,1.355,-1.160
6107,1.345,-1.120
6108,1.315,-1.065
6109,1.255,-0.985
6110,1.195,-0.905
6111,1.125,-0.815
6112,1.060,-0.730
6113,1.030,-0.610
6114,1.010,-0.480
6115,0.980,-0.365
6116,0.940,-0.305
6117,0.875,-0.235
6118,0.840,-0.215
6119,0.810,-0.190
6120,0.795,-0.150
6121,0.780,-0.125
6122,0.730,-0.105
6123,0.710,-0.110
6124,0.690,-0.105
6125,0.685,-0.100
6126,0.645,-0.090
6127,0.600,-0.075
6128,0.495,-0.050
6129,0.360,-0.030
6130,0.180,0.025
6131,-0.005,0.085
6132,-0.165,0.165
6133,-0.315,0.250
6134,-0.430,0.305
6135,-0.535,0.340
6136,-0.595,0.370
6137,-0.635,0.375
6138,-0.640,0.400
6139,-0.645,0.425
6140,-0.660,0.440
6141,-0.700,0.455
6142,-0.735,0.455
6143,-0.745,0.455
6144,-0.745,0.460
6145,-0.750,0.485
6146,-0.760,0.510
6147,-0.785,0.510
6148,-0.810,0.500
6149,-0.800,0.505
6150,-0.800,0.520
6151,-0.800,0.540
6152,-0.820,0.570
6153,-0.830,0.570
6154,-0.850,0.560
6155,-0.840,0.580
6156,-0.840,0.585
6157,-0.850,0.605
6158,-0.850,0.635
6159,-0.875,0.635
6160,-0.905,0.650
6161,-0.905,0.660
6162,-0.895,0.670
6163,-0.900,0.700
6164,-0.915,0.715
6165,-0.935,0.735
6166,-0.945,0.735
6167,-0.975,0.750
6168,-0.965,0.765
6169,-0.960,0.795
6170,-0.980,0.815
6171,-1.000,0.820
6172,-1.005,0.825
6173,-1.010,0.830
6174,-1.005,0.850
6175,-1.015,0.865
6176,-1.020,0.880
6177,-1.050,0.885
6178,-1.065,0.880
6179,-1.065,0.880
6180,-1.055,0.900
6181,-1.050,0.910
6182,-1.070,0.930
6183,-1.100,0.915
6184,-1.095,0.890
6185,-1.090,0.875
6186,-1.070,0.870
6187,-1.065,0.870
6188,-1.060,0.865
6189,-1.060,0.825
6190,-1.055,0.810
6191,-1.050,0.780
6192,-1.030,0.755
6193,-1.015,0.740
6194,-1.000,0.730
6195,-0.985,0.695
6196,-0.955,0.660
6197,-0.920,0.615
6198,-0.885,0.605
6199,-0.865,0.590
6200,-0.845,0.570
6201,-0.815,0.525
6202,-0.800,0.480
6203,-0.770,0.450
6204,-0.730,0.430
6205,-0.695,0.420
6206,-0.665,0.410
6207,-0.650,0.375
6208,-0.620,0.335
6209,-0.575,0.320
6210,-0.535,0.325
6211,-0.515,0.330
6212,-0.515,0.330
6213,-0.515,0.325
6214,-0.515,0.295
6215,-0.495,0.285
6216,-0.470,0.295
6217,-0.455,0.310
6218,-0.450,0.300
6219,-0.460,0.300
6220,-0.475,0.295
6221,-0.475,0.285
6222,-0.460,0.290
6223,-0.455,0.295
6224,-0.455,0.305
6225,-0.465,0.300
6226,-0.465,0.285
6227,-0.465,0.270
6228,-0.470,0.280
6229,-0.455,0.285
6230,-0.445,0.290
6231,-0.450,0.285
6232,-0.465,0.270
6233,-0.465,0.260
6234,-0.445,0.290
6235,-0.455,0.290
6236,-0.475,0.300
6237,-0.495,0.285
6238,-0.505,0.270
6239,-0.495,0.280
6240,-0.480,0.280
6241,-0.480,0.290
6242,-0.505,0.305
6243,-0.525,0.310
6244,-0.530,0.315
6245,-0.530,0.315
6246,-0.525,0.315
6247,-0.515,0.335
6248,-0.515,0.340
6249,-0.500,0.330
6250,-0.490,0.315
6251,-0.460,0.325
6252,-0.420,0.355
6253,-0.380,0.390
6254,-0.350,0.385
6255,-0.340,0.385
6256,-0.360,0.360
6257,-0.355,0.355
6258,-0.330,0.350
6259,-0.310,0.345
6260,-0.295,0.325
6261,-0.290,0.325
6262,-0.285,0.300
6263,-0.265,0.285
6264,-0.235,0.290
6265,-0.240,0.295
6266,-0.250,0.305
6267,-0.270,0.295
6268,-0.275,0.280
6269,-0.260,0.280
6270,-0.230,0.280
6271,-0.205,0.280
6272,-0.205,0.280
6273,-0.210,0.265
6274,-0.230,0.260
6275,-0.240,0.245
6276,-0.225,0.255
6277,-0.205,0.265
6278,-0.185,0.275
6279,-0.180,0.265
6280,-0.155,0.235
6281,-0.145,0.215
6282,-0.125,0.210
6283,-0.120,0.210
6284,-0.100,0.165
6285,-0.085,0.140
6286,-0.080,0.100
6287,-0.040,0.040
6288,0.010,-0.015
6289,0.070,-0.080
6290,0.130,-0.160
6291,0.195,-0.275
6292,0.280,-0.405
6293,0.365,-0.515
6294,0.455,-0.615
6295,0.550,-0.670
6296,0.625,-0.750
6297,0.695,-0.840
6298,0.775,-0.915
6299,0.875,-0.995
6300,0.975,-1.055
6301,1.090,-1.080
6302,1.160,-1.105
6303,1.240,-1.140
6304,1.315,-1.180
6305,1.380,-1.185
6306,1.415,-1.160
6307,1.395,-1.110
6308,1.375,-1.045
6309,1.300,-0.985
6310,1.220,-0.945
6311,1.165,-0.850
6312,1.155,-0.730
6313,1.165,-0.595
6314,1.160,-0.495
6315,1.115,-0.415
6316,1.065,-0.370
6317,1.035,-0.315
6318,1.005,-0.250
6319,0.965,-0.200
6320,0.925,-0.165
6321,0.900,-0.120
6322,0.880,-0.090
6323,0.900,-0.065
6324,0.900,-0.060
6325,0.850,-0.030
6326,0.730,-0.020
6327,0.540,0.030
6328,0.315,0.090
6329,0.090,0.185
6330,-0.125,0.275
6331,-0.300,0.380
6332,-0.465,0.455
6333,-0.605,0.480
6334,-0.675,0.505
6335,-0.715,0.535
6336,-0.720,0.560
6337,-0.725,0.590
6338,-0.740,0.605
6339,-0.775,0.610
6340,-0.810,0.615
6341,-0.830,0.625
6342,-0.845,0.670
6343,-0.855,0.715
6344,-0.870,0.755
6345,-0.915,0.795
6346,-0.940,0.825
6347,-0.905,0.860
6348,-0.885,0.850
6349,-0.890,0.845
6350,-0.900,0.835
6351,-0.925,0.800
6352,-0.935,0.780
6353,-0.935,0.755
6354,-0.910,0.750
6355,-0.925,0.775
6356,-0.930,0.770
6357,-0.945,0.755
6358,-0.970,0.730
6359,-0.970,0.730
6360,-0.975,0.745
6361,-0.990,0.760
6362,-0.985,0.765
6363,-1.005,0.765
6364,-1.025,0.765
6365,-1.030,0.765
6366,-1.040,0.780
6367,-1.045,0.790
6368,-1.075,0.820
6369,-1.110,0.830
6370,-1.115,0.825
6371,-1.110,0.825
6372,-1.095,0.840
6373,-1.085,0.870
6374,-1.100,0.885
6375,-1.135,0.895
6376,-1.150,0.890
6377,-1.130,0.865
6378,-1.110,0.885
6379,-1.115,0.885
6380,-1.105,0.895
6381,-1.125,0.880
6382,-1.130,0.860
6383,-1.100,0.840
6384,-1.065,0.820
6385,-1.045,0.815
6386,-1.030,0.795
6387,-1.025,0.790
6388,-1.015,0.760
6389,-1.000,0.710
6390,-0.965,0.685
6391,-0.935,0.655
6392,-0.905,0.630
6393,-0.870,0.570
6394,-0.840,0.520
6395,-0.795,0.460
6396,-0.735,0.415
6397,-0.695,0.400
6398,-0.660,0.370
6399,-0.645,0.315
6400,-0.610,0.250
6401,-0.565,0.215
6402,-0.525,0.180
6403,-0.480,0.155
6404,-0.455,0.140
6405,-0.450,0.110
6406,-0.455,0.070
6407,-0.425,0.055
6408,-0.405,0.050
6409,-0.385,0.045
6410,-0.365,0.040
6411,-0.365,0.020
6412,-0.365,0.015
6413,-0.350,-0.005
6414,-0.350,0.010
6415,-0.350,0.045
6416,-0.350,0.050
6417,-0.370,0.035
6418,-0.390,0.020
6419,-0.370,0.020
6420,-0.380,0.035
6421,-0.390,0.035
6422,-0.415,0.055
6423,-0.445,0.045
6424,-0.460,0.050
6425,-0.455,0.035
6426,-0.440,0.045
6427,-0.425,0.060
6428,-0.440,0.070
6429,-0.460,0.075
6430,-0.485,0.065
6431,-0.475,0.065
6432,-0.470,0.090
6433,-0.460,0.095
6434,-0.465,0.095
6435,-0.470,0.090
6436,-0.490,0.075
6437,-0.480,0.055
6438,-0.480,0.060
6439,-0.475,0.080
6440,-0.495,0.090
6441,-0.505,0.080
6442,-0.520,0.070
6443,-0.520,0.065
6444,-0.510,0.085
6445,-0.490,0.090
6446,-0.480,0.100
6447,-0.500,0.095
6448,-0.500,0.085
6449,-0.495,0.075
6450,-0.475,0.070
6451,-0.465,0.090
6452,-0.470,0.100
6453,-0.480,0.100
6454,-0.485,0.080
6455,-0.465,0.080
6456,-0.450,0.095
6457,-0.450,0.120
6458,-0.465,0.110
6459,-0.480,0.075
6460,-0.485,0.060
6461,-0.485,0.040
6462,-0.455,0.055
6463,-0.435,0.065
6464,-0.440,0.080
6465,-0.450,0.065
6466,-0.465,0.055
6467,-0.470,0.050
6468,-0.460,0.045
6469,-0.460,0.060
6470,-0.455,0.045
6471,-0.470,0.050
6472,-0.465,0.030
6473,-0.465,0.040
6474,-0.455,0.040
6475,-0.455,0.045
6476,-0.455,0.050
6477,-0.475,0.045
6478,-0.480,0.035
6479,-0.465,0.030
6480,-0.430,0.035
6481,-0.415,0.060
6482,-0.425,0.060
6483,-0.440,0.060
6484,-0.440,0.065
6485,-0.425,0.060
6486,-0.410,0.075
6487,-0.405,0.085
6488,-0.410,0.095
6489,-0.400,0.095
6490,-0.385,0.070
6491,-0.355,0.060
6492,-0.350,0.060
6493,-0.365,0.075
6494,-0.375,0.075
6495,-0.390,0.050
6496,-0.405,0.050
6497,-0.385,0.025
6498,-0.370,0.040
6499,-0.385,0.045
6500,-0.370,0.045
6501,-0.400,0.035
6502,-0.415,0.015
6503,-0.415,0.005
6504,-0.395,0.010
6505,-0.370,0.015
6506,-0.355,-0.005
6507,-0.360,0.000
6508,-0.375,-0.015
6509,-0.390,-0.025
6510,-0.385,-0.030
6511,-0.375,-0.020
6512,-0.370,-0.030
6513,-0.375,-0.040
6514,-0.385,-0.070
6515,-0.350,-0.070
6516,-0.320,-0.080
6517,-0.310,-0.050
6518,-0.325,-0.060
6519,-0.340,-0.060
6520,-0.335,-0.055
6521,-0.300,-0.065
6522,-0.255,-0.055
6523,-0.240,-0.035
6524,-0.235,-0.030
6525,-0.255,-0.045
6526,-0.240,-0.055
6527,-0.210,-0.070
6528,-0.175,-0.075
6529,-0.125,-0.065
6530,-0.110,-0.070
6531,-0.125,-0.075
6532,-0.135,-0.110
6533,-0.130,-0.140
6534,-0.115,-0.160
6535,-0.115,-0.140
6536,-0.120,-0.145
6537,-0.150,-0.140
6538,-0.155,-0.150
6539,-0.160,-0.145
6540,-0.170,-0.140
6541,-0.170,-0.140
6542,-0.190,-0.140
6543,-0.250,-0.135
6544,-0.285,-0.140
6545,-0.275,-0.125
6546,-0.270,-0.115
6547,-0.260,-0.095
6548,-0.275,-0.090
6549,-0.305,-0.095
6550,-0.320,-0.110
6551,-0.330,-0.105
6552,-0.300,-0.095
6553,-0.305,-0.070
6554,-0.305,-0.075
6555,-0.315,-0.065
6556,-0.330,-0.075
6557,-0.325,-0.100
6558,-0.305,-0.080
6559,-0.295,-0.075
6560,-0.285,-0.070
6561,-0.300,-0.070
6562,-0.310,-0.090
6563,-0.330,-0.095
6564,-0.320,-0.085
6565,-0.300,-0.085
6566,-0.300,-0.090
6567,-0.305,-0.110
6568,-0.310,-0.140
6569,-0.305,-0.120
6570,-0.265,-0.105
6571,-0.165,-0.130
6572,-0.045,-0.195
6573,0.100,-0.310
6574,0.275,-0.390
6575,0.495,-0.480
6576,0.800,-0.500
6577,1.125,-0.510
6578,1.395,-0.520
6579,1.540,-0.480
6580,1.440,-0.390
6581,1.190,-0.285
6582,0.865,-0.170
6583,0.520,-0.095
6584,0.160,-0.080
6585,-0.130,-0.130
6586,-0.270,-0.205
6587,-0.265,-0.230
6588,-0.220,-0.220
6589,-0.205,-0.185
6590,-0.210,-0.155
6591,-0.225,-0.135
6592,-0.190,-0.150
6593,-0.185,-0.155
6594,-0.185,-0.140
6595,-0.220,-0.120
6596,-0.245,-0.110
6597,-0.270,-0.120
6598,-0.305,-0.125
6599,-0.295,-0.130
6600,-0.295,-0.125
6601,-0.295,-0.115
6602,-0.280,-0.130
6603,-0.300,-0.130
6604,-0.335,-0.150
6605,-0.325,-0.165
6606,-0.280,-0.165
6607,-0.240,-0.160
6608,-0.220,-0.170
6609,-0.190,-0.180
6610,-0.190,-0.200
6611,-0.220,-0.190
6612,-0.240,-0.170
6613,-0.235,-0.160
6614,-0.230,-0.150
6615,-0.250,-0.150
6616,-0.285,-0.155
6617,-0.305,-0.165
6618,-0.260,-0.170
6619,-0.205,-0.165
6620,-0.250,-0.150
6621,-0.380,-0.135
6622,-0.455,-0.135
6623,-0.445,-0.130
6624,-0.365,-0.140
6625,-0.320,-0.135
6626,-0.320,-0.130
6627,-0.335,-0.115
6628,-0.330,-0.150
6629,-0.310,-0.160
6630,-0.300,-0.145
6631,-0.330,-0.115
6632,-0.355,-0.125
6633,-0.365,-0.125
6634,-0.335,-0.135
6635,-0.275,-0.140
6636,-0.240,-0.150
6637,-0.200,-0.140
6638,-0.190,-0.150
6639,-0.190,-0.160
6640,-0.190,-0.180
6641,-0.185,-0.160
6642,-0.150,-0.155
6643,-0.120,-0.155
6644,-0.100,-0.160
6645,-0.095,-0.175
6646,-0.100,-0.200
6647,-0.090,-0.250
6648,-0.075,-0.265
6649,-0.055,-0.270
6650,-0.040,-0.290
6651,-0.015,-0.325
6652,0.005,-0.355
6653,0.035,-0.370
6654,0.035,-0.365
6655,0.050,-0.355
6656,0.030,-0.355
6657,0.040,-0.360
6658,0.065,-0.405
6659,0.135,-0.415
6660,0.195,-0.415
6661,0.210,-0.400
6662,0.155,-0.380
6663,0.055,-0.370
6664,0.005,-0.360
6665,0.010,-0.345
6666,0.035,-0.325
6667,0.050,-0.295
6668,0.040,-0.275
6669,0.020,-0.260
6670,0.000,-0.235
6671,0.005,-0.235
6672,-0.005,-0.190
6673,-0.015,-0.150
6674,-0.050,-0.135
6675,-0.090,-0.110
6676,-0.110,-0.100
6677,-0.145,-0.085
6678,-0.145,-0.055
6679,-0.135,-0.020
6680,-0.135,0.000
6681,-0.120,0.000
6682,-0.095,-0.005
6683,-0.055,-0.010
6684,-0.030,-0.005
6685,-0.080,0.020
6686,-0.170,0.035
6687,-0.260,0.040
6688,-0.320,0.060
6689,-0.360,0.090
6690,-0.410,0.120
6691,-0.430,0.135
6692,-0.410,0.135
6693,-0.400,0.135
6694,-0.380,0.130
6695,-0.370,0.125
6696,-0.345,0.135
6697,-0.315,0.115
6698,-0.300,0.090
6699,-0.295,0.060
6700,-0.280,0.025
6701,-0.280,0.030
6702,-0.270,0.055
6703,-0.270,0.070
