'sample interval','MLII','V1'
'0.00277778 sec','mV','mV'
0,0.000,0.125
1,0.000,0.125
2,0.000,0.125
3,0.000,0.125
4,0.000,0.125
5,0.000,0.125
6,0.000,0.125
7,0.000,0.125
8,0.000,0.125
9,0.005,0.130
10,0.015,0.145
11,0.025,0.170
12,0.035,0.160
13,0.035,0.140
14,0.015,0.135
15,0.015,0.130
16,0.025,0.140
17,0.050,0.145
18,0.060,0.140
19,0.055,0.120
20,0.040,0.115
21,0.045,0.125
22,0.065,0.130
23,0.085,0.125
24,0.095,0.110
25,0.085,0.105
26,0.085,0.080
27,0.085,0.090
28,0.105,0.105
29,0.125,0.100
30,0.135,0.085
31,0.135,0.070
32,0.135,0.060
33,0.145,0.060
34,0.150,0.060
35,0.175,0.070
36,0.195,0.045
37,0.200,0.020
38,0.180,0.015
39,0.190,0.015
40,0.215,0.030
41,0.255,0.035
42,0.270,0.025
43,0.275,0.005
44,0.265,0.005
45,0.270,-0.005
46,0.280,0.000
47,0.305,0.015
48,0.325,0.000
49,0.320,0.000
50,0.325,-0.015
51,0.320,0.005
52,0.335,0.005
53,0.350,0.030
54,0.355,0.015
55,0.335,0.010
56,0.325,0.015
57,0.315,0.030
58,0.315,0.040
59,0.310,0.080
60,0.290,0.075
61,0.265,0.070
62,0.235,0.075
63,0.215,0.090
64,0.195,0.120
65,0.180,0.130
66,0.170,0.110
67,0.140,0.090
68,0.105,0.095
69,0.085,0.105
70,0.090,0.110
71,0.085,0.120
72,0.075,0.125
73,0.045,0.105
74,0.010,0.110
75,-0.010,0.120
76,-0.010,0.135
77,0.005,0.145
78,0.005,0.130
79,-0.015,0.115
80,-0.030,0.115
81,-0.045,0.125
82,-0.045,0.125
83,-0.025,0.140
84,-0.030,0.135
85,-0.030,0.110
86,-0.050,0.105
87,-0.070,0.115
88,-0.050,0.125
89,-0.040,0.145
90,-0.035,0.135
91,-0.050,0.120
92,-0.070,0.120
93,-0.070,0.120
94,-0.060,0.140
95,-0.045,0.145
96,-0.045,0.130
97,-0.060,0.115
98,-0.060,0.115
99,-0.075,0.115
100,-0.050,0.130
101,-0.040,0.140
102,-0.030,0.145
103,-0.035,0.130
104,-0.060,0.130
105,-0.085,0.145
106,-0.065,0.150
107,-0.045,0.170
108,-0.045,0.165
109,-0.050,0.155
110,-0.065,0.140
111,-0.075,0.140
112,-0.060,0.150
113,-0.055,0.155
114,-0.050,0.150
115,-0.060,0.145
116,-0.080,0.140
117,-0.085,0.155
118,-0.075,0.175
119,-0.045,0.175
120,-0.040,0.165
121,-0.055,0.155
122,-0.060,0.140
123,-0.075,0.140
124,-0.065,0.165
125,-0.060,0.185
126,-0.055,0.165
127,-0.055,0.155
128,-0.075,0.135
129,-0.070,0.145
130,-0.050,0.155
131,-0.045,0.165
132,-0.045,0.155
133,-0.055,0.140
134,-0.070,0.135
135,-0.080,0.135
136,-0.075,0.160
137,-0.055,0.185
138,-0.045,0.160
139,-0.060,0.160
140,-0.070,0.155
141,-0.085,0.150
142,-0.065,0.160
143,-0.050,0.175
144,-0.050,0.165
145,-0.050,0.155
146,-0.065,0.135
147,-0.075,0.160
148,-0.060,0.170
149,-0.050,0.180
150,-0.040,0.185
151,-0.050,0.165
152,-0.070,0.155
153,-0.065,0.150
154,-0.060,0.165
155,-0.065,0.170
156,-0.055,0.165
157,-0.055,0.150
158,-0.080,0.150
159,-0.080,0.155
160,-0.065,0.175
161,-0.055,0.175
162,-0.040,0.185
163,-0.045,0.155
164,-0.065,0.145
165,-0.080,0.150
166,-0.070,0.160
167,-0.060,0.165
168,-0.060,0.175
169,-0.070,0.165
170,-0.065,0.150
171,-0.085,0.155
172,-0.050,0.175
173,-0.045,0.175
174,-0.050,0.165
175,-0.055,0.145
176,-0.070,0.145
177,-0.070,0.140
178,-0.050,0.155
179,-0.050,0.170
180,-0.035,0.180
181,-0.045,0.160
182,-0.065,0.150
183,-0.065,0.160
184,-0.060,0.170
185,-0.055,0.175
186,-0.055,0.175
187,-0.055,0.155
188,-0.065,0.155
189,-0.055,0.155
190,-0.050,0.185
191,-0.040,0.190
192,-0.035,0.185
193,-0.040,0.165
194,-0.060,0.155
195,-0.065,0.160
196,-0.065,0.170
197,-0.045,0.180
198,-0.055,0.175
199,-0.055,0.155
200,-0.060,0.140
201,-0.065,0.160
202,-0.070,0.180
203,-0.050,0.195
204,-0.040,0.175
205,-0.050,0.165
206,-0.060,0.145
207,-0.065,0.155
208,-0.050,0.150
209,-0.025,0.175
210,-0.030,0.170
211,-0.045,0.150
212,-0.055,0.160
213,-0.065,0.160
214,-0.050,0.170
215,-0.045,0.170
216,-0.040,0.155
217,-0.045,0.140
218,-0.050,0.150
219,-0.065,0.145
220,-0.055,0.170
221,-0.030,0.190
222,-0.040,0.180
223,-0.035,0.165
224,-0.040,0.135
225,-0.055,0.160
226,-0.050,0.165
227,-0.020,0.170
228,-0.030,0.165
229,-0.045,0.145
230,-0.050,0.150
231,-0.050,0.145
232,-0.040,0.160
233,-0.025,0.180
234,-0.030,0.165
235,-0.035,0.145
236,-0.055,0.140
237,-0.035,0.140
238,-0.030,0.170
239,-0.020,0.175
240,-0.025,0.180
241,-0.025,0.155
242,-0.035,0.155
243,-0.040,0.160
244,-0.025,0.180
245,-0.015,0.170
246,-0.020,0.170
247,-0.030,0.165
248,-0.035,0.160
249,-0.050,0.165
250,-0.025,0.180
251,-0.015,0.185
252,-0.020,0.190
253,-0.020,0.150
254,-0.040,0.135
255,-0.050,0.135
256,-0.025,0.150
257,-0.020,0.145
258,-0.005,0.145
259,-0.020,0.135
260,-0.025,0.120
261,-0.025,0.135
262,-0.020,0.150
263,-0.005,0.170
264,-0.010,0.155
265,-0.010,0.145
266,-0.040,0.140
267,-0.025,0.140
268,-0.015,0.155
269,-0.005,0.165
270,0.005,0.155
271,-0.010,0.135
272,-0.030,0.130
273,-0.030,0.130
274,-0.020,0.140
275,-0.005,0.155
276,-0.010,0.135
277,-0.025,0.125
278,-0.035,0.105
279,-0.035,0.120
280,-0.010,0.125
281,-0.005,0.150
282,0.000,0.140
283,-0.005,0.135
284,-0.025,0.130
285,-0.020,0.150
286,-0.020,0.170
287,-0.010,0.195
288,0.000,0.185
289,-0.020,0.170
290,-0.035,0.165
291,-0.045,0.185
292,-0.040,0.200
293,-0.015,0.215
294,0.000,0.180
295,0.015,0.170
296,0.025,0.135
297,0.015,0.145
298,0.045,0.160
299,0.045,0.175
300,0.060,0.165
301,0.050,0.155
302,0.025,0.140
303,0.040,0.155
304,0.045,0.160
305,0.050,0.160
306,0.040,0.145
307,0.020,0.135
308,0.005,0.140
309,0.000,0.145
310,-0.010,0.150
311,0.010,0.160
312,-0.005,0.145
313,-0.015,0.135
314,-0.035,0.110
315,-0.035,0.110
316,-0.040,0.130
317,-0.025,0.145
318,-0.005,0.145
319,-0.005,0.125
320,-0.005,0.120
321,-0.025,0.125
322,-0.020,0.130
323,-0.005,0.145
324,-0.010,0.135
325,-0.005,0.125
326,-0.025,0.115
327,-0.015,0.120
328,-0.020,0.140
329,0.015,0.145
330,0.015,0.165
331,0.025,0.175
332,0.025,0.185
333,0.030,0.205
334,0.070,0.200
335,0.100,0.155
336,0.140,0.045
337,0.150,-0.090
338,0.175,-0.225
339,0.235,-0.355
340,0.325,-0.480
341,0.465,-0.630
342,0.590,-0.810
343,0.740,-0.940
344,0.875,-1.020
345,1.005,-0.970
346,1.140,-0.885
347,1.290,-0.780
348,1.415,-0.670
349,1.465,-0.500
350,1.440,-0.330
351,1.300,-0.170
352,1.105,-0.030
353,0.880,0.075
354,0.670,0.110
355,0.470,0.095
356,0.285,0.055
357,0.135,0.025
358,0.065,0.040
359,0.050,0.085
360,0.055,0.105
361,0.065,0.100
362,0.060,0.100
363,0.045,0.130
364,0.030,0.135
365,0.030,0.140
366,0.020,0.140
367,0.000,0.130
368,-0.030,0.115
369,-0.045,0.135
370,-0.045,0.150
371,-0.035,0.165
372,-0.035,0.160
373,-0.055,0.150
374,-0.065,0.150
375,-0.070,0.150
376,-0.065,0.155
377,-0.055,0.160
378,-0.065,0.165
379,-0.055,0.150
380,-0.080,0.145
381,-0.075,0.160
382,-0.085,0.180
383,-0.060,0.180
384,-0.055,0.165
385,-0.065,0.145
386,-0.085,0.120
387,-0.110,0.120
388,-0.080,0.135
389,-0.070,0.145
390,-0.055,0.125
391,-0.080,0.115
392,-0.090,0.115
393,-0.095,0.110
394,-0.080,0.125
395,-0.065,0.155
396,-0.050,0.135
397,-0.065,0.115
398,-0.065,0.100
399,-0.070,0.110
400,-0.065,0.120
401,-0.045,0.125
402,-0.040,0.115
403,-0.050,0.105
404,-0.055,0.100
405,-0.070,0.090
406,-0.055,0.100
407,-0.025,0.120
408,-0.015,0.125
409,-0.015,0.100
410,-0.030,0.085
411,-0.025,0.115
412,-0.030,0.100
413,0.010,0.120
414,0.020,0.105
415,0.025,0.090
416,0.000,0.090
417,0.005,0.080
418,0.030,0.075
419,0.055,0.080
420,0.055,0.065
421,0.065,0.035
422,0.060,0.020
423,0.070,0.025
424,0.090,0.030
425,0.120,0.030
426,0.130,0.020
427,0.130,-0.005
428,0.130,-0.005
429,0.150,0.000
430,0.160,0.000
431,0.175,0.010
432,0.200,-0.015
433,0.205,-0.010
434,0.200,-0.030
435,0.215,-0.035
436,0.230,-0.040
437,0.260,-0.025
438,0.290,-0.030
439,0.275,-0.055
440,0.285,-0.055
441,0.285,-0.050
442,0.310,-0.035
443,0.335,-0.015
444,0.320,-0.010
445,0.335,-0.010
446,0.310,-0.020
447,0.310,0.000
448,0.315,0.020
449,0.305,0.045
450,0.295,0.035
451,0.265,0.035
452,0.235,0.035
453,0.200,0.050
454,0.210,0.070
455,0.205,0.075
456,0.185,0.080
457,0.155,0.075
458,0.120,0.065
459,0.090,0.080
460,0.100,0.095
461,0.080,0.110
462,0.075,0.110
463,0.055,0.090
464,0.020,0.090
465,0.015,0.105
466,0.010,0.115
467,0.015,0.135
468,0.010,0.120
469,-0.010,0.125
470,-0.030,0.130
471,-0.040,0.140
472,-0.050,0.155
473,-0.035,0.155
474,-0.035,0.130
475,-0.045,0.100
476,-0.075,0.075
477,-0.060,0.070
478,-0.055,0.070
479,-0.045,0.080
480,-0.040,0.085
481,-0.045,0.085
482,-0.055,0.075
483,-0.060,0.080
484,-0.070,0.100
485,-0.040,0.115
486,-0.045,0.095
487,-0.050,0.095
488,-0.065,0.080
489,-0.075,0.085
490,-0.065,0.110
491,-0.040,0.125
492,-0.035,0.120
493,-0.050,0.110
494,-0.055,0.110
495,-0.060,0.115
496,-0.045,0.125
497,-0.050,0.130
498,-0.025,0.125
499,-0.040,0.105
500,-0.055,0.110
501,-0.060,0.120
502,-0.050,0.140
503,-0.025,0.145
504,-0.025,0.145
505,-0.025,0.140
506,-0.040,0.130
507,-0.050,0.135
508,-0.040,0.150
509,-0.030,0.155
510,-0.020,0.130
511,-0.035,0.120
512,-0.045,0.115
513,-0.045,0.115
514,-0.045,0.125
515,-0.025,0.140
516,-0.020,0.150
517,-0.025,0.130
518,-0.040,0.130
519,-0.040,0.120
520,-0.035,0.130
521,-0.025,0.135
522,-0.020,0.130
523,-0.030,0.120
524,-0.040,0.105
525,-0.035,0.115
526,-0.035,0.130
527,-0.030,0.140
528,-0.025,0.130
529,-0.040,0.115
530,-0.060,0.115
531,-0.070,0.120
532,-0.045,0.130
533,-0.040,0.140
534,-0.030,0.135
535,-0.040,0.125
536,-0.055,0.110
537,-0.055,0.110
538,-0.050,0.125
539,-0.030,0.135
540,-0.035,0.125
541,-0.040,0.110
542,-0.055,0.120
543,-0.055,0.120
544,-0.055,0.145
545,-0.030,0.155
546,-0.040,0.150
547,-0.050,0.135
548,-0.055,0.125
549,-0.055,0.120
550,-0.050,0.125
551,-0.040,0.140
552,-0.055,0.130
553,-0.050,0.120
554,-0.060,0.115
555,-0.060,0.110
556,-0.065,0.120
557,-0.050,0.140
558,-0.050,0.125
559,-0.050,0.110
560,-0.070,0.095
561,-0.075,0.115
562,-0.060,0.120
563,-0.045,0.120
564,-0.050,0.105
565,-0.070,0.100
566,-0.075,0.090
567,-0.065,0.110
568,-0.050,0.120
569,-0.045,0.145
570,-0.030,0.135
571,-0.050,0.120
572,-0.060,0.120
573,-0.060,0.110
574,-0.060,0.125
575,-0.035,0.135
576,-0.035,0.140
577,-0.045,0.120
578,-0.070,0.105
579,-0.065,0.115
580,-0.050,0.130
581,-0.040,0.155
582,-0.040,0.140
583,-0.040,0.120
584,-0.060,0.115
585,-0.055,0.125
586,-0.060,0.140
587,-0.040,0.145
588,-0.040,0.150
589,-0.040,0.130
590,-0.055,0.120
591,-0.065,0.130
592,-0.055,0.135
593,-0.035,0.145
594,-0.035,0.135
595,-0.045,0.125
596,-0.055,0.135
597,-0.050,0.130
598,-0.045,0.135
599,-0.035,0.140
600,-0.030,0.125
601,-0.040,0.095
602,-0.050,0.105
603,-0.050,0.105
604,-0.045,0.115
605,-0.025,0.130
606,-0.030,0.125
607,-0.030,0.120
608,-0.045,0.115
609,-0.055,0.115
610,-0.055,0.125
611,-0.020,0.140
612,-0.025,0.120
613,-0.030,0.120
614,-0.050,0.100
615,-0.065,0.105
616,-0.035,0.125
617,-0.020,0.130
618,-0.030,0.130
619,-0.030,0.105
620,-0.035,0.100
621,-0.040,0.115
622,-0.035,0.130
623,-0.030,0.140
624,-0.030,0.140
625,-0.055,0.125
626,-0.055,0.115
627,-0.065,0.120
628,-0.040,0.135
629,-0.015,0.155
630,-0.030,0.155
631,-0.030,0.130
632,-0.035,0.130
633,-0.045,0.115
634,-0.035,0.135
635,-0.025,0.145
636,-0.010,0.125
637,-0.025,0.095
638,-0.040,0.095
639,-0.035,0.100
640,-0.025,0.110
641,-0.015,0.125
642,-0.025,0.130
643,-0.020,0.105
644,-0.030,0.100
645,-0.035,0.095
646,-0.025,0.110
647,-0.015,0.115
648,0.005,0.125
649,-0.015,0.120
650,-0.030,0.110
651,-0.030,0.120
652,-0.020,0.130
653,-0.010,0.140
654,0.000,0.135
655,-0.010,0.115
656,-0.020,0.115
657,-0.025,0.110
658,-0.010,0.130
659,0.000,0.130
660,0.005,0.130
661,-0.005,0.120
662,-0.025,0.100
663,-0.030,0.110
664,-0.010,0.125
665,0.005,0.150
666,-0.015,0.135
667,-0.010,0.115
668,-0.025,0.100
669,-0.020,0.105
670,-0.015,0.110
671,-0.015,0.110
672,0.005,0.110
673,0.005,0.095
674,-0.005,0.100
675,-0.005,0.100
676,0.015,0.115
677,0.005,0.130
678,0.030,0.135
679,0.000,0.135
680,0.000,0.135
681,-0.005,0.145
682,-0.005,0.160
683,0.010,0.170
684,0.015,0.170
685,0.000,0.150
686,0.010,0.145
687,0.025,0.155
688,0.040,0.155
689,0.075,0.150
690,0.070,0.135
691,0.070,0.120
692,0.070,0.105
693,0.070,0.125
694,0.065,0.135
695,0.085,0.145
696,0.080,0.130
697,0.075,0.120
698,0.045,0.105
699,0.020,0.095
700,0.030,0.110
701,0.035,0.130
702,0.035,0.120
703,0.035,0.115
704,0.000,0.105
705,-0.005,0.120
706,0.000,0.110
707,0.020,0.120
708,0.030,0.115
709,0.020,0.100
710,0.010,0.095
711,0.005,0.090
712,0.015,0.125
713,0.030,0.130
714,0.040,0.125
715,0.035,0.115
716,-0.005,0.110
717,0.015,0.105
718,0.040,0.115
719,0.050,0.135
720,0.055,0.125
721,0.050,0.115
722,0.045,0.100
723,0.040,0.125
724,0.050,0.150
725,0.090,0.190
726,0.105,0.195
727,0.110,0.165
728,0.135,0.110
729,0.155,0.035
730,0.210,-0.065
731,0.245,-0.160
732,0.305,-0.285
733,0.405,-0.440
734,0.500,-0.610
735,0.630,-0.765
736,0.770,-0.885
737,0.925,-0.920
738,1.050,-0.915
739,1.160,-0.865
740,1.270,-0.800
741,1.375,-0.665
742,1.465,-0.480
743,1.465,-0.290
744,1.370,-0.150
745,1.200,-0.045
746,0.985,0.020
747,0.780,0.050
748,0.615,0.045
749,0.475,0.040
750,0.345,0.035
751,0.240,0.040
752,0.165,0.060
753,0.155,0.090
754,0.150,0.115
755,0.160,0.125
756,0.150,0.125
757,0.110,0.125
758,0.070,0.140
759,0.055,0.135
760,0.040,0.160
761,0.045,0.170
762,0.040,0.160
763,0.020,0.145
764,0.000,0.140
765,0.010,0.140
766,-0.010,0.160
767,0.000,0.170
768,0.005,0.160
769,-0.010,0.140
770,-0.005,0.135
771,-0.020,0.155
772,-0.010,0.155
773,0.005,0.170
774,-0.010,0.170
775,-0.010,0.160
776,-0.015,0.150
777,-0.020,0.160
778,-0.030,0.170
779,0.010,0.175
780,0.015,0.165
781,0.000,0.150
782,-0.005,0.145
783,-0.020,0.155
784,0.000,0.165
785,0.010,0.180
786,0.020,0.180
787,0.005,0.165
788,-0.015,0.155
789,-0.010,0.145
790,0.010,0.160
791,0.030,0.175
792,0.025,0.170
793,0.030,0.165
794,0.010,0.135
795,0.015,0.145
796,0.015,0.160
797,0.030,0.165
798,0.050,0.155
799,0.045,0.150
800,0.035,0.135
801,0.045,0.145
802,0.055,0.150
803,0.080,0.160
804,0.070,0.160
805,0.060,0.135
806,0.060,0.125
807,0.055,0.135
808,0.095,0.140
809,0.110,0.145
810,0.125,0.130
811,0.100,0.110
812,0.105,0.090
813,0.115,0.095
814,0.130,0.110
815,0.145,0.115
816,0.170,0.110
817,0.160,0.090
818,0.175,0.080
819,0.175,0.080
820,0.195,0.080
821,0.220,0.085
822,0.230,0.075
823,0.230,0.045
824,0.230,0.040
825,0.230,0.045
826,0.255,0.050
827,0.275,0.055
828,0.290,0.035
829,0.295,0.030
830,0.285,0.005
831,0.280,0.015
832,0.310,0.025
833,0.330,0.025
834,0.340,0.025
835,0.335,0.005
836,0.350,0.000
837,0.355,-0.005
838,0.355,0.015
839,0.375,0.045
840,0.375,0.040
841,0.360,0.030
842,0.340,0.020
843,0.330,0.050
844,0.335,0.060
845,0.335,0.085
846,0.325,0.090
847,0.310,0.085
848,0.270,0.080
849,0.240,0.095
850,0.235,0.115
851,0.230,0.120
852,0.195,0.115
853,0.180,0.110
854,0.145,0.110
855,0.110,0.110
856,0.115,0.130
857,0.110,0.145
858,0.110,0.130
859,0.075,0.110
860,0.050,0.095
861,0.020,0.120
862,0.020,0.140
863,0.025,0.155
864,0.010,0.160
865,0.000,0.140
866,-0.020,0.115
867,-0.025,0.125
868,-0.005,0.140
869,-0.005,0.145
870,-0.005,0.140
871,-0.010,0.135
872,-0.035,0.110
873,-0.025,0.130
874,-0.015,0.140
875,-0.015,0.145
876,-0.005,0.140
877,-0.010,0.120
878,-0.035,0.110
879,-0.035,0.130
880,-0.020,0.145
881,-0.015,0.140
882,-0.010,0.130
883,-0.020,0.140
884,-0.040,0.115
885,-0.045,0.130
886,-0.045,0.150
887,-0.025,0.155
888,-0.015,0.165
889,-0.030,0.155
890,-0.045,0.135
891,-0.055,0.130
892,-0.035,0.140
893,-0.025,0.160
894,-0.030,0.155
895,-0.030,0.145
896,-0.045,0.140
897,-0.060,0.150
898,-0.045,0.175
899,-0.020,0.180
900,-0.040,0.170
901,-0.030,0.150
902,-0.040,0.145
903,-0.050,0.155
904,-0.035,0.160
905,-0.015,0.180
906,-0.015,0.165
907,-0.030,0.155
908,-0.040,0.150
909,-0.045,0.145
910,-0.040,0.160
911,-0.030,0.160
912,-0.015,0.155
913,-0.040,0.145
914,-0.035,0.135
915,-0.040,0.145
916,-0.035,0.155
917,-0.030,0.165
918,-0.030,0.150
919,-0.040,0.140
920,-0.050,0.135
921,-0.055,0.140
922,-0.045,0.145
923,-0.025,0.150
924,-0.030,0.145
925,-0.035,0.130
926,-0.050,0.130
927,-0.055,0.130
928,-0.065,0.155
929,-0.040,0.160
930,-0.035,0.150
931,-0.050,0.120
932,-0.060,0.125
933,-0.060,0.135
934,-0.055,0.145
935,-0.040,0.145
936,-0.035,0.145
937,-0.060,0.130
938,-0.050,0.125
939,-0.055,0.135
940,-0.065,0.155
941,-0.030,0.160
942,-0.040,0.155
943,-0.050,0.140
944,-0.065,0.140
945,-0.055,0.130
946,-0.040,0.145
947,-0.020,0.150
948,-0.030,0.145
949,-0.040,0.135
950,-0.050,0.130
951,-0.060,0.140
952,-0.075,0.145
953,-0.050,0.155
954,-0.040,0.145
955,-0.035,0.135
956,-0.050,0.140
957,-0.065,0.140
958,-0.040,0.150
959,-0.045,0.150
960,-0.020,0.150
961,-0.030,0.130
962,-0.050,0.125
963,-0.050,0.125
964,-0.050,0.135
965,-0.025,0.135
966,-0.025,0.145
967,-0.025,0.125
968,-0.045,0.120
969,-0.045,0.125
970,-0.040,0.135
971,-0.025,0.155
972,-0.025,0.130
973,-0.035,0.130
974,-0.050,0.120
975,-0.055,0.115
976,-0.040,0.135
977,-0.025,0.140
978,-0.015,0.140
979,-0.015,0.135
980,-0.040,0.125
981,-0.045,0.125
982,-0.040,0.145
983,-0.025,0.155
984,-0.015,0.145
985,-0.030,0.130
986,-0.060,0.120
987,-0.065,0.135
988,-0.040,0.140
989,-0.020,0.155
990,-0.015,0.155
991,-0.020,0.140
992,-0.035,0.125
993,-0.040,0.125
994,-0.030,0.140
995,-0.025,0.140
996,-0.015,0.140
997,-0.020,0.130
998,-0.035,0.120
999,-0.035,0.140
1000,-0.005,0.140
1001,-0.005,0.135
1002,-0.025,0.120
1003,-0.040,0.105
1004,-0.040,0.135
1005,-0.025,0.135
1006,-0.015,0.140
1007,-0.015,0.130
1008,-0.015,0.120
1009,-0.035,0.105
1010,-0.030,0.110
1011,-0.030,0.115
1012,-0.015,0.130
1013,-0.010,0.130
1014,-0.005,0.115
1015,-0.025,0.100
1016,-0.030,0.115
1017,-0.030,0.135
1018,-0.020,0.140
1019,-0.020,0.130
1020,-0.030,0.115
1021,-0.035,0.110
1022,-0.035,0.115
1023,-0.040,0.125
1024,-0.025,0.135
1025,-0.020,0.120
1026,-0.020,0.120
1027,-0.035,0.115
1028,-0.025,0.125
1029,-0.025,0.135
1030,-0.005,0.150
1031,-0.010,0.145
1032,-0.015,0.130
1033,-0.025,0.115
1034,-0.025,0.110
1035,-0.015,0.125
1036,-0.005,0.130
1037,-0.005,0.115
1038,-0.005,0.090
1039,-0.015,0.090
1040,-0.030,0.095
1041,-0.010,0.100
1042,-0.010,0.130
1043,-0.010,0.110
1044,-0.020,0.100
1045,-0.020,0.095
1046,-0.020,0.095
1047,-0.010,0.110
1048,0.015,0.120
1049,0.020,0.135
1050,0.000,0.100
1051,-0.010,0.105
1052,-0.015,0.110
1053,0.000,0.120
1054,0.010,0.125
1055,0.005,0.125
1056,0.005,0.110
1057,-0.015,0.100
1058,-0.015,0.110
1059,0.000,0.110
1060,0.010,0.145
1061,0.015,0.135
1062,0.000,0.110
1063,-0.005,0.105
1064,-0.005,0.120
1065,0.000,0.130
1066,0.005,0.120
1067,0.010,0.130
1068,-0.010,0.110
1069,-0.015,0.095
1070,-0.020,0.110
1071,0.005,0.120
1072,0.005,0.135
1073,0.015,0.125
1074,0.025,0.105
1075,0.010,0.095
1076,-0.020,0.100
1077,0.015,0.120
1078,0.030,0.115
1079,0.030,0.115
1080,0.005,0.100
1081,0.005,0.085
1082,0.005,0.090
1083,0.005,0.100
1084,0.025,0.125
1085,0.020,0.130
1086,0.020,0.125
1087,0.000,0.130
1088,0.010,0.145
1089,-0.005,0.165
1090,0.020,0.165
1091,0.015,0.160
1092,-0.010,0.160
1093,-0.010,0.155
1094,-0.010,0.155
1095,0.025,0.165
1096,0.035,0.185
1097,0.065,0.155
1098,0.060,0.130
1099,0.055,0.120
1100,0.060,0.125
1101,0.065,0.130
1102,0.080,0.135
1103,0.080,0.130
1104,0.065,0.125
1105,0.060,0.110
1106,0.050,0.110
1107,0.050,0.130
1108,0.050,0.125
1109,0.040,0.120
1110,0.030,0.115
1111,0.025,0.105
1112,0.005,0.110
1113,0.015,0.115
1114,0.025,0.130
1115,0.015,0.115
1116,0.005,0.110
1117,0.000,0.100
1118,-0.020,0.105
1119,0.005,0.125
1120,0.020,0.130
1121,0.015,0.120
1122,0.015,0.105
1123,0.005,0.090
1124,-0.005,0.095
1125,0.010,0.110
1126,0.010,0.115
1127,0.030,0.115
1128,0.030,0.095
1129,0.010,0.095
1130,0.005,0.095
1131,0.010,0.110
1132,0.025,0.125
1133,0.055,0.110
1134,0.025,0.135
1135,0.020,0.130
1136,0.035,0.165
1137,0.050,0.170
1138,0.065,0.190
1139,0.100,0.160
1140,0.115,0.100
1141,0.140,-0.005
1142,0.145,-0.085
1143,0.195,-0.180
1144,0.265,-0.275
1145,0.360,-0.405
1146,0.455,-0.560
1147,0.540,-0.715
1148,0.660,-0.865
1149,0.795,-0.955
1150,0.935,-0.975
1151,1.050,-0.940
1152,1.145,-0.890
1153,1.235,-0.830
1154,1.345,-0.710
1155,1.410,-0.530
1156,1.410,-0.355
1157,1.335,-0.215
1158,1.180,-0.085
1159,0.990,-0.020
1160,0.790,0.045
1161,0.625,0.050
1162,0.475,0.050
1163,0.335,0.010
1164,0.220,0.005
1165,0.140,0.020
1166,0.115,0.060
1167,0.120,0.085
1168,0.120,0.110
1169,0.120,0.110
1170,0.100,0.110
1171,0.075,0.105
1172,0.065,0.125
1173,0.045,0.135
1174,0.045,0.160
1175,0.030,0.140
1176,0.015,0.130
1177,-0.010,0.130
1178,-0.005,0.150
1179,-0.005,0.155
1180,0.005,0.175
1181,-0.005,0.165
1182,-0.015,0.155
1183,-0.025,0.150
1184,-0.035,0.135
1185,-0.035,0.145
1186,-0.015,0.165
1187,-0.010,0.160
1188,-0.020,0.150
1189,-0.030,0.135
1190,-0.035,0.140
1191,-0.025,0.170
1192,-0.010,0.170
1193,-0.015,0.165
1194,-0.015,0.155
1195,-0.030,0.135
1196,-0.045,0.135
1197,-0.045,0.150
1198,-0.015,0.155
1199,-0.020,0.155
1200,-0.030,0.135
1201,-0.035,0.130
1202,-0.030,0.140
1203,-0.040,0.145
1204,-0.005,0.165
1205,-0.010,0.150
1206,-0.035,0.140
1207,-0.015,0.120
1208,-0.030,0.140
1209,-0.025,0.140
1210,-0.010,0.145
1211,0.000,0.130
1212,-0.010,0.130
1213,-0.010,0.105
1214,0.005,0.115
1215,0.005,0.120
1216,0.005,0.125
1217,0.025,0.120
1218,0.015,0.115
1219,0.005,0.095
1220,0.000,0.115
1221,0.010,0.115
1222,0.020,0.130
1223,0.045,0.125
1224,0.040,0.095
1225,0.030,0.080
1226,0.035,0.085
1227,0.040,0.095
1228,0.060,0.085
1229,0.075,0.075
1230,0.075,0.055
1231,0.060,0.040
1232,0.055,0.045
1233,0.075,0.050
1234,0.115,0.050
1235,0.125,0.030
1236,0.110,0.020
1237,0.105,0.000
1238,0.130,0.005
1239,0.145,0.020
1240,0.170,0.020
1241,0.185,0.000
1242,0.185,0.000
1243,0.190,-0.010
1244,0.185,-0.020
1245,0.215,-0.015
1246,0.230,-0.010
1247,0.245,-0.030
1248,0.250,-0.040
1249,0.235,-0.045
1250,0.240,-0.045
1251,0.265,-0.045
1252,0.280,-0.035
1253,0.305,-0.045
1254,0.285,-0.070
1255,0.300,-0.075
1256,0.310,-0.070
1257,0.315,-0.050
1258,0.340,-0.030
1259,0.355,-0.035
1260,0.345,-0.030
1261,0.330,-0.030
1262,0.315,-0.010
1263,0.325,0.010
1264,0.335,0.025
1265,0.315,0.020
1266,0.300,0.025
1267,0.280,0.025
1268,0.250,0.035
1269,0.260,0.055
1270,0.255,0.085
1271,0.240,0.075
1272,0.210,0.060
1273,0.180,0.050
1274,0.165,0.055
1275,0.145,0.080
1276,0.135,0.100
1277,0.135,0.105
1278,0.095,0.090
1279,0.070,0.085
1280,0.055,0.085
1281,0.040,0.105
1282,0.050,0.115
1283,0.045,0.085
1284,0.030,0.085
1285,0.005,0.080
1286,0.000,0.090
1287,0.010,0.100
1288,0.005,0.110
1289,0.015,0.105
1290,-0.005,0.085
1291,-0.035,0.085
1292,-0.045,0.085
1293,-0.040,0.090
1294,-0.025,0.110
1295,-0.010,0.095
1296,-0.035,0.090
1297,-0.070,0.080
1298,-0.065,0.090
1299,-0.040,0.100
1300,-0.040,0.115
1301,-0.040,0.100
1302,-0.040,0.090
1303,-0.060,0.080
1304,-0.055,0.080
1305,-0.065,0.105
1306,-0.030,0.120
1307,-0.020,0.115
1308,-0.045,0.090
1309,-0.050,0.070
1310,-0.045,0.090
1311,-0.050,0.100
1312,-0.020,0.110
1313,-0.020,0.115
1314,-0.030,0.110
1315,-0.050,0.115
1316,-0.050,0.105
1317,-0.045,0.120
1318,-0.050,0.135
1319,-0.040,0.110
1320,-0.030,0.095
1321,-0.045,0.105
1322,-0.055,0.100
1323,-0.055,0.115
1324,-0.025,0.120
1325,-0.030,0.115
1326,-0.040,0.105
1327,-0.055,0.090
1328,-0.050,0.095
1329,-0.040,0.115
1330,-0.040,0.125
1331,-0.030,0.115
1332,-0.045,0.095
1333,-0.040,0.085
1334,-0.050,0.100
1335,-0.035,0.115
1336,-0.025,0.110
1337,-0.025,0.110
1338,-0.030,0.095
1339,-0.060,0.085
1340,-0.070,0.095
1341,-0.050,0.105
1342,-0.020,0.120
1343,-0.020,0.115
1344,-0.025,0.105
1345,-0.040,0.085
1346,-0.045,0.095
1347,-0.030,0.105
1348,-0.005,0.110
1349,0.000,0.115
1350,-0.010,0.095
1351,-0.020,0.080
1352,-0.040,0.085
1353,-0.020,0.105
1354,-0.005,0.105
1355,-0.005,0.110
1356,-0.015,0.105
1357,-0.040,0.085
1358,-0.045,0.085
1359,-0.035,0.095
1360,-0.025,0.110
1361,0.000,0.115
1362,-0.015,0.105
1363,-0.035,0.090
1364,-0.050,0.105
1365,-0.030,0.115
1366,-0.015,0.120
1367,-0.010,0.110
1368,-0.015,0.095
1369,-0.035,0.075
1370,-0.035,0.090
1371,-0.035,0.100
1372,-0.015,0.105
1373,-0.020,0.095
1374,-0.015,0.080
1375,-0.030,0.080
1376,-0.050,0.085
1377,-0.035,0.110
1378,-0.010,0.120
1379,0.000,0.110
1380,-0.020,0.095
1381,-0.030,0.075
1382,-0.045,0.090
1383,-0.020,0.085
1384,-0.010,0.100
1385,-0.005,0.110
1386,-0.015,0.100
1387,-0.035,0.075
1388,-0.035,0.085
1389,-0.030,0.100
1390,-0.005,0.100
1391,-0.015,0.095
1392,-0.010,0.070
1393,-0.040,0.060
1394,-0.040,0.075
1395,-0.045,0.090
1396,-0.050,0.100
1397,-0.035,0.095
1398,-0.035,0.060
1399,-0.065,0.055
1400,-0.055,0.065
1401,-0.055,0.075
1402,-0.030,0.105
1403,-0.020,0.090
1404,-0.040,0.075
1405,-0.045,0.075
1406,-0.040,0.070
1407,-0.040,0.085
1408,-0.035,0.100
1409,-0.025,0.085
1410,-0.035,0.075
1411,-0.040,0.065
1412,-0.050,0.075
1413,-0.040,0.090
1414,-0.025,0.095
1415,-0.030,0.075
1416,-0.025,0.070
1417,-0.040,0.045
1418,-0.065,0.070
1419,-0.050,0.080
1420,-0.020,0.085
1421,-0.015,0.075
1422,-0.030,0.065
1423,-0.035,0.050
1424,-0.050,0.070
1425,-0.035,0.080
1426,-0.020,0.090
1427,-0.025,0.075
1428,-0.035,0.065
1429,-0.060,0.045
1430,-0.065,0.050
1431,-0.045,0.060
1432,-0.025,0.085
1433,-0.030,0.085
1434,-0.035,0.065
1435,-0.060,0.055
1436,-0.055,0.065
1437,-0.040,0.075
1438,-0.030,0.085
1439,-0.035,0.070
1440,-0.035,0.060
1441,-0.035,0.050
1442,-0.045,0.060
1443,-0.050,0.065
1444,-0.030,0.090
1445,-0.015,0.085
1446,-0.040,0.075
1447,-0.060,0.065
1448,-0.055,0.070
1449,-0.040,0.080
1450,-0.035,0.095
1451,-0.035,0.090
1452,-0.045,0.075
1453,-0.050,0.070
1454,-0.050,0.075
1455,-0.040,0.085
1456,-0.020,0.085
1457,-0.030,0.075
1458,-0.040,0.060
1459,-0.045,0.045
1460,-0.050,0.070
1461,-0.030,0.080
1462,-0.020,0.090
1463,-0.020,0.075
1464,-0.035,0.075
1465,-0.040,0.055
1466,-0.045,0.055
1467,-0.035,0.075
1468,-0.025,0.080
1469,-0.020,0.080
1470,-0.025,0.065
1471,-0.035,0.060
1472,-0.050,0.070
1473,-0.040,0.070
1474,-0.045,0.100
1475,-0.020,0.085
1476,-0.025,0.065
1477,-0.030,0.050
1478,-0.045,0.070
1479,-0.040,0.075
1480,-0.015,0.085
1481,-0.010,0.085
1482,-0.025,0.065
1483,-0.035,0.060
1484,-0.040,0.060
1485,-0.035,0.070
1486,-0.010,0.095
1487,-0.005,0.085
1488,-0.020,0.075
1489,-0.040,0.070
1490,-0.035,0.060
1491,-0.015,0.090
1492,-0.020,0.095
1493,-0.025,0.090
1494,-0.010,0.080
1495,-0.045,0.060
1496,-0.035,0.055
1497,-0.030,0.085
1498,-0.010,0.090
1499,-0.020,0.080
1500,-0.015,0.070
1501,-0.025,0.055
1502,-0.020,0.060
1503,-0.020,0.075
1504,-0.005,0.080
1505,0.005,0.070
1506,-0.020,0.055
1507,-0.030,0.030
1508,-0.010,0.055
1509,0.005,0.075
1510,0.010,0.095
1511,0.010,0.120
1512,0.010,0.095
1513,-0.015,0.100
1514,-0.020,0.100
1515,-0.020,0.125
1516,-0.005,0.135
1517,-0.010,0.125
1518,0.010,0.120
1519,0.005,0.105
1520,0.030,0.115
1521,0.040,0.130
1522,0.055,0.135
1523,0.075,0.115
1524,0.075,0.105
1525,0.060,0.095
1526,0.050,0.105
1527,0.055,0.120
1528,0.075,0.135
1529,0.070,0.115
1530,0.060,0.100
1531,0.050,0.085
1532,0.030,0.095
1533,0.035,0.100
1534,0.040,0.110
1535,0.035,0.100
1536,0.020,0.085
1537,0.000,0.080
1538,-0.005,0.085
1539,0.005,0.105
1540,0.020,0.105
1541,0.015,0.120
1542,0.010,0.110
1543,0.010,0.100
1544,0.005,0.105
1545,0.010,0.110
1546,0.025,0.120
1547,0.020,0.095
1548,0.020,0.080
1549,-0.005,0.070
1550,-0.010,0.085
1551,0.015,0.080
1552,0.030,0.090
1553,0.035,0.090
1554,0.020,0.085
1555,0.020,0.075
1556,0.030,0.095
1557,0.050,0.120
1558,0.060,0.155
1559,0.075,0.165
1560,0.075,0.160
1561,0.075,0.135
1562,0.095,0.090
1563,0.135,0.040
1564,0.170,-0.050
1565,0.200,-0.175
1566,0.220,-0.295
1567,0.295,-0.445
1568,0.405,-0.590
1569,0.540,-0.730
1570,0.690,-0.850
1571,0.835,-0.935
1572,0.970,-0.940
1573,1.065,-0.900
1574,1.205,-0.800
1575,1.360,-0.685
1576,1.480,-0.530
1577,1.515,-0.370
1578,1.455,-0.225
1579,1.315,-0.120
1580,1.110,-0.010
1581,0.875,0.065
1582,0.700,0.090
1583,0.515,0.060
1584,0.335,0.020
1585,0.175,-0.005
1586,0.090,0.020
1587,0.080,0.060
1588,0.105,0.100
1589,0.115,0.095
1590,0.105,0.110
1591,0.075,0.085
1592,0.045,0.095
1593,0.035,0.120
1594,0.035,0.125
1595,0.025,0.105
1596,0.010,0.115
1597,-0.020,0.105
1598,-0.020,0.105
1599,-0.020,0.125
1600,-0.015,0.140
1601,-0.005,0.145
1602,-0.020,0.120
1603,-0.035,0.120
1604,-0.045,0.130
1605,-0.040,0.135
1606,-0.025,0.150
1607,-0.030,0.140
1608,-0.030,0.135
1609,-0.045,0.105
1610,-0.050,0.115
1611,-0.050,0.130
1612,-0.050,0.135
1613,-0.045,0.150
1614,-0.035,0.125
1615,-0.060,0.120
1616,-0.065,0.120
1617,-0.060,0.130
1618,-0.040,0.145
1619,-0.030,0.135
1620,-0.045,0.120
1621,-0.045,0.105
1622,-0.040,0.125
1623,-0.030,0.125
1624,-0.015,0.140
1625,-0.015,0.140
1626,-0.025,0.125
1627,-0.025,0.110
1628,-0.030,0.120
1629,-0.025,0.125
1630,-0.005,0.135
1631,0.010,0.130
1632,0.000,0.120
1633,-0.015,0.120
1634,-0.005,0.105
1635,-0.005,0.115
1636,0.020,0.120
1637,0.010,0.135
1638,0.015,0.105
1639,0.000,0.095
1640,0.010,0.090
1641,0.025,0.115
1642,0.055,0.110
1643,0.060,0.095
1644,0.055,0.085
1645,0.055,0.075
1646,0.055,0.085
1647,0.060,0.090
1648,0.090,0.110
1649,0.090,0.095
1650,0.095,0.070
1651,0.100,0.050
1652,0.085,0.060
1653,0.120,0.065
1654,0.145,0.075
1655,0.150,0.060
1656,0.145,0.040
1657,0.150,0.030
1658,0.150,0.030
1659,0.180,0.040
1660,0.200,0.025
1661,0.210,0.025
1662,0.220,0.010
1663,0.220,0.010
1664,0.220,0.000
1665,0.240,0.005
1666,0.255,0.015
1667,0.285,0.000
1668,0.275,-0.010
1669,0.265,-0.015
1670,0.275,-0.010
1671,0.290,0.010
1672,0.290,0.010
1673,0.310,-0.005
1674,0.320,-0.010
1675,0.300,-0.005
1676,0.290,-0.005
1677,0.315,0.015
1678,0.305,0.025
1679,0.320,0.025
1680,0.290,0.025
1681,0.280,0.020
1682,0.250,0.030
1683,0.245,0.050
1684,0.250,0.080
1685,0.225,0.075
1686,0.210,0.070
1687,0.175,0.070
1688,0.155,0.070
1689,0.145,0.095
1690,0.130,0.105
1691,0.120,0.105
1692,0.095,0.085
1693,0.065,0.095
1694,0.045,0.105
1695,0.045,0.120
1696,0.040,0.140
1697,0.030,0.135
1698,0.015,0.105
1699,-0.010,0.110
1700,-0.030,0.115
1701,-0.020,0.125
1702,-0.015,0.125
1703,-0.020,0.125
1704,-0.055,0.120
1705,-0.060,0.095
1706,-0.065,0.110
1707,-0.080,0.125
1708,-0.060,0.135
1709,-0.045,0.130
1710,-0.065,0.120
1711,-0.080,0.110
1712,-0.085,0.115
1713,-0.080,0.115
1714,-0.080,0.130
1715,-0.085,0.135
1716,-0.085,0.110
1717,-0.080,0.110
1718,-0.095,0.120
1719,-0.080,0.125
1720,-0.075,0.145
1721,-0.075,0.130
1722,-0.075,0.125
1723,-0.090,0.120
1724,-0.100,0.135
1725,-0.085,0.140
1726,-0.075,0.150
1727,-0.070,0.140
1728,-0.080,0.130
1729,-0.095,0.130
1730,-0.090,0.135
1731,-0.085,0.145
1732,-0.065,0.155
1733,-0.065,0.145
1734,-0.070,0.150
1735,-0.085,0.130
1736,-0.090,0.135
1737,-0.080,0.145
1738,-0.055,0.160
1739,-0.075,0.150
1740,-0.065,0.145
1741,-0.090,0.120
1742,-0.085,0.130
1743,-0.075,0.145
1744,-0.055,0.155
1745,-0.055,0.145
1746,-0.065,0.135
1747,-0.085,0.120
1748,-0.075,0.130
1749,-0.065,0.140
1750,-0.060,0.160
1751,-0.055,0.145
1752,-0.065,0.140
1753,-0.075,0.115
1754,-0.085,0.130
1755,-0.065,0.145
1756,-0.050,0.155
1757,-0.065,0.150
1758,-0.060,0.140
1759,-0.070,0.125
1760,-0.075,0.135
1761,-0.075,0.145
1762,-0.055,0.155
1763,-0.050,0.155
1764,-0.065,0.140
1765,-0.075,0.130
1766,-0.075,0.140
1767,-0.070,0.145
1768,-0.055,0.150
1769,-0.060,0.145
1770,-0.060,0.135
1771,-0.075,0.135
1772,-0.085,0.135
1773,-0.080,0.150
1774,-0.065,0.150
1775,-0.050,0.145
1776,-0.065,0.140
1777,-0.080,0.130
1778,-0.090,0.135
1779,-0.075,0.140
1780,-0.070,0.150
1781,-0.040,0.150
1782,-0.070,0.140
1783,-0.075,0.130
1784,-0.085,0.135
1785,-0.075,0.150
1786,-0.060,0.155
1787,-0.045,0.150
1788,-0.060,0.140
1789,-0.090,0.125
1790,-0.090,0.130
1791,-0.075,0.140
1792,-0.055,0.155
1793,-0.055,0.145
1794,-0.060,0.145
1795,-0.070,0.145
1796,-0.065,0.145
1797,-0.060,0.155
1798,-0.070,0.160
1799,-0.060,0.150
1800,-0.055,0.145
1801,-0.070,0.120
1802,-0.085,0.135
1803,-0.075,0.150
1804,-0.065,0.160
1805,-0.055,0.160
1806,-0.075,0.130
1807,-0.085,0.120
1808,-0.085,0.140
1809,-0.080,0.145
1810,-0.065,0.155
1811,-0.065,0.135
1812,-0.075,0.135
1813,-0.085,0.115
1814,-0.080,0.130
1815,-0.070,0.125
1816,-0.070,0.145
1817,-0.080,0.155
1818,-0.070,0.115
1819,-0.080,0.125
1820,-0.095,0.120
1821,-0.070,0.140
1822,-0.055,0.145
1823,-0.055,0.130
1824,-0.065,0.115
1825,-0.085,0.120
1826,-0.095,0.120
1827,-0.075,0.135
1828,-0.075,0.145
1829,-0.065,0.135
1830,-0.075,0.115
1831,-0.080,0.115
1832,-0.085,0.120
1833,-0.070,0.125
1834,-0.060,0.140
1835,-0.055,0.130
1836,-0.070,0.110
1837,-0.095,0.105
1838,-0.080,0.120
1839,-0.075,0.135
1840,-0.055,0.140
1841,-0.055,0.140
1842,-0.075,0.120
1843,-0.075,0.105
1844,-0.075,0.115
1845,-0.075,0.120
1846,-0.065,0.140
1847,-0.065,0.120
1848,-0.070,0.115
1849,-0.095,0.105
1850,-0.090,0.120
1851,-0.075,0.135
1852,-0.065,0.150
1853,-0.075,0.130
1854,-0.075,0.130
1855,-0.085,0.115
1856,-0.090,0.130
1857,-0.075,0.130
1858,-0.060,0.150
1859,-0.055,0.140
1860,-0.055,0.120
1861,-0.075,0.130
1862,-0.070,0.115
1863,-0.065,0.130
1864,-0.055,0.135
1865,-0.065,0.130
1866,-0.045,0.125
1867,-0.065,0.120
1868,-0.075,0.110
1869,-0.065,0.115
1870,-0.045,0.125
1871,-0.040,0.115
1872,-0.045,0.115
1873,-0.070,0.105
1874,-0.065,0.120
1875,-0.060,0.130
1876,-0.035,0.155
1877,-0.035,0.130
1878,-0.045,0.115
1879,-0.065,0.105
1880,-0.080,0.110
1881,-0.065,0.125
1882,-0.055,0.140
1883,-0.060,0.110
1884,-0.075,0.110
1885,-0.065,0.115
1886,-0.080,0.115
1887,-0.060,0.115
1888,-0.050,0.125
1889,-0.035,0.115
1890,-0.050,0.100
1891,-0.065,0.095
1892,-0.065,0.100
1893,-0.070,0.125
1894,-0.060,0.125
1895,-0.045,0.125
1896,-0.055,0.115
1897,-0.060,0.105
1898,-0.050,0.110
1899,-0.060,0.120
1900,-0.040,0.130
1901,-0.040,0.120
1902,-0.050,0.110
1903,-0.080,0.110
1904,-0.075,0.110
1905,-0.085,0.130
1906,-0.040,0.135
1907,-0.040,0.125
1908,-0.050,0.110
1909,-0.060,0.095
1910,-0.050,0.110
1911,-0.040,0.115
1912,-0.030,0.125
1913,-0.015,0.100
1914,-0.020,0.100
1915,-0.035,0.085
1916,-0.045,0.110
1917,-0.030,0.135
1918,-0.035,0.155
1919,-0.035,0.145
1920,-0.045,0.145
1921,-0.055,0.145
1922,-0.065,0.150
1923,-0.045,0.155
1924,-0.025,0.170
1925,-0.010,0.160
1926,0.010,0.130
1927,0.000,0.125
1928,0.010,0.115
1929,0.015,0.110
1930,0.025,0.135
1931,0.030,0.125
1932,0.010,0.115
1933,0.005,0.100
1934,0.010,0.120
1935,0.015,0.135
1936,0.020,0.140
1937,0.015,0.120
1938,-0.005,0.105
1939,-0.020,0.095
1940,-0.035,0.105
1941,-0.025,0.120
1942,-0.035,0.120
1943,-0.030,0.120
1944,-0.050,0.110
1945,-0.055,0.095
1946,-0.060,0.100
1947,-0.050,0.110
1948,-0.050,0.125
1949,-0.035,0.125
1950,-0.040,0.105
1951,-0.060,0.100
1952,-0.060,0.085
1953,-0.050,0.105
1954,-0.030,0.115
1955,-0.035,0.115
1956,-0.055,0.105
1957,-0.055,0.085
1958,-0.065,0.110
1959,-0.055,0.105
1960,-0.035,0.135
1961,-0.020,0.135
1962,-0.010,0.140
1963,-0.010,0.140
1964,-0.025,0.155
1965,0.020,0.145
1966,0.055,0.130
1967,0.095,0.025
1968,0.100,-0.085
1969,0.130,-0.195
1970,0.190,-0.315
1971,0.290,-0.430
1972,0.405,-0.570
1973,0.510,-0.725
1974,0.635,-0.860
1975,0.750,-0.945
1976,0.875,-0.965
1977,1.000,-0.900
1978,1.145,-0.815
1979,1.270,-0.695
1980,1.350,-0.545
1981,1.335,-0.365
1982,1.240,-0.195
1983,1.095,-0.060
1984,0.915,0.030
1985,0.700,0.050
1986,0.510,0.045
1987,0.335,0.000
1988,0.195,0.025
1989,0.105,0.045
1990,0.085,0.095
1991,0.080,0.110
1992,0.055,0.110
1993,0.045,0.110
1994,0.030,0.110
1995,0.005,0.125
1996,-0.015,0.150
1997,-0.030,0.145
1998,-0.055,0.140
1999,-0.070,0.130
2000,-0.080,0.140
2001,-0.075,0.155
2002,-0.070,0.165
2003,-0.065,0.175
2004,-0.075,0.150
2005,-0.110,0.145
2006,-0.100,0.145
2007,-0.095,0.160
2008,-0.085,0.170
2009,-0.085,0.165
2010,-0.095,0.150
2011,-0.110,0.140
2012,-0.110,0.155
2013,-0.105,0.150
2014,-0.100,0.160
2015,-0.090,0.160
2016,-0.100,0.150
2017,-0.115,0.150
2018,-0.115,0.145
2019,-0.115,0.155
2020,-0.100,0.175
2021,-0.100,0.155
2022,-0.090,0.145
2023,-0.110,0.125
2024,-0.110,0.140
2025,-0.100,0.165
2026,-0.100,0.170
2027,-0.090,0.150
2028,-0.080,0.140
2029,-0.095,0.125
2030,-0.090,0.130
2031,-0.085,0.145
2032,-0.060,0.165
2033,-0.055,0.150
2034,-0.065,0.145
2035,-0.070,0.135
2036,-0.065,0.135
2037,-0.060,0.140
2038,-0.035,0.150
2039,-0.030,0.140
2040,-0.025,0.130
2041,-0.040,0.115
2042,-0.045,0.125
2043,-0.025,0.120
2044,-0.005,0.135
2045,0.010,0.115
2046,0.005,0.100
2047,-0.005,0.095
2048,-0.005,0.090
2049,0.015,0.100
2050,0.035,0.105
2051,0.050,0.085
2052,0.050,0.080
2053,0.050,0.065
2054,0.060,0.065
2055,0.060,0.085
2056,0.100,0.095
2057,0.120,0.070
2058,0.125,0.050
2059,0.120,0.040
2060,0.135,0.045
2061,0.155,0.060
2062,0.190,0.055
2063,0.190,0.040
2064,0.195,0.025
2065,0.195,0.015
2066,0.195,0.010
2067,0.220,0.010
2068,0.245,0.025
2069,0.250,0.015
2070,0.250,0.005
2071,0.245,0.000
2072,0.260,0.005
2073,0.275,0.010
2074,0.295,0.020
2075,0.300,0.035
2076,0.290,0.025
2077,0.270,0.015
2078,0.260,0.035
2079,0.265,0.060
2080,0.260,0.075
2081,0.250,0.070
2082,0.220,0.075
2083,0.175,0.060
2084,0.160,0.085
2085,0.150,0.100
2086,0.145,0.115
2087,0.120,0.110
2088,0.090,0.105
2089,0.055,0.095
2090,0.025,0.100
2091,0.010,0.105
2092,0.010,0.115
2093,-0.005,0.115
2094,-0.010,0.115
2095,-0.035,0.105
2096,-0.055,0.100
2097,-0.045,0.115
2098,-0.050,0.130
2099,-0.050,0.120
2100,-0.070,0.125
2101,-0.100,0.095
2102,-0.100,0.105
2103,-0.100,0.125
2104,-0.080,0.125
2105,-0.085,0.115
2106,-0.095,0.105
2107,-0.110,0.085
2108,-0.120,0.095
2109,-0.115,0.115
2110,-0.110,0.120
2111,-0.115,0.115
2112,-0.110,0.105
2113,-0.120,0.095
2114,-0.140,0.110
2115,-0.125,0.115
2116,-0.105,0.130
2117,-0.095,0.115
2118,-0.105,0.110
2119,-0.120,0.105
2120,-0.135,0.110
2121,-0.115,0.115
2122,-0.095,0.130
2123,-0.095,0.120
2124,-0.105,0.125
2125,-0.110,0.100
2126,-0.120,0.125
2127,-0.100,0.140
2128,-0.095,0.135
2129,-0.085,0.140
2130,-0.105,0.130
2131,-0.110,0.125
2132,-0.120,0.130
2133,-0.100,0.145
2134,-0.090,0.150
2135,-0.090,0.140
2136,-0.095,0.130
2137,-0.115,0.120
2138,-0.115,0.130
2139,-0.100,0.150
2140,-0.100,0.160
2141,-0.095,0.150
2142,-0.105,0.130
2143,-0.115,0.120
2144,-0.120,0.130
2145,-0.120,0.140
2146,-0.105,0.150
2147,-0.100,0.150
2148,-0.105,0.120
2149,-0.105,0.115
2150,-0.125,0.135
2151,-0.110,0.145
2152,-0.095,0.145
2153,-0.095,0.145
2154,-0.110,0.120
2155,-0.125,0.110
2156,-0.105,0.115
2157,-0.105,0.135
2158,-0.090,0.145
2159,-0.090,0.130
2160,-0.095,0.120
2161,-0.115,0.110
2162,-0.120,0.120
2163,-0.115,0.140
2164,-0.100,0.130
2165,-0.105,0.135
2166,-0.095,0.115
2167,-0.110,0.110
2168,-0.125,0.105
2169,-0.110,0.125
2170,-0.095,0.135
2171,-0.100,0.125
2172,-0.105,0.110
2173,-0.110,0.115
2174,-0.120,0.105
2175,-0.110,0.130
2176,-0.115,0.135
2177,-0.110,0.120
2178,-0.110,0.110
2179,-0.130,0.100
2180,-0.130,0.100
2181,-0.120,0.110
2182,-0.105,0.120
2183,-0.115,0.120
2184,-0.110,0.120
2185,-0.125,0.100
2186,-0.135,0.105
2187,-0.140,0.115
2188,-0.120,0.115
2189,-0.120,0.110
2190,-0.130,0.105
2191,-0.140,0.075
2192,-0.150,0.080
2193,-0.130,0.105
2194,-0.125,0.110
2195,-0.115,0.105
2196,-0.130,0.105
2197,-0.140,0.090
2198,-0.130,0.085
2199,-0.125,0.105
2200,-0.110,0.115
2201,-0.125,0.120
2202,-0.120,0.105
2203,-0.125,0.090
2204,-0.140,0.085
2205,-0.125,0.100
2206,-0.115,0.110
2207,-0.120,0.100
2208,-0.120,0.085
2209,-0.135,0.075
2210,-0.125,0.090
2211,-0.120,0.105
2212,-0.105,0.120
2213,-0.105,0.105
2214,-0.125,0.085
2215,-0.135,0.070
2216,-0.125,0.085
2217,-0.135,0.090
2218,-0.115,0.105
2219,-0.110,0.095
2220,-0.135,0.090
2221,-0.140,0.070
2222,-0.150,0.070
2223,-0.130,0.090
2224,-0.120,0.090
2225,-0.110,0.100
2226,-0.125,0.085
2227,-0.140,0.060
2228,-0.140,0.070
2229,-0.135,0.085
2230,-0.120,0.085
2231,-0.115,0.085
2232,-0.120,0.075
2233,-0.135,0.075
2234,-0.155,0.080
2235,-0.145,0.095
2236,-0.105,0.095
2237,-0.110,0.090
2238,-0.130,0.085
2239,-0.145,0.075
2240,-0.140,0.075
2241,-0.130,0.085
2242,-0.120,0.090
2243,-0.120,0.090
2244,-0.125,0.080
2245,-0.145,0.065
2246,-0.140,0.090
2247,-0.135,0.085
2248,-0.115,0.090
2249,-0.115,0.080
2250,-0.120,0.070
2251,-0.135,0.055
2252,-0.125,0.075
2253,-0.125,0.080
2254,-0.115,0.085
2255,-0.115,0.090
2256,-0.120,0.065
2257,-0.140,0.060
2258,-0.140,0.070
2259,-0.130,0.090
2260,-0.130,0.090
2261,-0.110,0.085
2262,-0.125,0.070
2263,-0.130,0.065
2264,-0.140,0.065
2265,-0.130,0.075
2266,-0.110,0.080
2267,-0.110,0.075
2268,-0.120,0.055
2269,-0.140,0.055
2270,-0.140,0.060
2271,-0.130,0.060
2272,-0.110,0.080
2273,-0.105,0.070
2274,-0.110,0.060
2275,-0.130,0.045
2276,-0.160,0.050
2277,-0.135,0.065
2278,-0.125,0.080
2279,-0.100,0.075
2280,-0.115,0.040
2281,-0.145,0.040
2282,-0.130,0.060
2283,-0.120,0.065
2284,-0.100,0.075
2285,-0.105,0.065
2286,-0.100,0.050
2287,-0.120,0.040
2288,-0.125,0.050
2289,-0.120,0.055
2290,-0.100,0.065
2291,-0.090,0.070
2292,-0.100,0.055
2293,-0.115,0.030
2294,-0.130,0.045
2295,-0.120,0.040
2296,-0.095,0.065
2297,-0.100,0.055
2298,-0.115,0.035
2299,-0.125,0.035
2300,-0.110,0.040
2301,-0.100,0.045
2302,-0.085,0.065
2303,-0.095,0.055
2304,-0.090,0.060
2305,-0.095,0.060
2306,-0.100,0.070
2307,-0.095,0.095
2308,-0.095,0.100
2309,-0.095,0.095
2310,-0.095,0.100
2311,-0.095,0.085
2312,-0.085,0.085
2313,-0.060,0.090
2314,-0.045,0.110
2315,-0.030,0.100
2316,-0.020,0.075
2317,-0.025,0.055
2318,-0.025,0.070
2319,-0.020,0.085
2320,-0.010,0.090
2321,-0.010,0.075
2322,-0.010,0.075
2323,-0.045,0.055
2324,-0.050,0.065
2325,-0.035,0.060
2326,-0.035,0.070
2327,-0.035,0.065
2328,-0.050,0.055
2329,-0.065,0.040
2330,-0.090,0.045
2331,-0.075,0.060
2332,-0.045,0.065
2333,-0.045,0.065
2334,-0.055,0.045
2335,-0.075,0.045
2336,-0.065,0.045
2337,-0.070,0.050
2338,-0.060,0.055
2339,-0.040,0.055
2340,-0.055,0.040
2341,-0.055,0.040
2342,-0.060,0.025
2343,-0.060,0.040
2344,-0.035,0.055
2345,-0.040,0.050
2346,-0.045,0.035
2347,-0.045,0.050
2348,-0.045,0.065
2349,-0.030,0.090
2350,0.000,0.115
2351,0.005,0.090
2352,0.025,0.045
2353,0.030,-0.040
2354,0.070,-0.145
2355,0.115,-0.250
2356,0.190,-0.380
2357,0.265,-0.520
2358,0.395,-0.680
2359,0.520,-0.835
2360,0.665,-0.940
2361,0.840,-0.960
2362,0.990,-0.925
2363,1.135,-0.845
2364,1.265,-0.765
2365,1.370,-0.645
2366,1.430,-0.485
2367,1.400,-0.335
2368,1.275,-0.200
2369,1.060,-0.090
2370,0.815,-0.025
2371,0.600,-0.015
2372,0.400,-0.010
2373,0.230,-0.030
2374,0.105,-0.030
2375,0.030,-0.015
2376,0.005,-0.010
2377,-0.005,0.000
2378,-0.010,0.020
2379,0.000,0.050
2380,-0.005,0.055
2381,-0.015,0.060
2382,-0.045,0.050
2383,-0.075,0.055
2384,-0.095,0.060
2385,-0.100,0.075
2386,-0.095,0.090
2387,-0.095,0.090
2388,-0.095,0.070
2389,-0.125,0.060
2390,-0.125,0.080
2391,-0.125,0.080
2392,-0.110,0.095
2393,-0.105,0.105
2394,-0.115,0.095
2395,-0.135,0.070
2396,-0.135,0.080
2397,-0.125,0.100
2398,-0.110,0.110
2399,-0.115,0.080
2400,-0.115,0.080
2401,-0.135,0.065
2402,-0.140,0.085
2403,-0.130,0.095
2404,-0.115,0.115
2405,-0.125,0.105
2406,-0.115,0.080
2407,-0.135,0.080
2408,-0.125,0.085
2409,-0.120,0.095
2410,-0.105,0.105
2411,-0.105,0.095
2412,-0.110,0.090
2413,-0.105,0.075
2414,-0.110,0.080
2415,-0.095,0.095
2416,-0.085,0.105
2417,-0.085,0.100
2418,-0.080,0.080
2419,-0.080,0.060
2420,-0.090,0.075
2421,-0.075,0.080
2422,-0.060,0.090
2423,-0.050,0.080
2424,-0.050,0.055
2425,-0.060,0.050
2426,-0.075,0.060
2427,-0.045,0.060
2428,-0.050,0.055
2429,-0.035,0.060
2430,-0.045,0.040
2431,-0.045,0.030
2432,-0.045,0.040
2433,-0.020,0.045
2434,0.000,0.060
2435,0.005,0.040
2436,0.010,0.020
2437,0.005,0.010
2438,0.005,0.005
2439,0.030,0.010
2440,0.055,0.025
2441,0.075,0.010
2442,0.070,0.000
2443,0.075,-0.020
2444,0.080,0.000
2445,0.100,-0.005
2446,0.130,0.005
2447,0.140,-0.010
2448,0.140,-0.015
2449,0.140,-0.040
2450,0.155,-0.030
2451,0.175,-0.025
2452,0.200,-0.025
2453,0.210,-0.035
2454,0.205,-0.045
2455,0.195,-0.060
2456,0.190,-0.045
2457,0.210,-0.040
2458,0.240,-0.025
2459,0.255,-0.030
2460,0.245,-0.030
2461,0.245,-0.040
2462,0.230,-0.020
2463,0.240,-0.005
2464,0.250,0.010
2465,0.240,0.010
2466,0.225,0.010
2467,0.195,0.000
2468,0.175,0.010
2469,0.160,0.035
2470,0.140,0.050
2471,0.130,0.050
2472,0.115,0.055
2473,0.080,0.045
2474,0.055,0.060
2475,0.040,0.065
2476,0.045,0.090
2477,0.030,0.075
2478,0.005,0.070
2479,-0.020,0.055
2480,-0.045,0.075
2481,-0.045,0.075
2482,-0.045,0.095
2483,-0.060,0.090
2484,-0.080,0.075
2485,-0.085,0.075
2486,-0.090,0.075
2487,-0.080,0.090
2488,-0.090,0.100
2489,-0.090,0.105
2490,-0.105,0.085
2491,-0.105,0.075
2492,-0.115,0.075
2493,-0.115,0.090
2494,-0.100,0.105
2495,-0.095,0.090
2496,-0.100,0.090
2497,-0.120,0.080
2498,-0.120,0.080
2499,-0.120,0.095
2500,-0.110,0.100
2501,-0.100,0.105
2502,-0.115,0.090
2503,-0.130,0.075
2504,-0.130,0.085
2505,-0.125,0.105
2506,-0.110,0.125
2507,-0.120,0.120
2508,-0.120,0.095
2509,-0.120,0.100
2510,-0.125,0.110
2511,-0.115,0.115
2512,-0.110,0.120
2513,-0.095,0.120
2514,-0.100,0.100
2515,-0.115,0.095
2516,-0.135,0.105
2517,-0.125,0.110
2518,-0.095,0.140
2519,-0.100,0.125
2520,-0.100,0.115
2521,-0.120,0.105
2522,-0.120,0.115
2523,-0.110,0.115
2524,-0.080,0.130
2525,-0.085,0.125
2526,-0.090,0.100
2527,-0.105,0.090
2528,-0.120,0.100
2529,-0.100,0.120
2530,-0.095,0.130
2531,-0.085,0.135
2532,-0.100,0.115
2533,-0.105,0.100
2534,-0.120,0.110
2535,-0.115,0.120
2536,-0.110,0.125
2537,-0.110,0.120
2538,-0.110,0.105
2539,-0.120,0.095
2540,-0.125,0.100
2541,-0.115,0.110
2542,-0.110,0.125
2543,-0.110,0.130
2544,-0.130,0.100
2545,-0.120,0.105
2546,-0.135,0.110
2547,-0.115,0.115
2548,-0.110,0.120
2549,-0.105,0.125
2550,-0.105,0.100
2551,-0.135,0.100
2552,-0.145,0.105
2553,-0.120,0.125
2554,-0.110,0.120
2555,-0.115,0.115
2556,-0.130,0.100
2557,-0.150,0.100
2558,-0.140,0.105
2559,-0.120,0.110
2560,-0.120,0.120
2561,-0.100,0.130
2562,-0.120,0.095
2563,-0.130,0.105
2564,-0.135,0.120
2565,-0.125,0.115
2566,-0.110,0.125
2567,-0.110,0.120
2568,-0.130,0.110
2569,-0.135,0.100
2570,-0.130,0.105
2571,-0.120,0.115
2572,-0.110,0.130
2573,-0.100,0.125
2574,-0.110,0.110
2575,-0.130,0.095
2576,-0.135,0.110
2577,-0.125,0.125
2578,-0.120,0.125
2579,-0.110,0.125
2580,-0.110,0.110
2581,-0.125,0.105
2582,-0.135,0.115
2583,-0.125,0.120
2584,-0.105,0.135
2585,-0.110,0.135
2586,-0.110,0.130
2587,-0.135,0.115
2588,-0.125,0.120
2589,-0.125,0.135
2590,-0.120,0.150
2591,-0.120,0.140
2592,-0.110,0.115
2593,-0.125,0.110
2594,-0.145,0.125
2595,-0.105,0.135
2596,-0.105,0.125
2597,-0.115,0.140
2598,-0.120,0.130
2599,-0.125,0.110
2600,-0.120,0.115
2601,-0.110,0.135
2602,-0.110,0.150
2603,-0.095,0.135
2604,-0.110,0.130
2605,-0.125,0.105
2606,-0.125,0.115
2607,-0.115,0.130
2608,-0.115,0.140
2609,-0.100,0.130
2610,-0.100,0.120
2611,-0.130,0.110
2612,-0.140,0.120
2613,-0.125,0.130
2614,-0.105,0.145
2615,-0.105,0.130
2616,-0.100,0.105
2617,-0.105,0.105
2618,-0.115,0.110
2619,-0.110,0.135
2620,-0.100,0.140
2621,-0.105,0.130
2622,-0.110,0.125
2623,-0.125,0.110
2624,-0.120,0.120
2625,-0.105,0.135
2626,-0.100,0.145
2627,-0.100,0.130
2628,-0.100,0.125
2629,-0.120,0.110
2630,-0.135,0.120
2631,-0.110,0.135
2632,-0.110,0.140
2633,-0.100,0.125
2634,-0.115,0.125
2635,-0.110,0.120
2636,-0.115,0.120
2637,-0.105,0.135
2638,-0.080,0.150
2639,-0.080,0.130
2640,-0.100,0.125
2641,-0.100,0.105
2642,-0.120,0.120
2643,-0.095,0.125
2644,-0.085,0.140
2645,-0.090,0.135
2646,-0.095,0.110
2647,-0.110,0.105
2648,-0.100,0.115
2649,-0.110,0.130
2650,-0.090,0.140
2651,-0.090,0.135
2652,-0.095,0.120
2653,-0.105,0.105
2654,-0.110,0.125
2655,-0.095,0.135
2656,-0.095,0.150
2657,-0.095,0.140
2658,-0.090,0.120
2659,-0.105,0.105
2660,-0.105,0.120
2661,-0.095,0.130
2662,-0.075,0.160
2663,-0.080,0.125
2664,-0.080,0.125
2665,-0.105,0.125
2666,-0.095,0.130
2667,-0.080,0.130
2668,-0.085,0.150
2669,-0.075,0.140
2670,-0.070,0.125
2671,-0.090,0.115
2672,-0.090,0.130
2673,-0.075,0.135
2674,-0.065,0.155
2675,-0.065,0.145
2676,-0.080,0.135
2677,-0.090,0.125
2678,-0.080,0.120
2679,-0.075,0.135
2680,-0.065,0.160
2681,-0.055,0.145
2682,-0.065,0.120
2683,-0.080,0.120
2684,-0.070,0.120
2685,-0.080,0.135
2686,-0.050,0.145
2687,-0.055,0.125
2688,-0.060,0.110
2689,-0.065,0.100
2690,-0.080,0.120
2691,-0.065,0.125
2692,-0.040,0.135
2693,-0.045,0.130
2694,-0.045,0.135
2695,-0.065,0.120
2696,-0.060,0.140
2697,-0.060,0.155
2698,-0.055,0.170
2699,-0.060,0.170
2700,-0.060,0.155
2701,-0.065,0.150
2702,-0.060,0.155
2703,-0.050,0.165
2704,-0.020,0.175
2705,0.005,0.150
2706,-0.005,0.130
2707,-0.010,0.130
2708,-0.020,0.140
2709,-0.005,0.140
2710,-0.010,0.150
2711,0.000,0.145
2712,-0.005,0.125
2713,-0.025,0.115
2714,-0.040,0.120
2715,-0.030,0.135
2716,-0.025,0.140
2717,-0.025,0.135
2718,-0.040,0.125
2719,-0.065,0.110
2720,-0.080,0.120
2721,-0.090,0.145
2722,-0.060,0.135
2723,-0.060,0.145
2724,-0.060,0.130
2725,-0.070,0.120
2726,-0.070,0.120
2727,-0.065,0.125
2728,-0.040,0.150
2729,-0.035,0.130
2730,-0.040,0.115
2731,-0.050,0.100
2732,-0.065,0.125
2733,-0.055,0.150
2734,-0.030,0.140
2735,-0.025,0.140
2736,-0.025,0.130
2737,-0.040,0.125
2738,-0.030,0.155
2739,-0.020,0.185
2740,0.000,0.200
2741,0.015,0.185
2742,0.035,0.150
2743,0.035,0.090
2744,0.065,0.000
2745,0.115,-0.085
2746,0.165,-0.185
2747,0.250,-0.305
2748,0.335,-0.460
2749,0.430,-0.605
2750,0.545,-0.745
2751,0.670,-0.850
2752,0.820,-0.900
2753,0.955,-0.905
2754,1.050,-0.855
2755,1.130,-0.785
2756,1.240,-0.665
2757,1.325,-0.485
2758,1.315,-0.305
2759,1.210,-0.155
2760,1.050,-0.060
2761,0.850,0.005
2762,0.650,0.035
2763,0.475,0.050
2764,0.340,0.045
2765,0.215,0.050
2766,0.125,0.070
2767,0.055,0.075
2768,0.045,0.110
2769,0.050,0.135
2770,0.050,0.160
2771,0.040,0.160
2772,0.015,0.150
2773,-0.030,0.150
2774,-0.040,0.150
2775,-0.055,0.175
2776,-0.060,0.175
2777,-0.070,0.180
2778,-0.100,0.165
2779,-0.100,0.145
2780,-0.130,0.155
2781,-0.135,0.175
2782,-0.110,0.190
2783,-0.125,0.180
2784,-0.135,0.170
2785,-0.145,0.160
2786,-0.170,0.165
2787,-0.160,0.180
2788,-0.140,0.180
2789,-0.130,0.180
2790,-0.140,0.175
2791,-0.150,0.165
2792,-0.155,0.170
2793,-0.135,0.185
2794,-0.130,0.205
2795,-0.140,0.205
2796,-0.140,0.170
2797,-0.140,0.160
2798,-0.135,0.180
2799,-0.125,0.190
2800,-0.115,0.205
2801,-0.100,0.205
2802,-0.110,0.180
2803,-0.135,0.165
2804,-0.125,0.175
2805,-0.105,0.185
2806,-0.110,0.195
2807,-0.100,0.185
2808,-0.095,0.175
2809,-0.105,0.160
2810,-0.100,0.170
2811,-0.095,0.180
2812,-0.070,0.185
2813,-0.055,0.170
2814,-0.070,0.155
2815,-0.095,0.155
2816,-0.075,0.145
2817,-0.060,0.160
2818,-0.050,0.165
2819,-0.040,0.180
2820,-0.040,0.150
2821,-0.055,0.135
2822,-0.035,0.130
2823,-0.035,0.160
2824,0.000,0.160
2825,0.020,0.155
2826,0.020,0.135
2827,0.010,0.125
2828,0.010,0.125
2829,0.035,0.140
2830,0.055,0.140
2831,0.065,0.130
2832,0.060,0.110
2833,0.070,0.095
2834,0.065,0.090
2835,0.090,0.100
2836,0.120,0.100
2837,0.130,0.105
2838,0.125,0.080
2839,0.125,0.055
2840,0.125,0.060
2841,0.135,0.070
2842,0.160,0.075
2843,0.185,0.060
2844,0.185,0.045
2845,0.175,0.020
2846,0.185,0.035
2847,0.195,0.055
2848,0.240,0.065
2849,0.255,0.060
2850,0.255,0.045
2851,0.220,0.040
2852,0.230,0.035
2853,0.230,0.070
2854,0.250,0.090
2855,0.245,0.075
2856,0.225,0.070
2857,0.210,0.065
2858,0.190,0.075
2859,0.195,0.095
2860,0.180,0.105
2861,0.170,0.120
2862,0.140,0.115
2863,0.105,0.110
2864,0.085,0.115
2865,0.075,0.125
2866,0.065,0.140
2867,0.045,0.135
2868,0.030,0.130
2869,-0.010,0.125
2870,-0.035,0.135
2871,-0.040,0.145
2872,-0.040,0.155
2873,-0.040,0.150
2874,-0.060,0.140
2875,-0.085,0.135
2876,-0.095,0.140
2877,-0.100,0.140
2878,-0.100,0.155
2879,-0.100,0.155
2880,-0.115,0.140
2881,-0.135,0.135
2882,-0.145,0.140
2883,-0.140,0.150
2884,-0.140,0.160
2885,-0.135,0.150
2886,-0.140,0.130
2887,-0.145,0.125
2888,-0.160,0.130
2889,-0.160,0.140
2890,-0.145,0.150
2891,-0.140,0.140
2892,-0.155,0.130
2893,-0.165,0.120
2894,-0.170,0.125
2895,-0.165,0.145
2896,-0.145,0.150
2897,-0.160,0.140
2898,-0.155,0.125
2899,-0.165,0.120
2900,-0.185,0.120
2901,-0.170,0.145
2902,-0.160,0.145
2903,-0.140,0.150
2904,-0.150,0.145
2905,-0.165,0.130
2906,-0.175,0.140
2907,-0.175,0.155
2908,-0.165,0.165
2909,-0.145,0.150
2910,-0.155,0.140
2911,-0.165,0.135
2912,-0.185,0.145
2913,-0.170,0.165
2914,-0.155,0.185
2915,-0.145,0.170
2916,-0.155,0.165
2917,-0.170,0.150
2918,-0.165,0.155
2919,-0.160,0.165
2920,-0.145,0.175
2921,-0.135,0.165
2922,-0.145,0.155
2923,-0.165,0.135
2924,-0.170,0.150
2925,-0.150,0.175
2926,-0.140,0.185
2927,-0.125,0.175
2928,-0.140,0.155
2929,-0.155,0.150
2930,-0.155,0.165
2931,-0.140,0.165
2932,-0.130,0.180
2933,-0.125,0.170
2934,-0.135,0.150
2935,-0.160,0.135
2936,-0.155,0.155
2937,-0.155,0.165
2938,-0.135,0.170
2939,-0.135,0.175
2940,-0.130,0.150
2941,-0.150,0.145
2942,-0.160,0.165
2943,-0.155,0.160
2944,-0.145,0.175
2945,-0.125,0.175
2946,-0.135,0.140
2947,-0.160,0.145
2948,-0.160,0.150
2949,-0.145,0.160
2950,-0.135,0.165
2951,-0.140,0.165
2952,-0.150,0.145
2953,-0.165,0.135
2954,-0.165,0.130
2955,-0.175,0.155
2956,-0.145,0.160
2957,-0.150,0.155
2958,-0.145,0.140
2959,-0.175,0.125
2960,-0.170,0.145
2961,-0.160,0.135
2962,-0.150,0.155
2963,-0.140,0.140
2964,-0.160,0.140
2965,-0.180,0.130
2966,-0.175,0.135
2967,-0.165,0.155
2968,-0.150,0.140
2969,-0.145,0.145
2970,-0.165,0.130
2971,-0.175,0.125
2972,-0.180,0.130
2973,-0.175,0.135
2974,-0.160,0.145
2975,-0.155,0.135
2976,-0.180,0.120
2977,-0.190,0.125
2978,-0.190,0.120
2979,-0.175,0.150
2980,-0.160,0.140
2981,-0.155,0.120
2982,-0.165,0.110
2983,-0.180,0.125
2984,-0.185,0.115
2985,-0.175,0.135
2986,-0.165,0.135
2987,-0.160,0.135
2988,-0.170,0.110
2989,-0.180,0.100
2990,-0.190,0.115
2991,-0.175,0.125
2992,-0.175,0.125
2993,-0.155,0.130
2994,-0.175,0.110
2995,-0.185,0.110
2996,-0.190,0.105
2997,-0.160,0.120
2998,-0.150,0.140
2999,-0.160,0.130
3000,-0.165,0.110
3001,-0.170,0.105
3002,-0.175,0.095
3003,-0.170,0.115
3004,-0.165,0.135
3005,-0.155,0.130
3006,-0.175,0.125
3007,-0.180,0.100
3008,-0.185,0.110
3009,-0.155,0.110
3010,-0.145,0.125
3011,-0.145,0.140
3012,-0.150,0.120
3013,-0.165,0.100
3014,-0.175,0.115
3015,-0.155,0.130
3016,-0.150,0.140
3017,-0.145,0.135
3018,-0.140,0.110
3019,-0.155,0.110
3020,-0.160,0.105
3021,-0.140,0.115
3022,-0.135,0.125
3023,-0.135,0.130
3024,-0.140,0.105
3025,-0.170,0.100
3026,-0.150,0.105
3027,-0.140,0.120
3028,-0.135,0.125
3029,-0.130,0.125
3030,-0.130,0.100
3031,-0.135,0.105
3032,-0.160,0.110
3033,-0.150,0.115
3034,-0.125,0.125
3035,-0.125,0.130
3036,-0.135,0.115
3037,-0.150,0.095
3038,-0.150,0.110
3039,-0.135,0.110
3040,-0.120,0.135
3041,-0.125,0.120
3042,-0.120,0.105
3043,-0.155,0.095
3044,-0.145,0.100
3045,-0.145,0.115
3046,-0.125,0.130
3047,-0.135,0.120
3048,-0.130,0.110
3049,-0.150,0.100
3050,-0.145,0.110
3051,-0.135,0.115
3052,-0.120,0.135
3053,-0.125,0.135
3054,-0.120,0.110
3055,-0.145,0.105
3056,-0.145,0.100
3057,-0.125,0.115
3058,-0.115,0.125
3059,-0.110,0.120
3060,-0.130,0.100
3061,-0.140,0.100
3062,-0.145,0.100
3063,-0.145,0.110
3064,-0.125,0.120
3065,-0.120,0.115
3066,-0.125,0.115
3067,-0.135,0.095
3068,-0.135,0.105
3069,-0.125,0.120
3070,-0.120,0.115
3071,-0.105,0.115
3072,-0.115,0.100
3073,-0.125,0.090
3074,-0.135,0.100
3075,-0.135,0.110
3076,-0.105,0.115
3077,-0.100,0.110
3078,-0.115,0.090
3079,-0.125,0.080
3080,-0.130,0.095
3081,-0.130,0.110
3082,-0.120,0.110
3083,-0.110,0.105
3084,-0.125,0.090
3085,-0.120,0.075
3086,-0.120,0.085
3087,-0.110,0.090
3088,-0.105,0.105
3089,-0.100,0.100
3090,-0.095,0.075
3091,-0.110,0.080
3092,-0.105,0.080
3093,-0.120,0.095
3094,-0.095,0.095
3095,-0.085,0.090
3096,-0.095,0.075
3097,-0.100,0.075
3098,-0.110,0.075
3099,-0.100,0.100
3100,-0.095,0.135
3101,-0.095,0.130
3102,-0.100,0.125
3103,-0.120,0.110
3104,-0.130,0.115
3105,-0.135,0.130
3106,-0.095,0.145
3107,-0.100,0.135
3108,-0.085,0.120
3109,-0.085,0.105
3110,-0.075,0.110
3111,-0.060,0.125
3112,-0.030,0.115
3113,-0.025,0.100
3114,-0.025,0.090
3115,-0.045,0.085
3116,-0.045,0.095
3117,-0.035,0.100
3118,-0.015,0.110
3119,-0.025,0.110
3120,-0.035,0.110
3121,-0.045,0.085
3122,-0.065,0.090
3123,-0.060,0.105
3124,-0.055,0.100
3125,-0.055,0.110
3126,-0.070,0.090
3127,-0.095,0.085
3128,-0.095,0.095
3129,-0.090,0.105
3130,-0.090,0.120
3131,-0.075,0.115
3132,-0.080,0.090
3133,-0.095,0.080
3134,-0.115,0.080
3135,-0.110,0.090
3136,-0.075,0.105
3137,-0.075,0.100
3138,-0.080,0.100
3139,-0.105,0.080
3140,-0.105,0.080
3141,-0.085,0.090
3142,-0.080,0.100
3143,-0.075,0.095
3144,-0.080,0.090
3145,-0.095,0.070
3146,-0.085,0.095
3147,-0.055,0.100
3148,-0.050,0.130
3149,-0.030,0.155
3150,-0.030,0.155
3151,-0.040,0.145
3152,-0.030,0.135
3153,0.005,0.080
3154,0.035,0.020
3155,0.080,-0.095
3156,0.100,-0.225
3157,0.125,-0.360
3158,0.210,-0.490
3159,0.330,-0.630
3160,0.455,-0.770
3161,0.575,-0.890
3162,0.695,-0.970
3163,0.815,-0.980
3164,0.910,-0.935
3165,1.020,-0.855
3166,1.150,-0.745
3167,1.245,-0.620
3168,1.275,-0.465
3169,1.205,-0.310
3170,1.080,-0.180
3171,0.930,-0.065
3172,0.750,0.025
3173,0.565,0.040
3174,0.405,0.020
3175,0.250,-0.005
3176,0.125,-0.020
3177,0.050,0.010
3178,0.010,0.040
3179,0.000,0.070
3180,0.010,0.070
3181,-0.015,0.085
3182,-0.020,0.080
3183,-0.030,0.100
3184,-0.040,0.115
3185,-0.060,0.110
3186,-0.085,0.095
3187,-0.105,0.105
3188,-0.125,0.105
3189,-0.125,0.120
3190,-0.115,0.125
3191,-0.115,0.130
3192,-0.135,0.105
3193,-0.160,0.100
3194,-0.155,0.100
3195,-0.150,0.125
3196,-0.130,0.135
3197,-0.140,0.130
3198,-0.160,0.120
3199,-0.165,0.105
3200,-0.170,0.125
3201,-0.160,0.130
3202,-0.150,0.145
3203,-0.145,0.140
3204,-0.155,0.120
3205,-0.165,0.110
3206,-0.180,0.130
3207,-0.165,0.130
3208,-0.150,0.155
3209,-0.150,0.140
3210,-0.150,0.130
3211,-0.165,0.125
3212,-0.170,0.130
3213,-0.155,0.135
3214,-0.135,0.135
3215,-0.145,0.130
3216,-0.145,0.120
3217,-0.160,0.105
3218,-0.160,0.110
3219,-0.160,0.115
3220,-0.140,0.125
3221,-0.130,0.115
3222,-0.130,0.105
3223,-0.140,0.085
3224,-0.150,0.090
3225,-0.130,0.100
3226,-0.125,0.125
3227,-0.105,0.110
3228,-0.120,0.085
3229,-0.135,0.070
3230,-0.150,0.085
3231,-0.120,0.100
3232,-0.105,0.100
3233,-0.110,0.085
3234,-0.085,0.075
3235,-0.105,0.065
3236,-0.110,0.070
3237,-0.085,0.070
3238,-0.070,0.080
3239,-0.060,0.080
3240,-0.070,0.065
3241,-0.070,0.045
3242,-0.090,0.050
3243,-0.060,0.045
3244,-0.045,0.055
3245,-0.030,0.040
3246,-0.015,0.030
3247,-0.035,0.020
3248,-0.020,0.015
3249,-0.005,0.015
3250,0.010,0.035
3251,0.030,0.015
3252,0.035,-0.005
3253,0.035,-0.015
3254,0.040,-0.010
3255,0.055,-0.010
3256,0.080,-0.005
3257,0.090,-0.015
3258,0.105,-0.030
3259,0.115,-0.055
3260,0.095,-0.050
3261,0.115,-0.040
3262,0.145,-0.035
3263,0.165,-0.040
3264,0.165,-0.065
3265,0.155,-0.065
3266,0.155,-0.060
3267,0.165,-0.045
3268,0.180,-0.030
3269,0.210,-0.035
3270,0.190,-0.040
3271,0.180,-0.040
3272,0.185,-0.025
3273,0.170,0.000
3274,0.190,0.000
3275,0.175,0.005
3276,0.170,0.010
3277,0.150,-0.005
3278,0.125,0.010
3279,0.105,0.025
3280,0.105,0.045
3281,0.085,0.060
3282,0.060,0.050
3283,0.025,0.045
3284,0.015,0.050
3285,-0.015,0.055
3286,-0.010,0.075
3287,-0.010,0.080
3288,-0.040,0.065
3289,-0.075,0.060
3290,-0.100,0.070
3291,-0.085,0.080
3292,-0.090,0.085
3293,-0.095,0.095
3294,-0.110,0.075
3295,-0.145,0.055
3296,-0.145,0.065
3297,-0.160,0.075
3298,-0.150,0.095
3299,-0.165,0.085
3300,-0.160,0.070
3301,-0.180,0.070
3302,-0.195,0.075
3303,-0.185,0.080
3304,-0.175,0.095
3305,-0.180,0.105
3306,-0.190,0.080
3307,-0.195,0.065
3308,-0.215,0.065
3309,-0.200,0.085
3310,-0.205,0.095
3311,-0.185,0.080
3312,-0.195,0.080
3313,-0.215,0.060
3314,-0.215,0.070
3315,-0.205,0.090
3316,-0.210,0.100
3317,-0.195,0.090
3318,-0.200,0.070
3319,-0.225,0.065
3320,-0.210,0.070
3321,-0.200,0.080
3322,-0.195,0.080
3323,-0.190,0.090
3324,-0.210,0.065
3325,-0.205,0.065
3326,-0.210,0.065
3327,-0.195,0.090
3328,-0.185,0.090
3329,-0.185,0.095
3330,-0.190,0.075
3331,-0.205,0.070
3332,-0.215,0.075
3333,-0.200,0.100
3334,-0.200,0.110
3335,-0.200,0.100
3336,-0.210,0.090
3337,-0.215,0.080
3338,-0.210,0.080
3339,-0.200,0.090
3340,-0.180,0.110
3341,-0.185,0.100
3342,-0.190,0.090
3343,-0.200,0.080
3344,-0.210,0.095
3345,-0.195,0.110
3346,-0.200,0.110
3347,-0.185,0.105
3348,-0.185,0.110
3349,-0.205,0.080
3350,-0.205,0.095
3351,-0.195,0.095
3352,-0.180,0.110
3353,-0.180,0.120
3354,-0.195,0.100
3355,-0.205,0.085
3356,-0.190,0.075
3357,-0.175,0.095
3358,-0.165,0.100
3359,-0.160,0.110
3360,-0.170,0.095
3361,-0.195,0.075
3362,-0.210,0.090
3363,-0.200,0.095
3364,-0.155,0.105
3365,-0.160,0.090
3366,-0.165,0.080
3367,-0.185,0.080
3368,-0.180,0.085
3369,-0.175,0.090
3370,-0.170,0.100
3371,-0.170,0.095
3372,-0.175,0.090
3373,-0.185,0.065
3374,-0.180,0.090
3375,-0.175,0.105
3376,-0.175,0.100
3377,-0.160,0.090
3378,-0.180,0.080
3379,-0.195,0.075
3380,-0.190,0.080
3381,-0.180,0.110
3382,-0.160,0.105
3383,-0.165,0.105
3384,-0.175,0.085
3385,-0.175,0.075
3386,-0.200,0.085
3387,-0.185,0.105
3388,-0.165,0.110
3389,-0.160,0.110
3390,-0.170,0.090
3391,-0.180,0.070
3392,-0.180,0.080
3393,-0.180,0.090
3394,-0.160,0.095
3395,-0.170,0.105
3396,-0.175,0.085
3397,-0.180,0.090
3398,-0.195,0.085
3399,-0.185,0.085
3400,-0.170,0.095
3401,-0.160,0.095
3402,-0.160,0.080
3403,-0.175,0.080
3404,-0.185,0.080
3405,-0.175,0.085
3406,-0.150,0.095
3407,-0.145,0.100
3408,-0.165,0.070
3409,-0.180,0.070
3410,-0.180,0.085
3411,-0.185,0.090
3412,-0.175,0.090
3413,-0.155,0.090
3414,-0.170,0.070
3415,-0.190,0.070
3416,-0.200,0.065
3417,-0.190,0.085
3418,-0.180,0.100
3419,-0.175,0.075
3420,-0.185,0.070
3421,-0.190,0.070
3422,-0.195,0.075
3423,-0.190,0.090
3424,-0.175,0.095
3425,-0.175,0.085
3426,-0.190,0.070
3427,-0.190,0.060
3428,-0.200,0.070
3429,-0.200,0.060
3430,-0.195,0.090
3431,-0.165,0.070
3432,-0.185,0.065
3433,-0.190,0.045
3434,-0.190,0.060
3435,-0.180,0.070
3436,-0.170,0.095
3437,-0.180,0.085
3438,-0.175,0.075
3439,-0.185,0.060
3440,-0.180,0.055
3441,-0.190,0.070
3442,-0.165,0.080
3443,-0.165,0.080
3444,-0.160,0.080
3445,-0.200,0.065
3446,-0.195,0.070
3447,-0.175,0.075
3448,-0.165,0.105
3449,-0.150,0.090
3450,-0.160,0.070
3451,-0.170,0.060
3452,-0.175,0.050
3453,-0.160,0.070
3454,-0.160,0.080
3455,-0.155,0.075
3456,-0.170,0.060
3457,-0.185,0.055
3458,-0.180,0.065
3459,-0.170,0.070
3460,-0.150,0.075
3461,-0.155,0.070
3462,-0.150,0.055
3463,-0.165,0.045
3464,-0.180,0.050
3465,-0.185,0.060
3466,-0.150,0.080
3467,-0.140,0.080
3468,-0.160,0.065
3469,-0.170,0.055
3470,-0.170,0.055
3471,-0.170,0.060
3472,-0.150,0.070
3473,-0.155,0.080
3474,-0.170,0.070
3475,-0.185,0.060
3476,-0.170,0.050
3477,-0.165,0.060
3478,-0.155,0.070
3479,-0.155,0.080
3480,-0.170,0.060
3481,-0.180,0.045
3482,-0.190,0.060
3483,-0.175,0.070
3484,-0.160,0.070
3485,-0.160,0.070
3486,-0.160,0.050
3487,-0.175,0.040
3488,-0.190,0.050
3489,-0.170,0.065
3490,-0.165,0.075
3491,-0.155,0.070
3492,-0.170,0.070
3493,-0.185,0.050
3494,-0.185,0.060
3495,-0.185,0.070
3496,-0.165,0.090
3497,-0.155,0.075
3498,-0.160,0.065
3499,-0.180,0.060
3500,-0.185,0.065
3501,-0.170,0.075
3502,-0.165,0.090
3503,-0.150,0.080
3504,-0.165,0.070
3505,-0.175,0.070
3506,-0.175,0.060
3507,-0.180,0.085
3508,-0.165,0.090
3509,-0.150,0.080
3510,-0.165,0.070
3511,-0.180,0.065
3512,-0.175,0.085
3513,-0.170,0.085
3514,-0.155,0.095
3515,-0.160,0.085
3516,-0.150,0.070
3517,-0.175,0.055
3518,-0.180,0.050
3519,-0.160,0.065
3520,-0.165,0.070
3521,-0.150,0.075
3522,-0.155,0.075
3523,-0.170,0.080
3524,-0.185,0.090
3525,-0.175,0.110
3526,-0.155,0.125
3527,-0.170,0.130
3528,-0.190,0.105
3529,-0.195,0.110
3530,-0.185,0.110
3531,-0.175,0.115
3532,-0.135,0.145
3533,-0.130,0.130
3534,-0.125,0.115
3535,-0.135,0.100
3536,-0.130,0.100
3537,-0.120,0.115
3538,-0.095,0.120
3539,-0.095,0.115
3540,-0.105,0.095
3541,-0.130,0.085
3542,-0.115,0.100
3543,-0.120,0.110
3544,-0.105,0.110
3545,-0.115,0.100
3546,-0.130,0.085
3547,-0.155,0.080
3548,-0.165,0.085
3549,-0.160,0.105
3550,-0.150,0.100
3551,-0.165,0.110
3552,-0.185,0.085
3553,-0.185,0.070
3554,-0.175,0.080
3555,-0.170,0.090
3556,-0.160,0.100
3557,-0.150,0.090
3558,-0.160,0.080
3559,-0.175,0.075
3560,-0.185,0.075
3561,-0.170,0.085
3562,-0.170,0.095
3563,-0.160,0.095
3564,-0.160,0.080
3565,-0.175,0.075
3566,-0.170,0.080
3567,-0.175,0.095
3568,-0.125,0.115
3569,-0.120,0.115
3570,-0.125,0.125
3571,-0.130,0.140
3572,-0.130,0.150
3573,-0.095,0.165
3574,-0.065,0.160
3575,-0.040,0.085
3576,-0.030,-0.020
3577,-0.020,-0.135
3578,0.010,-0.245
3579,0.090,-0.355
3580,0.185,-0.475
3581,0.310,-0.625
3582,0.420,-0.760
3583,0.540,-0.865
3584,0.685,-0.915
3585,0.835,-0.905
3586,0.960,-0.835
3587,1.090,-0.755
3588,1.205,-0.670
3589,1.285,-0.525
3590,1.340,-0.370
3591,1.300,-0.210
3592,1.190,-0.080
3593,0.980,0.010
3594,0.770,0.065
3595,0.540,0.060
3596,0.345,0.055
3597,0.200,0.035
3598,0.060,0.030
3599,-0.045,0.040
3600,-0.095,0.060
3601,-0.105,0.055
3602,-0.105,0.070
3603,-0.090,0.105
3604,-0.095,0.110
3605,-0.105,0.120
3606,-0.130,0.105
3607,-0.175,0.095
3608,-0.170,0.115
3609,-0.175,0.125
3610,-0.175,0.135
3611,-0.175,0.125
3612,-0.185,0.110
3613,-0.195,0.100
3614,-0.220,0.110
3615,-0.215,0.125
3616,-0.215,0.140
3617,-0.215,0.130
3618,-0.215,0.110
3619,-0.245,0.105
3620,-0.250,0.125
3621,-0.245,0.130
3622,-0.235,0.140
3623,-0.220,0.135
3624,-0.245,0.120
3625,-0.250,0.110
3626,-0.255,0.120
3627,-0.265,0.130
3628,-0.245,0.145
3629,-0.235,0.135
3630,-0.245,0.115
3631,-0.265,0.115
3632,-0.260,0.130
3633,-0.250,0.130
3634,-0.250,0.130
3635,-0.235,0.125
3636,-0.255,0.120
3637,-0.250,0.115
3638,-0.260,0.120
3639,-0.235,0.130
3640,-0.220,0.140
3641,-0.210,0.125
3642,-0.230,0.125
3643,-0.235,0.110
3644,-0.230,0.120
3645,-0.230,0.130
3646,-0.215,0.135
3647,-0.205,0.140
3648,-0.195,0.115
3649,-0.205,0.110
3650,-0.195,0.120
3651,-0.195,0.125
3652,-0.175,0.130
3653,-0.165,0.130
3654,-0.170,0.120
3655,-0.165,0.110
3656,-0.165,0.100
3657,-0.170,0.120
3658,-0.145,0.125
3659,-0.130,0.115
3660,-0.140,0.105
3661,-0.125,0.095
3662,-0.125,0.090
3663,-0.125,0.095
3664,-0.085,0.110
3665,-0.065,0.115
3666,-0.075,0.090
3667,-0.070,0.075
3668,-0.065,0.075
3669,-0.040,0.095
3670,-0.015,0.095
3671,-0.015,0.095
3672,0.000,0.070
3673,-0.005,0.060
3674,0.005,0.065
3675,0.025,0.060
3676,0.055,0.075
3677,0.070,0.055
3678,0.065,0.040
3679,0.060,0.025
3680,0.050,0.030
3681,0.080,0.035
3682,0.105,0.040
3683,0.125,0.035
3684,0.130,0.025
3685,0.125,0.015
3686,0.130,0.030
3687,0.140,0.015
3688,0.150,0.040
3689,0.165,0.040
3690,0.160,0.035
3691,0.160,0.025
3692,0.155,0.045
3693,0.165,0.055
3694,0.160,0.065
3695,0.145,0.075
3696,0.145,0.075
3697,0.125,0.060
3698,0.105,0.075
3699,0.085,0.095
3700,0.080,0.110
3701,0.065,0.100
3702,0.050,0.100
3703,0.015,0.085
3704,-0.005,0.090
3705,-0.015,0.115
3706,-0.040,0.130
3707,-0.040,0.130
3708,-0.065,0.115
3709,-0.100,0.105
3710,-0.115,0.130
3711,-0.115,0.130
3712,-0.125,0.130
3713,-0.120,0.140
3714,-0.150,0.130
3715,-0.180,0.110
3716,-0.180,0.110
3717,-0.175,0.130
3718,-0.190,0.145
3719,-0.180,0.150
3720,-0.190,0.130
3721,-0.210,0.125
3722,-0.205,0.135
3723,-0.200,0.150
3724,-0.190,0.165
3725,-0.195,0.155
3726,-0.195,0.155
3727,-0.225,0.135
3728,-0.225,0.130
3729,-0.205,0.155
3730,-0.205,0.165
3731,-0.190,0.155
3732,-0.210,0.140
3733,-0.230,0.130
3734,-0.235,0.130
3735,-0.220,0.145
3736,-0.205,0.160
3737,-0.195,0.155
3738,-0.215,0.135
3739,-0.215,0.120
3740,-0.225,0.135
3741,-0.205,0.160
3742,-0.195,0.165
3743,-0.200,0.155
3744,-0.195,0.155
3745,-0.220,0.140
3746,-0.230,0.145
3747,-0.220,0.160
3748,-0.195,0.160
3749,-0.180,0.165
3750,-0.195,0.160
3751,-0.205,0.150
3752,-0.210,0.140
3753,-0.200,0.180
3754,-0.185,0.165
3755,-0.185,0.170
3756,-0.190,0.165
3757,-0.215,0.155
3758,-0.215,0.145
3759,-0.190,0.160
3760,-0.180,0.175
3761,-0.185,0.175
3762,-0.185,0.155
3763,-0.205,0.145
3764,-0.215,0.145
3765,-0.200,0.165
3766,-0.180,0.180
3767,-0.170,0.170
3768,-0.180,0.155
3769,-0.205,0.145
3770,-0.210,0.150
3771,-0.205,0.165
3772,-0.180,0.160
3773,-0.180,0.165
3774,-0.180,0.160
3775,-0.195,0.140
3776,-0.200,0.145
3777,-0.190,0.160
3778,-0.175,0.180
3779,-0.175,0.170
3780,-0.190,0.165
3781,-0.200,0.155
3782,-0.210,0.155
3783,-0.185,0.175
3784,-0.175,0.180
3785,-0.170,0.175
3786,-0.180,0.170
3787,-0.195,0.155
3788,-0.200,0.165
3789,-0.190,0.175
3790,-0.175,0.190
3791,-0.175,0.190
3792,-0.195,0.165
3793,-0.200,0.165
3794,-0.215,0.170
3795,-0.200,0.170
3796,-0.180,0.185
3797,-0.180,0.190
3798,-0.190,0.155
3799,-0.205,0.165
3800,-0.210,0.170
3801,-0.200,0.165
3802,-0.175,0.185
3803,-0.185,0.175
3804,-0.205,0.165
3805,-0.210,0.155
3806,-0.215,0.155
3807,-0.205,0.165
3808,-0.195,0.175
3809,-0.195,0.165
3810,-0.200,0.165
3811,-0.215,0.155
3812,-0.210,0.150
3813,-0.200,0.185
3814,-0.195,0.190
3815,-0.190,0.190
3816,-0.180,0.170
3817,-0.200,0.170
3818,-0.215,0.175
3819,-0.205,0.180
3820,-0.185,0.190
3821,-0.210,0.185
3822,-0.205,0.165
3823,-0.220,0.160
3824,-0.215,0.160
3825,-0.210,0.170
3826,-0.210,0.185
3827,-0.205,0.165
3828,-0.215,0.155
3829,-0.225,0.150
3830,-0.225,0.150
3831,-0.220,0.165
3832,-0.210,0.170
3833,-0.225,0.165
3834,-0.220,0.145
3835,-0.235,0.150
3836,-0.235,0.145
3837,-0.240,0.160
3838,-0.220,0.165
3839,-0.215,0.175
3840,-0.220,0.150
3841,-0.230,0.140
3842,-0.245,0.155
3843,-0.230,0.175
3844,-0.210,0.175
3845,-0.205,0.170
3846,-0.215,0.170
3847,-0.230,0.160
3848,-0.225,0.165
3849,-0.205,0.170
3850,-0.190,0.185
3851,-0.190,0.180
3852,-0.200,0.170
3853,-0.205,0.150
3854,-0.220,0.155
3855,-0.200,0.175
3856,-0.185,0.185
3857,-0.190,0.180
3858,-0.195,0.160
3859,-0.210,0.155
3860,-0.225,0.165
3861,-0.205,0.165
3862,-0.185,0.180
3863,-0.185,0.170
3864,-0.195,0.150
3865,-0.205,0.135
3866,-0.210,0.140
3867,-0.200,0.150
3868,-0.185,0.175
3869,-0.195,0.165
3870,-0.190,0.160
3871,-0.210,0.140
3872,-0.210,0.135
3873,-0.210,0.160
3874,-0.200,0.185
3875,-0.185,0.170
3876,-0.185,0.165
3877,-0.205,0.150
3878,-0.220,0.155
3879,-0.210,0.165
3880,-0.180,0.190
3881,-0.180,0.180
3882,-0.190,0.160
3883,-0.205,0.150
3884,-0.215,0.145
3885,-0.210,0.160
3886,-0.195,0.165
3887,-0.185,0.165
3888,-0.200,0.155
3889,-0.215,0.135
3890,-0.235,0.140
3891,-0.225,0.155
3892,-0.190,0.165
3893,-0.195,0.155
3894,-0.200,0.145
3895,-0.215,0.140
3896,-0.225,0.150
3897,-0.225,0.150
3898,-0.210,0.165
3899,-0.205,0.170
3900,-0.215,0.140
3901,-0.235,0.140
3902,-0.240,0.150
3903,-0.225,0.150
3904,-0.195,0.170
3905,-0.175,0.160
3906,-0.200,0.145
3907,-0.200,0.145
3908,-0.210,0.155
3909,-0.195,0.160
3910,-0.175,0.165
3911,-0.175,0.160
3912,-0.200,0.145
3913,-0.210,0.135
3914,-0.200,0.140
3915,-0.185,0.155
3916,-0.185,0.170
3917,-0.170,0.180
3918,-0.185,0.165
3919,-0.185,0.150
3920,-0.200,0.155
3921,-0.180,0.175
3922,-0.165,0.170
3923,-0.165,0.165
3924,-0.180,0.150
3925,-0.180,0.150
3926,-0.210,0.150
3927,-0.175,0.170
3928,-0.160,0.175
3929,-0.165,0.165
3930,-0.170,0.160
3931,-0.175,0.140
3932,-0.180,0.145
3933,-0.175,0.155
3934,-0.165,0.160
3935,-0.155,0.155
3936,-0.160,0.145
3937,-0.165,0.130
3938,-0.170,0.140
3939,-0.165,0.155
3940,-0.145,0.170
3941,-0.125,0.175
3942,-0.150,0.175
3943,-0.160,0.160
3944,-0.170,0.175
3945,-0.165,0.195
3946,-0.165,0.200
3947,-0.160,0.200
3948,-0.175,0.185
3949,-0.170,0.175
3950,-0.165,0.185
3951,-0.140,0.190
3952,-0.115,0.185
3953,-0.115,0.175
3954,-0.115,0.160
3955,-0.105,0.150
3956,-0.120,0.160
3957,-0.115,0.160
3958,-0.100,0.175
3959,-0.085,0.170
3960,-0.110,0.145
3961,-0.120,0.135
3962,-0.130,0.135
3963,-0.120,0.135
3964,-0.130,0.140
3965,-0.130,0.150
3966,-0.145,0.125
3967,-0.155,0.120
3968,-0.185,0.125
3969,-0.180,0.135
3970,-0.170,0.160
3971,-0.180,0.145
3972,-0.160,0.125
3973,-0.190,0.125
3974,-0.180,0.140
3975,-0.175,0.145
3976,-0.155,0.140
3977,-0.160,0.135
3978,-0.155,0.120
3979,-0.185,0.115
3980,-0.185,0.120
3981,-0.155,0.130
3982,-0.150,0.155
3983,-0.140,0.145
3984,-0.155,0.130
3985,-0.160,0.125
3986,-0.150,0.130
3987,-0.150,0.150
3988,-0.110,0.190
3989,-0.100,0.190
3990,-0.090,0.190
3991,-0.095,0.170
3992,-0.065,0.130
3993,-0.030,0.060
3994,-0.005,-0.030
3995,0.035,-0.155
3996,0.075,-0.295
3997,0.165,-0.455
3998,0.280,-0.600
3999,0.405,-0.750
4000,0.555,-0.865
4001,0.700,-0.955
4002,0.835,-0.985
4003,0.945,-0.935
4004,1.045,-0.845
4005,1.180,-0.720
4006,1.285,-0.570
4007,1.320,-0.390
4008,1.240,-0.230
4009,1.110,-0.110
4010,0.915,-0.005
4011,0.720,0.060
4012,0.535,0.075
4013,0.360,0.045
4014,0.195,0.030
4015,0.075,0.035
4016,-0.005,0.065
4017,-0.035,0.100
4018,-0.020,0.135
4019,-0.025,0.140
4020,-0.055,0.125
4021,-0.080,0.135
4022,-0.095,0.150
4023,-0.105,0.155
4024,-0.115,0.180
4025,-0.115,0.185
4026,-0.135,0.170
4027,-0.160,0.150
4028,-0.170,0.170
4029,-0.175,0.185
4030,-0.175,0.200
4031,-0.165,0.190
4032,-0.180,0.175
4033,-0.195,0.170
4034,-0.190,0.165
4035,-0.200,0.180
4036,-0.185,0.200
4037,-0.185,0.190
4038,-0.205,0.185
4039,-0.205,0.165
4040,-0.210,0.180
4041,-0.190,0.190
4042,-0.190,0.200
4043,-0.180,0.200
4044,-0.195,0.185
4045,-0.200,0.170
4046,-0.215,0.175
4047,-0.190,0.190
4048,-0.185,0.195
4049,-0.175,0.195
4050,-0.175,0.180
4051,-0.195,0.165
4052,-0.205,0.165
4053,-0.190,0.180
4054,-0.165,0.200
4055,-0.170,0.195
4056,-0.170,0.170
4057,-0.185,0.160
4058,-0.190,0.165
4059,-0.165,0.190
4060,-0.160,0.190
4061,-0.145,0.180
4062,-0.155,0.170
4063,-0.170,0.150
4064,-0.165,0.160
4065,-0.145,0.170
4066,-0.135,0.170
4067,-0.120,0.165
4068,-0.120,0.145
4069,-0.135,0.140
4070,-0.145,0.135
4071,-0.140,0.155
4072,-0.115,0.155
4073,-0.100,0.160
4074,-0.100,0.140
4075,-0.115,0.120
4076,-0.100,0.120
4077,-0.080,0.135
4078,-0.065,0.140
4079,-0.045,0.125
4080,-0.045,0.115
4081,-0.040,0.105
4082,-0.045,0.110
4083,-0.030,0.105
4084,0.010,0.115
4085,0.025,0.105
4086,0.025,0.090
4087,0.020,0.075
4088,0.040,0.075
4089,0.055,0.080
4090,0.080,0.080
4091,0.085,0.065
4092,0.085,0.055
4093,0.070,0.040
4094,0.085,0.045
4095,0.115,0.045
4096,0.130,0.050
4097,0.150,0.035
4098,0.160,0.025
4099,0.150,0.020
4100,0.145,0.020
4101,0.160,0.040
4102,0.175,0.060
4103,0.190,0.050
4104,0.175,0.045
4105,0.165,0.045
4106,0.160,0.060
4107,0.145,0.075
4108,0.150,0.090
4109,0.140,0.085
4110,0.100,0.090
4111,0.075,0.080
4112,0.055,0.105
4113,0.030,0.120
4114,0.040,0.125
4115,0.010,0.130
4116,-0.025,0.110
4117,-0.050,0.100
4118,-0.075,0.120
4119,-0.095,0.130
4120,-0.095,0.160
4121,-0.100,0.150
4122,-0.125,0.140
4123,-0.165,0.125
4124,-0.175,0.125
4125,-0.185,0.135
4126,-0.170,0.145
4127,-0.190,0.155
4128,-0.190,0.145
4129,-0.225,0.140
4130,-0.235,0.145
4131,-0.225,0.165
4132,-0.215,0.170
4133,-0.210,0.150
4134,-0.220,0.135
4135,-0.250,0.125
4136,-0.255,0.125
4137,-0.235,0.145
4138,-0.230,0.165
4139,-0.220,0.160
4140,-0.235,0.135
4141,-0.260,0.125
4142,-0.255,0.130
4143,-0.255,0.145
4144,-0.245,0.155
4145,-0.245,0.150
4146,-0.250,0.140
4147,-0.270,0.135
4148,-0.270,0.150
4149,-0.260,0.160
4150,-0.240,0.170
4151,-0.245,0.170
4152,-0.260,0.145
4153,-0.270,0.135
4154,-0.265,0.150
4155,-0.260,0.170
4156,-0.255,0.175
4157,-0.245,0.165
4158,-0.245,0.145
4159,-0.265,0.150
4160,-0.260,0.145
4161,-0.245,0.165
4162,-0.235,0.180
4163,-0.235,0.180
4164,-0.245,0.155
4165,-0.260,0.150
4166,-0.275,0.165
4167,-0.240,0.170
4168,-0.225,0.180
4169,-0.215,0.175
4170,-0.230,0.160
4171,-0.245,0.155
4172,-0.245,0.165
4173,-0.245,0.170
4174,-0.230,0.180
4175,-0.220,0.170
4176,-0.230,0.160
4177,-0.240,0.155
4178,-0.240,0.165
4179,-0.245,0.170
4180,-0.230,0.185
4181,-0.220,0.165
4182,-0.230,0.155
4183,-0.250,0.150
4184,-0.260,0.155
4185,-0.240,0.170
4186,-0.220,0.180
4187,-0.235,0.165
4188,-0.250,0.160
4189,-0.260,0.145
4190,-0.260,0.160
4191,-0.245,0.160
4192,-0.245,0.170
4193,-0.230,0.160
4194,-0.240,0.155
4195,-0.245,0.140
4196,-0.250,0.155
4197,-0.250,0.165
4198,-0.245,0.190
4199,-0.235,0.165
4200,-0.250,0.150
4201,-0.270,0.145
4202,-0.270,0.150
4203,-0.255,0.165
4204,-0.245,0.170
4205,-0.240,0.160
4206,-0.250,0.155
4207,-0.265,0.130
4208,-0.280,0.140
4209,-0.275,0.150
4210,-0.250,0.165
4211,-0.250,0.155
4212,-0.260,0.140
4213,-0.265,0.135
4214,-0.275,0.140
4215,-0.270,0.145
4216,-0.245,0.160
4217,-0.250,0.160
4218,-0.260,0.140
4219,-0.260,0.130
4220,-0.275,0.125
4221,-0.265,0.155
4222,-0.270,0.150
4223,-0.240,0.150
4224,-0.250,0.150
4225,-0.255,0.125
4226,-0.270,0.140
4227,-0.260,0.155
4228,-0.240,0.165
4229,-0.245,0.150
4230,-0.265,0.145
4231,-0.270,0.135
4232,-0.265,0.145
4233,-0.260,0.160
4234,-0.260,0.155
4235,-0.255,0.135
4236,-0.245,0.150
4237,-0.275,0.125
4238,-0.285,0.135
4239,-0.265,0.135
4240,-0.260,0.155
4241,-0.250,0.145
4242,-0.250,0.130
4243,-0.270,0.115
4244,-0.275,0.135
4245,-0.260,0.145
4246,-0.250,0.155
4247,-0.260,0.140
4248,-0.260,0.135
4249,-0.270,0.130
4250,-0.270,0.140
4251,-0.260,0.140
4252,-0.240,0.145
4253,-0.240,0.135
4254,-0.260,0.125
4255,-0.275,0.110
4256,-0.280,0.125
4257,-0.255,0.135
4258,-0.255,0.155
4259,-0.250,0.135
4260,-0.250,0.125
4261,-0.260,0.125
4262,-0.275,0.115
4263,-0.270,0.130
4264,-0.240,0.155
4265,-0.255,0.135
4266,-0.260,0.125
4267,-0.270,0.110
4268,-0.270,0.110
4269,-0.270,0.125
4270,-0.250,0.135
4271,-0.250,0.125
4272,-0.260,0.120
4273,-0.265,0.110
4274,-0.275,0.110
4275,-0.260,0.125
4276,-0.215,0.125
4277,-0.230,0.125
4278,-0.250,0.115
4279,-0.275,0.090
4280,-0.265,0.105
4281,-0.250,0.115
4282,-0.230,0.105
4283,-0.230,0.115
4284,-0.240,0.100
4285,-0.260,0.095
4286,-0.255,0.100
4287,-0.245,0.115
4288,-0.230,0.120
4289,-0.235,0.120
4290,-0.235,0.095
4291,-0.255,0.090
4292,-0.260,0.095
4293,-0.245,0.110
4294,-0.230,0.125
4295,-0.235,0.110
4296,-0.235,0.095
4297,-0.255,0.085
4298,-0.260,0.090
4299,-0.240,0.095
4300,-0.230,0.120
4301,-0.235,0.100
4302,-0.240,0.090
4303,-0.255,0.090
4304,-0.255,0.100
4305,-0.250,0.105
4306,-0.225,0.115
4307,-0.230,0.100
4308,-0.235,0.100
4309,-0.245,0.080
4310,-0.250,0.100
4311,-0.240,0.095
4312,-0.235,0.105
4313,-0.230,0.095
4314,-0.235,0.090
4315,-0.245,0.080
4316,-0.260,0.090
4317,-0.250,0.095
4318,-0.225,0.105
4319,-0.230,0.100
4320,-0.240,0.085
4321,-0.260,0.075
4322,-0.245,0.070
4323,-0.230,0.095
4324,-0.210,0.090
4325,-0.215,0.100
4326,-0.215,0.085
4327,-0.225,0.075
4328,-0.215,0.080
4329,-0.220,0.100
4330,-0.215,0.090
4331,-0.200,0.095
4332,-0.210,0.075
4333,-0.215,0.075
4334,-0.210,0.085
4335,-0.200,0.090
4336,-0.195,0.120
4337,-0.175,0.120
4338,-0.190,0.120
4339,-0.215,0.095
4340,-0.225,0.105
4341,-0.205,0.135
4342,-0.195,0.140
4343,-0.200,0.140
4344,-0.200,0.120
4345,-0.195,0.120
4346,-0.170,0.130
4347,-0.165,0.135
4348,-0.140,0.125
4349,-0.130,0.110
4350,-0.135,0.100
4351,-0.150,0.090
4352,-0.160,0.100
4353,-0.150,0.125
4354,-0.130,0.125
4355,-0.135,0.125
4356,-0.155,0.105
4357,-0.175,0.080
4358,-0.175,0.090
4359,-0.200,0.080
4360,-0.170,0.110
4361,-0.160,0.095
4362,-0.175,0.085
4363,-0.200,0.065
4364,-0.205,0.075
4365,-0.205,0.080
4366,-0.180,0.095
4367,-0.190,0.080
4368,-0.190,0.075
4369,-0.200,0.060
4370,-0.215,0.085
4371,-0.190,0.090
4372,-0.190,0.090
4373,-0.185,0.090
4374,-0.180,0.065
4375,-0.180,0.045
4376,-0.195,0.070
4377,-0.175,0.085
4378,-0.165,0.090
4379,-0.160,0.080
4380,-0.175,0.080
4381,-0.180,0.080
4382,-0.185,0.110
4383,-0.160,0.130
4384,-0.135,0.130
4385,-0.120,0.120
4386,-0.085,0.050
4387,-0.085,-0.030
4388,-0.045,-0.140
4389,-0.010,-0.265
4390,0.060,-0.405
4391,0.160,-0.565
4392,0.275,-0.735
4393,0.390,-0.910
4394,0.555,-1.010
4395,0.720,-1.015
4396,0.875,-0.980
4397,1.015,-0.890
4398,1.135,-0.790
4399,1.255,-0.655
4400,1.340,-0.490
4401,1.340,-0.320
4402,1.240,-0.170
4403,1.035,-0.045
4404,0.765,0.010
4405,0.530,0.025
4406,0.315,0.025
4407,0.145,0.015
4408,0.015,-0.005
4409,-0.090,0.005
4410,-0.145,0.015
4411,-0.150,0.035
4412,-0.125,0.050
4413,-0.115,0.080
4414,-0.110,0.100
4415,-0.135,0.095
4416,-0.145,0.075
4417,-0.185,0.075
4418,-0.180,0.085
4419,-0.185,0.095
4420,-0.180,0.115
4421,-0.180,0.115
4422,-0.220,0.110
4423,-0.230,0.100
4424,-0.235,0.090
4425,-0.230,0.115
4426,-0.230,0.125
4427,-0.225,0.110
4428,-0.235,0.105
4429,-0.245,0.090
4430,-0.245,0.095
4431,-0.245,0.120
4432,-0.225,0.130
4433,-0.220,0.115
4434,-0.230,0.105
4435,-0.255,0.100
4436,-0.265,0.095
4437,-0.250,0.115
4438,-0.230,0.125
4439,-0.225,0.140
4440,-0.235,0.105
4441,-0.245,0.100
4442,-0.250,0.110
4443,-0.250,0.120
4444,-0.225,0.120
4445,-0.215,0.120
4446,-0.230,0.100
4447,-0.245,0.090
4448,-0.260,0.100
4449,-0.225,0.100
4450,-0.230,0.110
4451,-0.215,0.105
4452,-0.215,0.095
4453,-0.235,0.095
4454,-0.235,0.085
4455,-0.220,0.105
4456,-0.205,0.100
4457,-0.210,0.095
4458,-0.205,0.090
4459,-0.200,0.075
4460,-0.190,0.080
4461,-0.190,0.090
4462,-0.170,0.100
4463,-0.175,0.090
4464,-0.155,0.070
4465,-0.175,0.055
4466,-0.170,0.070
4467,-0.155,0.075
4468,-0.130,0.070
4469,-0.135,0.065
4470,-0.120,0.045
4471,-0.130,0.030
4472,-0.140,0.040
4473,-0.110,0.055
4474,-0.075,0.055
4475,-0.060,0.055
4476,-0.055,0.030
4477,-0.055,0.020
4478,-0.040,0.005
4479,-0.030,0.020
4480,-0.010,0.030
4481,0.010,0.025
4482,0.010,0.005
4483,0.010,0.000
4484,0.010,0.000
4485,0.035,-0.005
4486,0.065,0.010
4487,0.075,-0.005
4488,0.065,-0.025
4489,0.060,-0.030
4490,0.075,-0.010
4491,0.100,-0.010
4492,0.105,0.005
4493,0.135,0.000
4494,0.125,-0.015
4495,0.120,-0.030
4496,0.115,-0.010
4497,0.130,0.015
4498,0.140,0.025
4499,0.115,0.035
4500,0.095,0.025
4501,0.065,0.005
4502,0.055,0.035
4503,0.065,0.055
4504,0.045,0.075
4505,0.025,0.070
4506,0.000,0.070
4507,-0.040,0.060
4508,-0.065,0.080
4509,-0.080,0.095
4510,-0.090,0.105
4511,-0.090,0.090
4512,-0.105,0.090
4513,-0.140,0.085
4514,-0.155,0.080
4515,-0.170,0.100
4516,-0.170,0.105
4517,-0.175,0.120
4518,-0.190,0.100
4519,-0.230,0.095
4520,-0.230,0.090
4521,-0.235,0.115
4522,-0.220,0.125
4523,-0.230,0.115
4524,-0.235,0.090
4525,-0.250,0.095
4526,-0.260,0.090
4527,-0.255,0.105
4528,-0.255,0.120
4529,-0.255,0.105
4530,-0.265,0.090
4531,-0.270,0.095
4532,-0.270,0.095
4533,-0.270,0.105
4534,-0.270,0.115
4535,-0.245,0.120
4536,-0.250,0.120
4537,-0.260,0.085
4538,-0.270,0.105
4539,-0.270,0.120
4540,-0.255,0.135
4541,-0.245,0.145
4542,-0.260,0.110
4543,-0.275,0.105
4544,-0.270,0.105
4545,-0.275,0.120
4546,-0.270,0.140
4547,-0.265,0.125
4548,-0.275,0.105
4549,-0.275,0.105
4550,-0.285,0.115
4551,-0.265,0.125
4552,-0.250,0.135
4553,-0.250,0.135
4554,-0.255,0.115
4555,-0.275,0.120
4556,-0.265,0.115
4557,-0.255,0.130
4558,-0.240,0.135
4559,-0.235,0.130
4560,-0.250,0.120
4561,-0.275,0.105
4562,-0.270,0.115
4563,-0.265,0.125
4564,-0.255,0.135
4565,-0.245,0.125
4566,-0.250,0.110
4567,-0.275,0.110
4568,-0.270,0.100
4569,-0.260,0.125
4570,-0.250,0.135
4571,-0.250,0.125
4572,-0.250,0.115
4573,-0.270,0.100
4574,-0.275,0.115
4575,-0.265,0.125
4576,-0.255,0.140
4577,-0.260,0.130
4578,-0.265,0.115
4579,-0.270,0.110
4580,-0.275,0.120
4581,-0.280,0.130
4582,-0.255,0.135
4583,-0.255,0.125
4584,-0.260,0.130
4585,-0.265,0.110
4586,-0.275,0.115
4587,-0.255,0.135
4588,-0.250,0.140
4589,-0.235,0.135
4590,-0.255,0.135
4591,-0.265,0.120
4592,-0.270,0.120
4593,-0.260,0.130
4594,-0.235,0.140
4595,-0.255,0.145
4596,-0.255,0.125
4597,-0.265,0.110
4598,-0.285,0.115
4599,-0.260,0.140
4600,-0.255,0.150
4601,-0.235,0.150
4602,-0.245,0.130
4603,-0.270,0.120
4604,-0.270,0.120
4605,-0.255,0.145
4606,-0.255,0.145
4607,-0.245,0.140
4608,-0.255,0.125
4609,-0.275,0.110
4610,-0.275,0.125
4611,-0.265,0.135
4612,-0.245,0.140
4613,-0.245,0.125
4614,-0.260,0.125
4615,-0.260,0.110
4616,-0.270,0.115
4617,-0.265,0.130
4618,-0.260,0.135
4619,-0.245,0.135
4620,-0.265,0.120
4621,-0.280,0.105
4622,-0.280,0.115
4623,-0.255,0.125
4624,-0.260,0.150
4625,-0.265,0.135
4626,-0.265,0.115
4627,-0.285,0.105
4628,-0.280,0.110
4629,-0.260,0.125
4630,-0.255,0.130
4631,-0.260,0.120
4632,-0.265,0.115
4633,-0.280,0.110
4634,-0.280,0.105
4635,-0.270,0.130
4636,-0.255,0.135
4637,-0.260,0.130
4638,-0.265,0.110
4639,-0.305,0.105
4640,-0.295,0.115
4641,-0.285,0.125
4642,-0.260,0.125
4643,-0.265,0.125
4644,-0.265,0.100
4645,-0.285,0.110
4646,-0.275,0.110
4647,-0.275,0.120
4648,-0.250,0.120
4649,-0.250,0.120
4650,-0.255,0.105
4651,-0.270,0.095
4652,-0.275,0.110
4653,-0.280,0.125
4654,-0.270,0.135
4655,-0.255,0.125
4656,-0.270,0.110
4657,-0.275,0.100
4658,-0.270,0.105
4659,-0.265,0.115
4660,-0.260,0.120
4661,-0.255,0.120
4662,-0.255,0.115
4663,-0.275,0.100
4664,-0.285,0.115
4665,-0.270,0.130
4666,-0.260,0.135
4667,-0.245,0.120
4668,-0.260,0.110
4669,-0.270,0.095
4670,-0.275,0.120
4671,-0.270,0.125
4672,-0.255,0.130
4673,-0.250,0.130
4674,-0.260,0.120
4675,-0.265,0.105
4676,-0.270,0.105
4677,-0.270,0.120
4678,-0.245,0.135
4679,-0.250,0.125
4680,-0.265,0.115
4681,-0.265,0.105
4682,-0.270,0.115
4683,-0.255,0.120
4684,-0.245,0.125
4685,-0.250,0.120
4686,-0.255,0.115
4687,-0.280,0.095
4688,-0.270,0.110
4689,-0.275,0.125
4690,-0.250,0.140
4691,-0.245,0.130
4692,-0.250,0.110
4693,-0.280,0.110
4694,-0.285,0.110
4695,-0.270,0.120
4696,-0.245,0.120
4697,-0.240,0.125
4698,-0.270,0.110
4699,-0.270,0.100
4700,-0.280,0.100
4701,-0.265,0.110
4702,-0.270,0.145
4703,-0.275,0.115
4704,-0.270,0.110
4705,-0.275,0.105
4706,-0.280,0.110
4707,-0.260,0.125
4708,-0.255,0.120
4709,-0.255,0.120
4710,-0.255,0.110
4711,-0.280,0.105
4712,-0.270,0.110
4713,-0.255,0.115
4714,-0.255,0.140
4715,-0.240,0.130
4716,-0.270,0.115
4717,-0.275,0.100
4718,-0.280,0.105
4719,-0.270,0.110
4720,-0.265,0.125
4721,-0.255,0.120
4722,-0.265,0.115
4723,-0.275,0.085
4724,-0.275,0.090
4725,-0.270,0.105
4726,-0.260,0.120
4727,-0.265,0.095
4728,-0.265,0.085
4729,-0.285,0.080
4730,-0.290,0.085
4731,-0.270,0.095
4732,-0.240,0.105
4733,-0.255,0.110
4734,-0.255,0.100
4735,-0.255,0.100
4736,-0.255,0.125
4737,-0.250,0.150
4738,-0.240,0.165
4739,-0.250,0.160
4740,-0.260,0.145
4741,-0.265,0.135
4742,-0.270,0.145
4743,-0.245,0.150
4744,-0.210,0.155
4745,-0.200,0.140
4746,-0.190,0.120
4747,-0.200,0.120
4748,-0.195,0.110
4749,-0.195,0.130
4750,-0.175,0.140
4751,-0.170,0.135
4752,-0.170,0.120
4753,-0.195,0.115
4754,-0.190,0.125
4755,-0.185,0.135
4756,-0.185,0.135
4757,-0.185,0.130
4758,-0.195,0.115
4759,-0.220,0.105
4760,-0.230,0.105
4761,-0.230,0.120
4762,-0.225,0.125
4763,-0.225,0.125
4764,-0.245,0.120
4765,-0.245,0.110
4766,-0.255,0.115
4767,-0.240,0.120
4768,-0.220,0.130
4769,-0.215,0.120
4770,-0.230,0.110
4771,-0.230,0.095
4772,-0.250,0.100
4773,-0.230,0.120
4774,-0.230,0.120
4775,-0.205,0.115
4776,-0.215,0.105
4777,-0.230,0.095
4778,-0.230,0.095
4779,-0.215,0.135
4780,-0.190,0.140
4781,-0.205,0.165
4782,-0.215,0.155
4783,-0.200,0.150
4784,-0.190,0.150
4785,-0.155,0.135
4786,-0.110,0.055
4787,-0.095,-0.040
4788,-0.060,-0.160
4789,-0.040,-0.275
4790,0.050,-0.410
4791,0.175,-0.530
4792,0.305,-0.670
4793,0.425,-0.815
4794,0.565,-0.915
4795,0.685,-0.940
4796,0.810,-0.890
4797,0.930,-0.820
4798,1.050,-0.710
4799,1.170,-0.575
4800,1.215,-0.430
4801,1.170,-0.270
4802,1.060,-0.140
4803,0.895,-0.025
4804,0.700,0.030
4805,0.490,0.045
4806,0.290,0.010
4807,0.110,0.000
4808,-0.015,0.030
4809,-0.100,0.060
4810,-0.125,0.100
4811,-0.110,0.115
4812,-0.115,0.110
4813,-0.145,0.110
4814,-0.160,0.130
4815,-0.205,0.135
4816,-0.200,0.170
4817,-0.200,0.155
4818,-0.230,0.150
4819,-0.250,0.130
4820,-0.260,0.145
4821,-0.255,0.160
4822,-0.245,0.180
4823,-0.250,0.180
4824,-0.260,0.150
4825,-0.275,0.150
4826,-0.285,0.155
4827,-0.270,0.160
4828,-0.265,0.175
4829,-0.260,0.170
4830,-0.290,0.155
4831,-0.300,0.155
4832,-0.300,0.160
4833,-0.290,0.175
4834,-0.275,0.185
4835,-0.265,0.185
4836,-0.275,0.150
4837,-0.280,0.145
4838,-0.290,0.155
4839,-0.285,0.175
4840,-0.260,0.185
4841,-0.250,0.185
4842,-0.270,0.160
4843,-0.275,0.160
4844,-0.290,0.150
4845,-0.265,0.175
4846,-0.260,0.170
4847,-0.255,0.165
4848,-0.270,0.150
4849,-0.255,0.140
4850,-0.260,0.145
4851,-0.245,0.150
4852,-0.250,0.165
4853,-0.225,0.155
4854,-0.230,0.145
4855,-0.245,0.130
4856,-0.245,0.135
4857,-0.235,0.145
4858,-0.215,0.155
4859,-0.200,0.155
4860,-0.205,0.135
4861,-0.210,0.120
4862,-0.205,0.125
4863,-0.205,0.145
4864,-0.180,0.155
4865,-0.170,0.130
4866,-0.175,0.110
4867,-0.190,0.100
4868,-0.180,0.110
4869,-0.170,0.115
4870,-0.135,0.135
4871,-0.135,0.115
4872,-0.115,0.100
4873,-0.120,0.095
4874,-0.115,0.090
4875,-0.095,0.085
4876,-0.070,0.095
4877,-0.050,0.100
4878,-0.055,0.065
4879,-0.070,0.055
4880,-0.045,0.065
4881,-0.020,0.055
4882,0.010,0.070
4883,0.010,0.050
4884,0.025,0.055
4885,0.015,0.040
4886,0.030,0.035
4887,0.050,0.045
4888,0.075,0.060
4889,0.085,0.045
4890,0.090,0.025
4891,0.090,0.020
4892,0.100,0.040
4893,0.105,0.055
4894,0.120,0.070
4895,0.130,0.060
4896,0.110,0.055
4897,0.110,0.055
4898,0.090,0.065
4899,0.085,0.075
4900,0.080,0.105
4901,0.075,0.110
4902,0.060,0.095
4903,0.015,0.095
4904,0.000,0.105
4905,-0.015,0.110
4906,-0.030,0.130
4907,-0.045,0.130
4908,-0.070,0.115
4909,-0.105,0.110
4910,-0.125,0.115
4911,-0.150,0.150
4912,-0.140,0.155
4913,-0.155,0.155
4914,-0.190,0.130
4915,-0.215,0.130
4916,-0.230,0.130
4917,-0.230,0.140
4918,-0.230,0.155
4919,-0.230,0.140
4920,-0.245,0.135
4921,-0.275,0.115
4922,-0.280,0.135
4923,-0.265,0.135
4924,-0.255,0.155
4925,-0.260,0.125
4926,-0.285,0.130
4927,-0.290,0.125
4928,-0.305,0.130
4929,-0.295,0.145
4930,-0.290,0.150
4931,-0.285,0.145
4932,-0.290,0.125
4933,-0.310,0.120
4934,-0.315,0.120
4935,-0.330,0.135
4936,-0.310,0.145
4937,-0.300,0.140
4938,-0.315,0.125
4939,-0.315,0.110
4940,-0.330,0.125
4941,-0.320,0.135
4942,-0.290,0.150
4943,-0.290,0.145
4944,-0.310,0.140
4945,-0.320,0.115
4946,-0.325,0.125
4947,-0.310,0.135
4948,-0.305,0.155
4949,-0.300,0.145
4950,-0.310,0.125
4951,-0.310,0.125
4952,-0.305,0.135
4953,-0.305,0.135
4954,-0.285,0.170
4955,-0.280,0.150
4956,-0.290,0.145
4957,-0.310,0.130
4958,-0.305,0.140
4959,-0.295,0.160
4960,-0.280,0.165
4961,-0.280,0.165
4962,-0.290,0.155
4963,-0.300,0.145
4964,-0.290,0.160
4965,-0.290,0.175
4966,-0.280,0.175
4967,-0.280,0.175
4968,-0.280,0.160
4969,-0.300,0.150
4970,-0.290,0.155
4971,-0.270,0.180
4972,-0.270,0.175
4973,-0.260,0.175
4974,-0.270,0.170
4975,-0.295,0.140
4976,-0.300,0.155
4977,-0.285,0.165
4978,-0.275,0.170
4979,-0.265,0.170
4980,-0.275,0.155
4981,-0.305,0.145
4982,-0.310,0.155
4983,-0.295,0.155
4984,-0.275,0.175
4985,-0.280,0.170
4986,-0.285,0.170
4987,-0.300,0.140
4988,-0.300,0.150
4989,-0.295,0.165
4990,-0.290,0.175
4991,-0.280,0.170
4992,-0.295,0.155
4993,-0.310,0.135
4994,-0.315,0.155
4995,-0.310,0.155
4996,-0.295,0.165
4997,-0.295,0.170
4998,-0.290,0.145
4999,-0.305,0.135
5000,-0.310,0.145
5001,-0.310,0.155
5002,-0.310,0.165
5003,-0.310,0.160
5004,-0.330,0.130
5005,-0.345,0.140
5006,-0.345,0.140
5007,-0.320,0.155
5008,-0.320,0.160
5009,-0.320,0.160
5010,-0.335,0.150
5011,-0.335,0.130
5012,-0.350,0.135
5013,-0.335,0.155
5014,-0.320,0.175
5015,-0.325,0.160
5016,-0.325,0.155
5017,-0.335,0.140
5018,-0.350,0.125
5019,-0.350,0.140
5020,-0.335,0.165
5021,-0.330,0.150
5022,-0.340,0.135
5023,-0.345,0.135
5024,-0.345,0.130
5025,-0.350,0.145
5026,-0.345,0.155
5027,-0.335,0.140
5028,-0.340,0.135
5029,-0.350,0.140
5030,-0.365,0.140
5031,-0.350,0.125
5032,-0.350,0.160
5033,-0.335,0.135
5034,-0.350,0.140
5035,-0.355,0.115
5036,-0.375,0.130
5037,-0.355,0.145
5038,-0.335,0.155
5039,-0.345,0.145
5040,-0.350,0.150
5041,-0.350,0.130
5042,-0.365,0.130
5043,-0.350,0.140
5044,-0.340,0.145
5045,-0.330,0.140
5046,-0.340,0.135
5047,-0.360,0.125
5048,-0.355,0.130
5049,-0.345,0.135
5050,-0.330,0.150
5051,-0.345,0.130
5052,-0.345,0.125
5053,-0.345,0.100
5054,-0.345,0.115
5055,-0.350,0.130
5056,-0.325,0.140
5057,-0.320,0.135
5058,-0.335,0.120
5059,-0.345,0.105
5060,-0.360,0.110
5061,-0.350,0.125
5062,-0.335,0.135
5063,-0.335,0.115
5064,-0.340,0.100
5065,-0.360,0.095
5066,-0.355,0.105
5067,-0.350,0.125
5068,-0.335,0.125
5069,-0.335,0.125
5070,-0.345,0.125
5071,-0.360,0.110
5072,-0.360,0.110
5073,-0.335,0.110
5074,-0.320,0.120
5075,-0.330,0.105
5076,-0.345,0.095
5077,-0.360,0.080
5078,-0.360,0.100
5079,-0.340,0.120
5080,-0.340,0.115
5081,-0.325,0.115
5082,-0.330,0.100
5083,-0.335,0.095
5084,-0.345,0.100
5085,-0.335,0.125
5086,-0.325,0.130
5087,-0.325,0.125
5088,-0.325,0.105
5089,-0.345,0.090
5090,-0.340,0.105
5091,-0.345,0.120
5092,-0.335,0.125
5093,-0.310,0.115
5094,-0.330,0.110
5095,-0.350,0.095
5096,-0.350,0.105
5097,-0.330,0.115
5098,-0.300,0.135
5099,-0.310,0.115
5100,-0.310,0.100
5101,-0.325,0.105
5102,-0.320,0.120
5103,-0.320,0.125
5104,-0.305,0.125
5105,-0.305,0.120
5106,-0.325,0.105
5107,-0.320,0.095
5108,-0.325,0.105
5109,-0.310,0.110
5110,-0.315,0.120
5111,-0.290,0.120
5112,-0.295,0.105
5113,-0.315,0.100
5114,-0.310,0.100
5115,-0.300,0.130
5116,-0.315,0.140
5117,-0.290,0.130
5118,-0.295,0.110
5119,-0.315,0.110
5120,-0.315,0.115
5121,-0.305,0.125
5122,-0.290,0.120
5123,-0.290,0.120
5124,-0.305,0.110
5125,-0.300,0.090
5126,-0.310,0.100
5127,-0.305,0.120
5128,-0.290,0.130
5129,-0.280,0.120
5130,-0.285,0.090
5131,-0.305,0.100
5132,-0.290,0.120
5133,-0.295,0.145
5134,-0.280,0.160
5135,-0.275,0.160
5136,-0.285,0.145
5137,-0.290,0.140
5138,-0.295,0.150
5139,-0.300,0.155
5140,-0.270,0.160
5141,-0.255,0.145
5142,-0.270,0.145
5143,-0.255,0.135
5144,-0.255,0.130
5145,-0.245,0.145
5146,-0.220,0.155
5147,-0.205,0.145
5148,-0.220,0.125
5149,-0.235,0.105
5150,-0.230,0.110
5151,-0.210,0.125
5152,-0.205,0.145
5153,-0.210,0.125
5154,-0.220,0.120
5155,-0.240,0.090
5156,-0.240,0.095
5157,-0.250,0.100
5158,-0.240,0.115
5159,-0.245,0.110
5160,-0.250,0.090
5161,-0.280,0.080
5162,-0.295,0.075
5163,-0.300,0.085
5164,-0.280,0.105
5165,-0.275,0.105
5166,-0.270,0.085
5167,-0.285,0.070
5168,-0.285,0.080
5169,-0.290,0.070
5170,-0.275,0.095
5171,-0.270,0.080
5172,-0.275,0.070
5173,-0.290,0.055
5174,-0.285,0.085
5175,-0.275,0.095
5176,-0.250,0.095
5177,-0.245,0.090
5178,-0.255,0.080
5179,-0.260,0.070
5180,-0.265,0.090
5181,-0.240,0.125
5182,-0.215,0.160
5183,-0.205,0.140
5184,-0.200,0.110
5185,-0.185,0.065
5186,-0.150,-0.010
5187,-0.120,-0.100
5188,-0.065,-0.205
5189,-0.020,-0.370
5190,0.040,-0.540
5191,0.115,-0.700
5192,0.220,-0.850
5193,0.360,-0.960
5194,0.525,-1.025
5195,0.655,-1.045
5196,0.770,-1.005
5197,0.865,-0.935
5198,0.995,-0.805
5199,1.125,-0.660
5200,1.195,-0.490
5201,1.195,-0.335
5202,1.110,-0.215
5203,0.945,-0.105
5204,0.725,-0.005
5205,0.510,0.060
5206,0.335,0.060
5207,0.175,0.025
5208,0.025,0.000
5209,-0.095,0.000
5210,-0.150,0.025
5211,-0.170,0.060
5212,-0.155,0.090
5213,-0.150,0.100
5214,-0.165,0.090
5215,-0.195,0.090
5216,-0.195,0.095
5217,-0.215,0.115
5218,-0.210,0.135
5219,-0.220,0.130
5220,-0.255,0.115
5221,-0.280,0.105
5222,-0.295,0.105
5223,-0.285,0.105
5224,-0.280,0.120
5225,-0.275,0.110
5226,-0.280,0.110
5227,-0.310,0.110
5228,-0.320,0.120
5229,-0.305,0.130
5230,-0.290,0.135
5231,-0.300,0.130
5232,-0.295,0.125
5233,-0.315,0.120
5234,-0.315,0.115
5235,-0.320,0.140
5236,-0.290,0.150
5237,-0.295,0.140
5238,-0.285,0.125
5239,-0.315,0.110
5240,-0.310,0.120
5241,-0.305,0.130
5242,-0.300,0.135
5243,-0.305,0.135
5244,-0.305,0.120
5245,-0.315,0.110
5246,-0.320,0.115
5247,-0.310,0.125
5248,-0.285,0.130
5249,-0.285,0.120
5250,-0.290,0.115
5251,-0.305,0.095
5252,-0.305,0.090
5253,-0.300,0.125
5254,-0.290,0.130
5255,-0.280,0.120
5256,-0.280,0.105
5257,-0.300,0.100
5258,-0.290,0.095
5259,-0.285,0.105
5260,-0.275,0.120
5261,-0.260,0.115
5262,-0.255,0.110
5263,-0.250,0.090
5264,-0.260,0.095
5265,-0.245,0.110
5266,-0.235,0.125
5267,-0.235,0.115
5268,-0.220,0.105
5269,-0.230,0.075
5270,-0.230,0.090
5271,-0.210,0.085
5272,-0.185,0.105
5273,-0.160,0.095
5274,-0.165,0.065
5275,-0.165,0.060
5276,-0.170,0.075
5277,-0.150,0.075
5278,-0.120,0.080
5279,-0.115,0.060
5280,-0.105,0.060
5281,-0.105,0.055
5282,-0.090,0.055
5283,-0.075,0.045
5284,-0.055,0.045
5285,-0.035,0.045
5286,-0.035,0.030
5287,-0.040,0.015
5288,-0.030,0.025
5289,-0.020,0.030
5290,0.000,0.045
5291,0.030,0.020
5292,0.025,0.015
5293,0.020,0.020
5294,0.030,0.010
5295,0.060,0.035
5296,0.085,0.045
5297,0.085,0.045
5298,0.070,0.030
5299,0.060,0.030
5300,0.060,0.045
5301,0.070,0.055
5302,0.085,0.085
5303,0.085,0.070
5304,0.070,0.065
5305,0.030,0.065
5306,0.020,0.080
5307,0.005,0.100
5308,0.005,0.115
5309,-0.010,0.110
5310,-0.040,0.100
5311,-0.070,0.105
5312,-0.085,0.115
5313,-0.095,0.125
5314,-0.105,0.135
5315,-0.130,0.135
5316,-0.140,0.135
5317,-0.185,0.115
5318,-0.200,0.115
5319,-0.205,0.115
5320,-0.220,0.135
5321,-0.230,0.135
5322,-0.265,0.130
5323,-0.270,0.110
5324,-0.285,0.125
5325,-0.295,0.135
5326,-0.280,0.145
5327,-0.285,0.140
5328,-0.295,0.120
5329,-0.320,0.115
5330,-0.320,0.130
5331,-0.315,0.145
5332,-0.300,0.155
5333,-0.315,0.145
5334,-0.325,0.125
5335,-0.345,0.120
5336,-0.345,0.120
5337,-0.345,0.125
5338,-0.320,0.145
5339,-0.320,0.130
5340,-0.340,0.125
5341,-0.340,0.105
5342,-0.350,0.125
5343,-0.340,0.130
5344,-0.325,0.145
5345,-0.325,0.140
5346,-0.330,0.135
5347,-0.330,0.115
5348,-0.340,0.130
5349,-0.340,0.145
5350,-0.325,0.150
5351,-0.325,0.125
5352,-0.320,0.120
5353,-0.345,0.130
5354,-0.340,0.130
5355,-0.335,0.145
5356,-0.310,0.160
5357,-0.310,0.145
5358,-0.310,0.135
5359,-0.335,0.110
5360,-0.335,0.125
5361,-0.320,0.130
5362,-0.320,0.150
5363,-0.310,0.140
5364,-0.320,0.130
5365,-0.330,0.125
5366,-0.320,0.125
5367,-0.340,0.145
5368,-0.305,0.155
5369,-0.300,0.145
5370,-0.310,0.120
5371,-0.330,0.110
5372,-0.320,0.120
5373,-0.320,0.130
5374,-0.295,0.150
5375,-0.305,0.130
5376,-0.315,0.125
5377,-0.325,0.110
5378,-0.325,0.115
5379,-0.330,0.125
5380,-0.305,0.135
5381,-0.300,0.145
5382,-0.305,0.130
5383,-0.335,0.110
5384,-0.340,0.125
5385,-0.325,0.130
5386,-0.310,0.145
5387,-0.305,0.140
5388,-0.320,0.125
5389,-0.335,0.110
5390,-0.335,0.120
5391,-0.335,0.140
5392,-0.305,0.145
5393,-0.300,0.140
5394,-0.320,0.135
5395,-0.335,0.125
5396,-0.330,0.125
5397,-0.320,0.125
5398,-0.310,0.150
5399,-0.305,0.135
5400,-0.315,0.120
5401,-0.340,0.115
5402,-0.325,0.115
5403,-0.330,0.130
5404,-0.315,0.155
5405,-0.310,0.145
5406,-0.310,0.135
5407,-0.320,0.105
5408,-0.345,0.130
5409,-0.330,0.130
5410,-0.310,0.150
5411,-0.305,0.140
5412,-0.325,0.140
5413,-0.320,0.130
5414,-0.320,0.130
5415,-0.300,0.130
5416,-0.305,0.150
5417,-0.295,0.140
5418,-0.300,0.120
5419,-0.335,0.120
5420,-0.350,0.125
5421,-0.330,0.135
5422,-0.315,0.155
5423,-0.305,0.155
5424,-0.310,0.120
5425,-0.325,0.115
5426,-0.330,0.120
5427,-0.320,0.130
5428,-0.310,0.130
5429,-0.305,0.125
5430,-0.305,0.110
5431,-0.330,0.105
5432,-0.335,0.130
5433,-0.320,0.135
5434,-0.310,0.155
5435,-0.295,0.125
5436,-0.300,0.110
5437,-0.325,0.110
5438,-0.335,0.115
5439,-0.315,0.130
5440,-0.315,0.135
5441,-0.300,0.135
5442,-0.310,0.125
5443,-0.320,0.105
5444,-0.330,0.125
5445,-0.315,0.130
5446,-0.295,0.140
5447,-0.295,0.125
5448,-0.320,0.105
5449,-0.320,0.100
5450,-0.325,0.115
5451,-0.315,0.130
5452,-0.305,0.135
5453,-0.290,0.135
5454,-0.300,0.115
5455,-0.310,0.110
5456,-0.315,0.105
5457,-0.305,0.120
5458,-0.300,0.125
5459,-0.305,0.125
5460,-0.300,0.120
5461,-0.330,0.100
5462,-0.325,0.105
5463,-0.315,0.115
5464,-0.305,0.120
5465,-0.295,0.120
5466,-0.305,0.110
5467,-0.335,0.100
5468,-0.335,0.100
5469,-0.315,0.120
5470,-0.300,0.135
5471,-0.300,0.125
5472,-0.305,0.110
5473,-0.315,0.105
5474,-0.330,0.115
5475,-0.315,0.120
5476,-0.285,0.125
5477,-0.290,0.120
5478,-0.320,0.105
5479,-0.325,0.105
5480,-0.335,0.105
5481,-0.295,0.115
5482,-0.290,0.140
5483,-0.285,0.120
5484,-0.290,0.100
5485,-0.310,0.095
5486,-0.300,0.095
5487,-0.295,0.115
5488,-0.285,0.120
5489,-0.275,0.120
5490,-0.295,0.090
5491,-0.300,0.080
5492,-0.300,0.095
5493,-0.285,0.110
5494,-0.270,0.130
5495,-0.275,0.110
5496,-0.285,0.105
5497,-0.295,0.095
5498,-0.305,0.095
5499,-0.285,0.100
5500,-0.275,0.115
5501,-0.285,0.100
5502,-0.290,0.080
5503,-0.310,0.075
5504,-0.300,0.105
5505,-0.310,0.120
5506,-0.275,0.115
5507,-0.265,0.115
5508,-0.265,0.100
5509,-0.285,0.095
5510,-0.290,0.100
5511,-0.290,0.115
5512,-0.275,0.115
5513,-0.270,0.105
5514,-0.265,0.090
5515,-0.280,0.080
5516,-0.285,0.085
5517,-0.275,0.110
5518,-0.270,0.115
5519,-0.270,0.110
5520,-0.275,0.090
5521,-0.285,0.085
5522,-0.275,0.085
5523,-0.270,0.110
5524,-0.270,0.115
5525,-0.255,0.105
5526,-0.275,0.090
5527,-0.290,0.085
5528,-0.290,0.085
5529,-0.285,0.090
5530,-0.275,0.120
5531,-0.260,0.100
5532,-0.275,0.090
5533,-0.280,0.075
5534,-0.280,0.080
5535,-0.280,0.085
5536,-0.280,0.105
5537,-0.275,0.085
5538,-0.265,0.075
5539,-0.285,0.065
5540,-0.285,0.075
5541,-0.275,0.090
5542,-0.255,0.105
5543,-0.260,0.105
5544,-0.270,0.105
5545,-0.285,0.095
5546,-0.285,0.105
5547,-0.275,0.125
5548,-0.265,0.135
5549,-0.260,0.125
5550,-0.265,0.135
5551,-0.280,0.115
5552,-0.290,0.115
5553,-0.260,0.125
5554,-0.240,0.125
5555,-0.220,0.125
5556,-0.220,0.115
5557,-0.225,0.090
5558,-0.220,0.090
5559,-0.200,0.105
5560,-0.190,0.120
5561,-0.190,0.110
5562,-0.200,0.100
5563,-0.210,0.080
5564,-0.215,0.095
5565,-0.210,0.100
5566,-0.210,0.105
5567,-0.210,0.100
5568,-0.230,0.085
5569,-0.230,0.070
5570,-0.255,0.075
5571,-0.240,0.090
5572,-0.230,0.100
5573,-0.230,0.100
5574,-0.235,0.070
5575,-0.260,0.065
5576,-0.265,0.075
5577,-0.255,0.085
5578,-0.230,0.090
5579,-0.240,0.085
5580,-0.245,0.060
5581,-0.260,0.050
5582,-0.250,0.060
5583,-0.240,0.080
5584,-0.230,0.100
5585,-0.230,0.075
5586,-0.230,0.075
5587,-0.240,0.060
5588,-0.245,0.070
5589,-0.230,0.080
5590,-0.210,0.085
5591,-0.205,0.085
5592,-0.200,0.095
5593,-0.210,0.095
5594,-0.195,0.125
5595,-0.185,0.145
5596,-0.160,0.170
5597,-0.145,0.130
5598,-0.125,0.075
5599,-0.120,-0.010
5600,-0.090,-0.105
5601,-0.045,-0.195
5602,-0.010,-0.325
5603,0.050,-0.470
5604,0.150,-0.630
5605,0.230,-0.795
5606,0.355,-0.940
5607,0.480,-1.030
5608,0.605,-1.055
5609,0.735,-1.015
5610,0.825,-0.950
5611,0.885,-0.850
5612,1.005,-0.680
5613,1.080,-0.515
5614,1.080,-0.345
5615,0.985,-0.200
5616,0.825,-0.100
5617,0.645,-0.040
5618,0.490,0.010
5619,0.345,0.015
5620,0.225,-0.005
5621,0.095,-0.010
5622,-0.020,-0.005
5623,-0.100,0.015
5624,-0.140,0.035
5625,-0.130,0.065
5626,-0.115,0.100
5627,-0.125,0.105
5628,-0.145,0.100
5629,-0.180,0.090
5630,-0.200,0.100
5631,-0.205,0.130
5632,-0.205,0.130
5633,-0.220,0.135
5634,-0.235,0.120
5635,-0.255,0.105
5636,-0.255,0.125
5637,-0.275,0.120
5638,-0.270,0.155
5639,-0.260,0.120
5640,-0.270,0.110
5641,-0.290,0.100
5642,-0.300,0.120
5643,-0.280,0.130
5644,-0.285,0.145
5645,-0.280,0.145
5646,-0.285,0.120
5647,-0.295,0.120
5648,-0.295,0.115
5649,-0.300,0.130
5650,-0.290,0.145
5651,-0.280,0.140
5652,-0.295,0.130
5653,-0.305,0.130
5654,-0.305,0.125
5655,-0.285,0.140
5656,-0.275,0.160
5657,-0.275,0.140
5658,-0.275,0.135
5659,-0.285,0.120
5660,-0.290,0.130
5661,-0.290,0.140
5662,-0.275,0.155
5663,-0.275,0.135
5664,-0.275,0.125
5665,-0.295,0.125
5666,-0.275,0.110
5667,-0.280,0.125
5668,-0.270,0.130
5669,-0.260,0.120
5670,-0.270,0.100
5671,-0.270,0.100
5672,-0.270,0.100
5673,-0.260,0.110
5674,-0.240,0.125
5675,-0.240,0.115
5676,-0.270,0.095
5677,-0.265,0.085
5678,-0.270,0.095
5679,-0.245,0.115
5680,-0.235,0.105
5681,-0.215,0.095
5682,-0.215,0.080
5683,-0.225,0.085
5684,-0.210,0.075
5685,-0.195,0.095
5686,-0.170,0.090
5687,-0.155,0.085
5688,-0.170,0.080
5689,-0.175,0.050
5690,-0.160,0.055
5691,-0.140,0.065
5692,-0.110,0.075
5693,-0.100,0.060
5694,-0.105,0.035
5695,-0.105,0.020
5696,-0.105,0.020
5697,-0.090,0.020
5698,-0.065,0.030
5699,-0.055,0.020
5700,-0.045,0.000
5701,-0.055,-0.005
5702,-0.030,0.005
5703,-0.015,0.015
5704,0.015,0.010
5705,0.030,-0.010
5706,0.025,-0.025
5707,0.025,-0.045
5708,0.025,-0.035
5709,0.045,-0.015
5710,0.060,0.010
5711,0.075,-0.005
5712,0.075,-0.005
5713,0.070,-0.020
5714,0.060,-0.005
5715,0.075,0.025
5716,0.090,0.040
5717,0.075,0.035
5718,0.050,0.035
5719,0.030,0.015
5720,0.010,0.035
5721,0.005,0.050
5722,0.005,0.065
5723,-0.020,0.075
5724,-0.040,0.070
5725,-0.070,0.050
5726,-0.095,0.075
5727,-0.120,0.095
5728,-0.110,0.105
5729,-0.125,0.105
5730,-0.160,0.080
5731,-0.180,0.070
5732,-0.195,0.080
5733,-0.205,0.095
5734,-0.210,0.115
5735,-0.230,0.105
5736,-0.240,0.105
5737,-0.260,0.105
5738,-0.270,0.100
5739,-0.255,0.100
5740,-0.255,0.115
5741,-0.255,0.115
5742,-0.280,0.095
5743,-0.295,0.085
5744,-0.310,0.100
5745,-0.300,0.100
5746,-0.290,0.115
5747,-0.295,0.095
5748,-0.295,0.080
5749,-0.315,0.080
5750,-0.320,0.085
5751,-0.330,0.100
5752,-0.310,0.110
5753,-0.315,0.105
5754,-0.325,0.100
5755,-0.345,0.080
5756,-0.335,0.095
5757,-0.340,0.090
5758,-0.330,0.100
5759,-0.310,0.110
5760,-0.320,0.090
5761,-0.335,0.085
5762,-0.340,0.090
5763,-0.330,0.105
5764,-0.315,0.125
5765,-0.315,0.110
5766,-0.320,0.100
5767,-0.335,0.090
5768,-0.345,0.100
5769,-0.330,0.100
5770,-0.315,0.115
5771,-0.315,0.115
5772,-0.330,0.105
5773,-0.340,0.095
5774,-0.340,0.085
5775,-0.330,0.110
5776,-0.315,0.125
5777,-0.320,0.115
5778,-0.335,0.110
5779,-0.355,0.085
5780,-0.350,0.100
5781,-0.340,0.115
5782,-0.325,0.120
5783,-0.330,0.110
5784,-0.335,0.105
5785,-0.355,0.090
5786,-0.355,0.095
5787,-0.340,0.105
5788,-0.320,0.115
5789,-0.320,0.110
5790,-0.335,0.100
5791,-0.330,0.080
5792,-0.330,0.085
5793,-0.325,0.095
5794,-0.315,0.125
5795,-0.310,0.110
5796,-0.315,0.105
5797,-0.330,0.090
5798,-0.320,0.100
5799,-0.315,0.115
5800,-0.305,0.115
5801,-0.295,0.100
5802,-0.305,0.080
5803,-0.315,0.090
5804,-0.325,0.095
5805,-0.315,0.105
5806,-0.295,0.110
5807,-0.290,0.090
5808,-0.310,0.100
5809,-0.315,0.085
5810,-0.315,0.090
5811,-0.325,0.110
5812,-0.305,0.110
5813,-0.290,0.105
5814,-0.305,0.080
5815,-0.330,0.080
5816,-0.320,0.095
5817,-0.320,0.090
5818,-0.295,0.100
5819,-0.305,0.100
5820,-0.305,0.075
5821,-0.330,0.080
5822,-0.325,0.080
5823,-0.325,0.085
5824,-0.305,0.115
5825,-0.300,0.095
5826,-0.310,0.080
5827,-0.330,0.070
5828,-0.330,0.075
5829,-0.325,0.090
5830,-0.300,0.090
5831,-0.295,0.090
5832,-0.320,0.090
5833,-0.335,0.075
5834,-0.325,0.090
5835,-0.320,0.100
5836,-0.315,0.110
5837,-0.315,0.095
5838,-0.300,0.085
5839,-0.320,0.070
5840,-0.320,0.085
5841,-0.305,0.090
5842,-0.305,0.095
5843,-0.305,0.095
5844,-0.305,0.070
5845,-0.335,0.060
5846,-0.320,0.060
5847,-0.315,0.080
5848,-0.300,0.100
5849,-0.305,0.085
5850,-0.315,0.080
5851,-0.335,0.065
5852,-0.335,0.065
5853,-0.310,0.085
5854,-0.320,0.080
5855,-0.300,0.085
5856,-0.310,0.070
5857,-0.320,0.060
5858,-0.330,0.070
5859,-0.315,0.085
5860,-0.305,0.090
5861,-0.300,0.080
5862,-0.315,0.055
5863,-0.315,0.060
5864,-0.330,0.075
5865,-0.325,0.090
5866,-0.305,0.100
5867,-0.305,0.085
5868,-0.315,0.070
5869,-0.315,0.070
5870,-0.325,0.080
5871,-0.315,0.080
5872,-0.295,0.095
5873,-0.290,0.080
5874,-0.290,0.060
5875,-0.310,0.055
5876,-0.320,0.065
5877,-0.320,0.070
5878,-0.300,0.085
5879,-0.295,0.080
5880,-0.305,0.065
5881,-0.320,0.055
5882,-0.325,0.050
5883,-0.320,0.060
5884,-0.310,0.080
5885,-0.305,0.070
5886,-0.310,0.070
5887,-0.320,0.055
5888,-0.335,0.070
5889,-0.330,0.070
5890,-0.320,0.075
5891,-0.305,0.075
5892,-0.310,0.055
5893,-0.330,0.045
5894,-0.345,0.055
5895,-0.320,0.070
5896,-0.305,0.070
5897,-0.300,0.060
5898,-0.325,0.040
5899,-0.335,0.040
5900,-0.325,0.045
5901,-0.315,0.075
5902,-0.295,0.085
5903,-0.300,0.085
5904,-0.295,0.060
5905,-0.310,0.050
5906,-0.325,0.060
5907,-0.320,0.065
5908,-0.300,0.070
5909,-0.315,0.070
5910,-0.305,0.055
5911,-0.315,0.040
5912,-0.320,0.055
5913,-0.310,0.050
5914,-0.300,0.055
5915,-0.295,0.065
5916,-0.305,0.045
5917,-0.325,0.055
5918,-0.320,0.055
5919,-0.320,0.065
5920,-0.295,0.070
5921,-0.285,0.050
5922,-0.295,0.045
5923,-0.325,0.025
5924,-0.310,0.035
5925,-0.305,0.055
5926,-0.290,0.065
5927,-0.295,0.070
5928,-0.300,0.040
5929,-0.315,0.030
5930,-0.320,0.035
5931,-0.295,0.050
5932,-0.295,0.060
5933,-0.300,0.050
5934,-0.285,0.035
5935,-0.295,0.025
5936,-0.295,0.020
5937,-0.290,0.035
5938,-0.270,0.040
5939,-0.275,0.030
5940,-0.285,0.005
5941,-0.295,0.010
5942,-0.290,0.030
5943,-0.280,0.045
5944,-0.260,0.055
5945,-0.265,0.040
5946,-0.280,0.030
5947,-0.290,0.025
5948,-0.300,0.040
5949,-0.295,0.060
5950,-0.255,0.080
5951,-0.275,0.090
5952,-0.280,0.075
5953,-0.285,0.070
5954,-0.300,0.065
5955,-0.280,0.075
5956,-0.245,0.085
5957,-0.245,0.085
5958,-0.255,0.070
5959,-0.255,0.055
5960,-0.240,0.050
5961,-0.230,0.055
5962,-0.210,0.070
5963,-0.205,0.060
5964,-0.230,0.050
5965,-0.255,0.045
5966,-0.240,0.050
5967,-0.245,0.060
5968,-0.225,0.075
5969,-0.230,0.050
5970,-0.245,0.045
5971,-0.270,0.030
5972,-0.275,0.045
5973,-0.280,0.055
5974,-0.265,0.060
5975,-0.260,0.045
5976,-0.280,0.035
5977,-0.285,0.025
5978,-0.285,0.030
5979,-0.280,0.050
5980,-0.255,0.050
5981,-0.260,0.050
5982,-0.275,0.025
5983,-0.275,0.025
5984,-0.275,0.025
5985,-0.265,0.045
5986,-0.270,0.055
5987,-0.255,0.030
5988,-0.260,0.025
5989,-0.270,0.025
5990,-0.275,0.030
5991,-0.265,0.035
5992,-0.250,0.050
5993,-0.255,0.030
5994,-0.245,0.035
5995,-0.245,0.055
5996,-0.250,0.075
5997,-0.230,0.105
5998,-0.205,0.105
5999,-0.180,0.080
6000,-0.170,0.035
6001,-0.145,-0.045
6002,-0.105,-0.145
6003,-0.080,-0.245
6004,-0.035,-0.375
6005,0.035,-0.515
6006,0.125,-0.685
6007,0.210,-0.855
6008,0.340,-0.990
6009,0.490,-1.080
6010,0.635,-1.075
6011,0.745,-1.045
6012,0.840,-0.985
6013,0.930,-0.875
6014,1.060,-0.750
6015,1.155,-0.585
6016,1.190,-0.450
6017,1.130,-0.320
6018,1.005,-0.215
6019,0.805,-0.110
6020,0.605,-0.035
6021,0.420,0.000
6022,0.260,0.000
6023,0.100,-0.040
6024,-0.040,-0.070
6025,-0.145,-0.065
6026,-0.185,-0.035
6027,-0.180,-0.015
6028,-0.145,0.035
6029,-0.155,0.030
6030,-0.175,0.025
6031,-0.185,0.025
6032,-0.205,0.050
6033,-0.215,0.055
6034,-0.220,0.075
6035,-0.225,0.060
6036,-0.240,0.060
6037,-0.270,0.050
6038,-0.290,0.055
6039,-0.275,0.080
6040,-0.265,0.090
6041,-0.255,0.080
6042,-0.280,0.070
6043,-0.290,0.060
6044,-0.285,0.070
6045,-0.280,0.080
6046,-0.275,0.095
6047,-0.280,0.085
6048,-0.295,0.085
6049,-0.305,0.065
6050,-0.300,0.060
6051,-0.295,0.080
6052,-0.280,0.090
6053,-0.275,0.085
6054,-0.285,0.070
6055,-0.300,0.050
6056,-0.310,0.055
6057,-0.305,0.065
6058,-0.280,0.085
6059,-0.265,0.075
6060,-0.285,0.055
6061,-0.300,0.045
6062,-0.295,0.060
6063,-0.280,0.065
6064,-0.265,0.075
6065,-0.260,0.070
6066,-0.265,0.060
6067,-0.275,0.045
6068,-0.275,0.050
6069,-0.270,0.060
6070,-0.265,0.065
6071,-0.265,0.070
6072,-0.255,0.040
6073,-0.275,0.040
6074,-0.270,0.045
6075,-0.250,0.040
6076,-0.240,0.055
6077,-0.230,0.050
6078,-0.230,0.035
6079,-0.245,0.020
6080,-0.245,0.035
6081,-0.240,0.015
6082,-0.200,0.035
6083,-0.195,0.035
6084,-0.195,0.015
6085,-0.205,-0.010
6086,-0.205,-0.005
6087,-0.185,0.020
6088,-0.155,0.020
6089,-0.135,0.025
6090,-0.140,0.000
6091,-0.155,-0.005
6092,-0.160,-0.005
6093,-0.130,0.000
6094,-0.095,0.010
6095,-0.075,-0.005
6096,-0.080,-0.020
6097,-0.070,-0.035
6098,-0.070,-0.040
6099,-0.050,-0.025
6100,-0.025,-0.025
6101,-0.010,-0.030
6102,-0.020,-0.050
6103,-0.010,-0.060
6104,-0.015,-0.065
6105,0.020,-0.050
6106,0.045,-0.040
6107,0.050,-0.040
6108,0.030,-0.055
6109,0.035,-0.060
6110,0.030,-0.055
6111,0.070,-0.040
6112,0.085,-0.020
6113,0.080,-0.025
6114,0.080,-0.040
6115,0.040,-0.035
6116,0.055,-0.030
6117,0.045,-0.010
6118,0.040,0.005
6119,0.025,0.015
6120,-0.005,0.010
6121,-0.030,0.005
6122,-0.045,0.020
6123,-0.070,0.040
6124,-0.060,0.035
6125,-0.085,0.045
6126,-0.115,0.040
6127,-0.165,0.050
6128,-0.180,0.055
6129,-0.165,0.060
6130,-0.165,0.070
6131,-0.185,0.070
6132,-0.200,0.060
6133,-0.220,0.045
6134,-0.255,0.050
6135,-0.240,0.060
6136,-0.240,0.075
6137,-0.240,0.060
6138,-0.265,0.060
6139,-0.300,0.050
6140,-0.300,0.050
6141,-0.280,0.065
6142,-0.275,0.060
6143,-0.275,0.050
6144,-0.280,0.040
6145,-0.300,0.040
6146,-0.315,0.050
6147,-0.305,0.050
6148,-0.280,0.070
6149,-0.290,0.060
6150,-0.305,0.045
6151,-0.320,0.045
6152,-0.310,0.060
6153,-0.310,0.080
6154,-0.295,0.085
6155,-0.300,0.070
6156,-0.310,0.055
6157,-0.320,0.055
6158,-0.315,0.070
6159,-0.300,0.075
6160,-0.290,0.090
6161,-0.285,0.085
6162,-0.310,0.070
6163,-0.300,0.055
6164,-0.315,0.070
6165,-0.305,0.080
6166,-0.290,0.090
6167,-0.290,0.090
6168,-0.290,0.080
6169,-0.315,0.060
6170,-0.300,0.070
6171,-0.285,0.075
6172,-0.270,0.095
6173,-0.280,0.080
6174,-0.285,0.075
6175,-0.305,0.070
6176,-0.290,0.065
6177,-0.275,0.075
6178,-0.270,0.085
6179,-0.265,0.090
6180,-0.270,0.075
6181,-0.280,0.065
6182,-0.285,0.075
6183,-0.295,0.095
6184,-0.275,0.105
6185,-0.255,0.090
6186,-0.260,0.075
6187,-0.275,0.050
6188,-0.285,0.065
6189,-0.270,0.080
6190,-0.255,0.080
6191,-0.260,0.080
6192,-0.260,0.075
6193,-0.275,0.070
6194,-0.275,0.085
6195,-0.260,0.095
6196,-0.245,0.105
6197,-0.250,0.095
6198,-0.255,0.070
6199,-0.285,0.070
6200,-0.280,0.080
6201,-0.270,0.095
6202,-0.275,0.090
6203,-0.260,0.080
6204,-0.255,0.075
6205,-0.265,0.070
6206,-0.285,0.075
6207,-0.275,0.085
6208,-0.260,0.095
6209,-0.275,0.095
6210,-0.270,0.075
6211,-0.275,0.075
6212,-0.270,0.080
6213,-0.280,0.085
6214,-0.275,0.105
6215,-0.270,0.100
6216,-0.280,0.080
6217,-0.285,0.070
6218,-0.290,0.090
6219,-0.280,0.110
6220,-0.270,0.100
6221,-0.265,0.090
6222,-0.275,0.080
6223,-0.290,0.080
6224,-0.285,0.080
6225,-0.280,0.105
6226,-0.280,0.105
6227,-0.265,0.095
6228,-0.270,0.075
6229,-0.285,0.070
6230,-0.290,0.075
6231,-0.290,0.095
6232,-0.280,0.100
6233,-0.260,0.090
6234,-0.270,0.070
6235,-0.295,0.060
6236,-0.290,0.080
6237,-0.280,0.080
6238,-0.290,0.090
6239,-0.270,0.085
6240,-0.285,0.080
6241,-0.295,0.065
6242,-0.295,0.095
6243,-0.280,0.095
6244,-0.260,0.105
6245,-0.260,0.095
6246,-0.265,0.075
6247,-0.285,0.080
6248,-0.305,0.080
6249,-0.285,0.090
6250,-0.250,0.095
6251,-0.260,0.085
6252,-0.275,0.075
6253,-0.285,0.065
6254,-0.285,0.075
6255,-0.290,0.085
6256,-0.270,0.095
6257,-0.265,0.090
6258,-0.270,0.070
6259,-0.280,0.065
6260,-0.285,0.075
6261,-0.270,0.090
6262,-0.255,0.100
6263,-0.250,0.090
6264,-0.270,0.065
6265,-0.285,0.050
6266,-0.275,0.065
6267,-0.265,0.080
6268,-0.255,0.090
6269,-0.250,0.080
6270,-0.265,0.070
6271,-0.275,0.060
6272,-0.260,0.070
6273,-0.270,0.070
6274,-0.265,0.075
6275,-0.255,0.085
6276,-0.265,0.070
6277,-0.290,0.060
6278,-0.290,0.070
6279,-0.275,0.080
6280,-0.265,0.095
6281,-0.245,0.070
6282,-0.255,0.075
6283,-0.265,0.065
6284,-0.270,0.065
6285,-0.275,0.080
6286,-0.250,0.095
6287,-0.265,0.070
6288,-0.260,0.055
6289,-0.270,0.055
6290,-0.275,0.070
6291,-0.260,0.075
6292,-0.240,0.080
6293,-0.240,0.070
6294,-0.245,0.050
6295,-0.255,0.055
6296,-0.255,0.065
6297,-0.255,0.085
6298,-0.240,0.085
6299,-0.245,0.095
6300,-0.245,0.075
6301,-0.260,0.060
6302,-0.255,0.075
6303,-0.240,0.075
6304,-0.230,0.090
6305,-0.225,0.090
6306,-0.235,0.070
6307,-0.255,0.065
6308,-0.250,0.070
6309,-0.245,0.085
6310,-0.225,0.085
6311,-0.235,0.080
6312,-0.240,0.060
6313,-0.250,0.055
6314,-0.245,0.070
6315,-0.245,0.075
6316,-0.230,0.090
6317,-0.210,0.065
6318,-0.230,0.075
6319,-0.245,0.065
6320,-0.235,0.060
6321,-0.220,0.075
6322,-0.205,0.080
6323,-0.205,0.085
6324,-0.220,0.060
6325,-0.220,0.055
6326,-0.235,0.060
6327,-0.235,0.065
6328,-0.205,0.075
6329,-0.195,0.075
6330,-0.215,0.060
6331,-0.235,0.055
6332,-0.235,0.065
6333,-0.225,0.060
6334,-0.200,0.085
6335,-0.195,0.065
6336,-0.195,0.040
6337,-0.210,0.055
6338,-0.215,0.065
6339,-0.210,0.090
6340,-0.175,0.095
6341,-0.185,0.110
6342,-0.180,0.095
6343,-0.195,0.095
6344,-0.210,0.095
6345,-0.200,0.110
6346,-0.200,0.130
6347,-0.185,0.125
6348,-0.190,0.105
6349,-0.185,0.100
6350,-0.180,0.095
6351,-0.155,0.100
6352,-0.150,0.105
6353,-0.125,0.090
6354,-0.140,0.080
6355,-0.140,0.070
6356,-0.140,0.070
6357,-0.145,0.075
6358,-0.120,0.100
6359,-0.125,0.085
6360,-0.145,0.070
6361,-0.155,0.065
6362,-0.150,0.060
6363,-0.150,0.070
6364,-0.150,0.085
6365,-0.155,0.080
6366,-0.165,0.075
6367,-0.195,0.060
6368,-0.185,0.065
6369,-0.190,0.090
6370,-0.165,0.095
6371,-0.170,0.085
6372,-0.180,0.075
6373,-0.200,0.070
6374,-0.185,0.065
6375,-0.180,0.070
6376,-0.160,0.075
6377,-0.155,0.065
6378,-0.175,0.045
6379,-0.185,0.055
6380,-0.175,0.050
6381,-0.175,0.065
6382,-0.155,0.075
6383,-0.160,0.080
6384,-0.150,0.060
6385,-0.180,0.065
6386,-0.155,0.070
6387,-0.145,0.100
6388,-0.130,0.120
6389,-0.115,0.130
6390,-0.110,0.115
6391,-0.100,0.090
6392,-0.070,0.040
6393,-0.030,-0.020
6394,0.020,-0.110
6395,0.050,-0.250
6396,0.100,-0.385
6397,0.175,-0.535
6398,0.275,-0.670
6399,0.400,-0.810
6400,0.520,-0.895
6401,0.635,-0.965
6402,0.750,-0.960
6403,0.840,-0.935
6404,0.925,-0.855
6405,1.045,-0.745
6406,1.135,-0.575
6407,1.175,-0.430
6408,1.120,-0.295
6409,1.005,-0.175
6410,0.860,-0.085
6411,0.690,-0.030
6412,0.510,-0.010
6413,0.385,-0.030
6414,0.230,-0.040
6415,0.095,-0.025
6416,0.015,0.000
6417,-0.025,0.040
6418,-0.030,0.070
6419,-0.030,0.065
6420,-0.055,0.070
6421,-0.080,0.065
6422,-0.125,0.075
6423,-0.130,0.095
6424,-0.135,0.105
6425,-0.160,0.105
6426,-0.165,0.100
6427,-0.195,0.100
6428,-0.195,0.115
6429,-0.200,0.125
6430,-0.180,0.135
6431,-0.185,0.130
6432,-0.200,0.110
6433,-0.220,0.115
6434,-0.230,0.115
6435,-0.215,0.140
6436,-0.210,0.135
6437,-0.205,0.130
6438,-0.230,0.115
6439,-0.255,0.100
6440,-0.235,0.120
6441,-0.225,0.125
6442,-0.215,0.145
6443,-0.225,0.130
6444,-0.215,0.115
6445,-0.230,0.115
6446,-0.235,0.120
6447,-0.230,0.135
6448,-0.215,0.145
6449,-0.205,0.125
6450,-0.225,0.115
6451,-0.240,0.115
6452,-0.230,0.120
6453,-0.220,0.125
6454,-0.205,0.135
6455,-0.210,0.130
6456,-0.200,0.115
6457,-0.220,0.100
6458,-0.215,0.110
6459,-0.200,0.105
6460,-0.190,0.125
6461,-0.190,0.115
6462,-0.200,0.100
6463,-0.195,0.105
6464,-0.195,0.105
6465,-0.170,0.115
6466,-0.150,0.130
6467,-0.155,0.120
6468,-0.155,0.095
6469,-0.160,0.085
6470,-0.155,0.095
6471,-0.150,0.090
6472,-0.135,0.105
6473,-0.120,0.085
6474,-0.120,0.080
6475,-0.125,0.065
6476,-0.125,0.070
6477,-0.115,0.065
6478,-0.090,0.085
6479,-0.080,0.060
6480,-0.065,0.055
6481,-0.080,0.025
6482,-0.065,0.045
6483,-0.045,0.045
6484,-0.015,0.035
6485,-0.015,0.025
6486,-0.005,0.010
6487,-0.010,-0.010
6488,0.005,-0.005
6489,0.015,0.010
6490,0.050,0.015
6491,0.060,0.000
6492,0.070,-0.025
6493,0.070,-0.025
6494,0.075,-0.020
6495,0.090,-0.015
6496,0.110,0.000
6497,0.125,-0.010
6498,0.115,-0.025
6499,0.115,-0.025
6500,0.115,-0.015
6501,0.125,0.005
6502,0.135,0.010
6503,0.125,0.005
6504,0.125,0.000
6505,0.110,0.000
6506,0.095,0.025
6507,0.080,0.050
6508,0.080,0.060
6509,0.060,0.055
6510,0.040,0.060
6511,0.005,0.055
6512,-0.035,0.070
6513,-0.045,0.085
6514,-0.050,0.095
6515,-0.070,0.090
6516,-0.080,0.080
6517,-0.100,0.080
6518,-0.115,0.090
6519,-0.135,0.095
6520,-0.140,0.125
6521,-0.150,0.100
6522,-0.170,0.090
6523,-0.195,0.080
6524,-0.190,0.090
6525,-0.200,0.105
6526,-0.205,0.120
6527,-0.200,0.105
6528,-0.215,0.100
6529,-0.230,0.100
6530,-0.245,0.090
6531,-0.235,0.110
6532,-0.220,0.110
6533,-0.235,0.100
6534,-0.250,0.090
6535,-0.265,0.095
6536,-0.270,0.090
6537,-0.265,0.105
6538,-0.250,0.120
6539,-0.250,0.100
6540,-0.265,0.090
6541,-0.260,0.075
6542,-0.270,0.085
6543,-0.260,0.095
6544,-0.255,0.120
6545,-0.240,0.115
6546,-0.260,0.095
6547,-0.260,0.085
6548,-0.270,0.080
6549,-0.265,0.095
6550,-0.260,0.115
6551,-0.260,0.100
6552,-0.275,0.100
6553,-0.275,0.085
6554,-0.275,0.095
6555,-0.280,0.120
6556,-0.270,0.120
6557,-0.270,0.110
6558,-0.270,0.100
6559,-0.270,0.095
6560,-0.285,0.095
6561,-0.275,0.105
6562,-0.265,0.115
6563,-0.255,0.100
6564,-0.270,0.090
6565,-0.280,0.085
6566,-0.295,0.100
6567,-0.290,0.120
6568,-0.260,0.125
6569,-0.275,0.115
6570,-0.275,0.100
6571,-0.285,0.095
6572,-0.295,0.100
6573,-0.280,0.110
6574,-0.270,0.125
6575,-0.260,0.110
6576,-0.270,0.095
6577,-0.295,0.085
6578,-0.295,0.095
6579,-0.275,0.110
6580,-0.270,0.120
6581,-0.250,0.115
6582,-0.265,0.095
6583,-0.285,0.075
6584,-0.285,0.095
6585,-0.270,0.100
6586,-0.255,0.115
6587,-0.250,0.115
6588,-0.265,0.090
6589,-0.280,0.085
6590,-0.285,0.085
6591,-0.270,0.105
6592,-0.260,0.105
6593,-0.260,0.100
6594,-0.280,0.080
6595,-0.295,0.075
6596,-0.280,0.095
6597,-0.280,0.100
6598,-0.270,0.115
6599,-0.270,0.100
6600,-0.265,0.075
6601,-0.280,0.080
6602,-0.275,0.090
6603,-0.275,0.100
6604,-0.270,0.105
6605,-0.260,0.095
6606,-0.275,0.080
6607,-0.300,0.090
6608,-0.290,0.090
6609,-0.280,0.095
6610,-0.260,0.110
6611,-0.265,0.095
6612,-0.275,0.085
6613,-0.285,0.095
6614,-0.295,0.090
6615,-0.280,0.105
6616,-0.265,0.115
6617,-0.260,0.105
6618,-0.285,0.080
6619,-0.285,0.080
6620,-0.300,0.090
6621,-0.285,0.095
6622,-0.275,0.095
6623,-0.270,0.105
6624,-0.300,0.090
6625,-0.300,0.085
6626,-0.295,0.095
6627,-0.280,0.095
6628,-0.275,0.110
6629,-0.270,0.100
6630,-0.285,0.085
6631,-0.300,0.085
6632,-0.295,0.090
6633,-0.280,0.090
6634,-0.280,0.100
6635,-0.275,0.090
6636,-0.270,0.070
6637,-0.290,0.070
6638,-0.300,0.075
6639,-0.285,0.085
6640,-0.265,0.100
6641,-0.270,0.095
6642,-0.270,0.080
6643,-0.295,0.075
6644,-0.295,0.075
6645,-0.300,0.090
6646,-0.270,0.105
6647,-0.270,0.085
6648,-0.275,0.070
6649,-0.290,0.065
6650,-0.290,0.080
6651,-0.285,0.085
6652,-0.275,0.105
6653,-0.265,0.105
6654,-0.280,0.085
6655,-0.290,0.065
6656,-0.280,0.070
6657,-0.280,0.080
6658,-0.255,0.095
6659,-0.265,0.085
6660,-0.270,0.070
6661,-0.270,0.065
6662,-0.275,0.075
6663,-0.265,0.090
6664,-0.250,0.105
6665,-0.260,0.095
6666,-0.280,0.075
6667,-0.295,0.075
6668,-0.270,0.065
6669,-0.255,0.080
6670,-0.245,0.095
6671,-0.255,0.095
6672,-0.265,0.085
6673,-0.275,0.070
6674,-0.280,0.070
6675,-0.265,0.075
6676,-0.270,0.095
6677,-0.245,0.090
6678,-0.275,0.075
6679,-0.270,0.070
6680,-0.280,0.065
6681,-0.260,0.080
6682,-0.255,0.090
6683,-0.255,0.080
6684,-0.270,0.070
6685,-0.280,0.060
6686,-0.275,0.075
6687,-0.260,0.075
6688,-0.255,0.095
6689,-0.250,0.080
6690,-0.260,0.075
6691,-0.255,0.055
6692,-0.270,0.070
6693,-0.260,0.080
6694,-0.235,0.075
6695,-0.255,0.080
6696,-0.250,0.065
6697,-0.265,0.060
6698,-0.265,0.070
6699,-0.245,0.065
6700,-0.230,0.090
6701,-0.230,0.085
6702,-0.245,0.080
6703,-0.255,0.060
6704,-0.265,0.080
6705,-0.255,0.080
6706,-0.235,0.090
6707,-0.235,0.065
6708,-0.235,0.065
6709,-0.250,0.050
6710,-0.240,0.060
6711,-0.245,0.060
6712,-0.225,0.070
6713,-0.225,0.075
6714,-0.235,0.065
6715,-0.240,0.065
6716,-0.245,0.065
6717,-0.240,0.075
6718,-0.240,0.085
6719,-0.220,0.070
6720,-0.230,0.060
6721,-0.230,0.050
6722,-0.235,0.050
6723,-0.230,0.055
6724,-0.210,0.070
6725,-0.205,0.050
6726,-0.215,0.050
6727,-0.235,0.030
6728,-0.230,0.050
6729,-0.220,0.050
6730,-0.200,0.055
6731,-0.195,0.055
6732,-0.215,0.055
6733,-0.235,0.060
6734,-0.230,0.070
6735,-0.220,0.085
6736,-0.230,0.100
6737,-0.235,0.105
6738,-0.245,0.090
6739,-0.245,0.085
6740,-0.245,0.095
6741,-0.210,0.100
6742,-0.185,0.095
6743,-0.175,0.085
6744,-0.170,0.070
6745,-0.190,0.060
6746,-0.170,0.050
6747,-0.165,0.065
6748,-0.145,0.080
6749,-0.145,0.070
6750,-0.160,0.060
6751,-0.175,0.055
6752,-0.170,0.050
6753,-0.175,0.065
6754,-0.160,0.065
6755,-0.180,0.050
6756,-0.190,0.040
6757,-0.200,0.050
6758,-0.205,0.055
6759,-0.205,0.055
6760,-0.190,0.075
6761,-0.195,0.065
6762,-0.205,0.055
6763,-0.210,0.050
6764,-0.210,0.060
6765,-0.215,0.070
6766,-0.190,0.080
6767,-0.190,0.060
6768,-0.195,0.045
6769,-0.200,0.040
6770,-0.210,0.050
6771,-0.215,0.050
6772,-0.200,0.065
6773,-0.185,0.060
6774,-0.190,0.050
6775,-0.195,0.040
