'sample interval','MLII','V1'
'0.00277778 sec','mV','mV'
0,-0.580,-0.335
1,-0.580,-0.335
2,-0.580,-0.335
3,-0.580,-0.335
4,-0.580,-0.335
5,-0.580,-0.335
6,-0.580,-0.335
7,-0.580,-0.335
8,-0.585,-0.330
9,-0.590,-0.320
10,-0.580,-0.320
11,-0.580,-0.315
12,-0.575,-0.300
13,-0.555,-0.315
14,-0.570,-0.310
15,-0.575,-0.320
16,-0.585,-0.330
17,-0.585,-0.330
18,-0.595,-0.340
19,-0.595,-0.340
20,-0.610,-0.335
21,-0.605,-0.320
22,-0.590,-0.330
23,-0.585,-0.320
24,-0.580,-0.305
25,-0.580,-0.310
26,-0.585,-0.320
27,-0.590,-0.330
28,-0.595,-0.335
29,-0.605,-0.345
30,-0.600,-0.350
31,-0.600,-0.345
32,-0.605,-0.335
33,-0.605,-0.325
34,-0.590,-0.330
35,-0.585,-0.320
36,-0.590,-0.310
37,-0.575,-0.330
38,-0.580,-0.325
39,-0.585,-0.320
40,-0.585,-0.330
41,-0.575,-0.340
42,-0.595,-0.340
43,-0.600,-0.335
44,-0.605,-0.345
45,-0.595,-0.330
46,-0.590,-0.315
47,-0.600,-0.320
48,-0.590,-0.315
49,-0.585,-0.320
50,-0.580,-0.320
51,-0.580,-0.330
52,-0.585,-0.345
53,-0.600,-0.340
54,-0.605,-0.345
55,-0.605,-0.340
56,-0.620,-0.345
57,-0.610,-0.335
58,-0.610,-0.325
59,-0.600,-0.315
60,-0.600,-0.310
61,-0.585,-0.310
62,-0.595,-0.330
63,-0.590,-0.330
64,-0.610,-0.330
65,-0.610,-0.345
66,-0.610,-0.350
67,-0.605,-0.345
68,-0.605,-0.340
69,-0.595,-0.335
70,-0.595,-0.320
71,-0.590,-0.310
72,-0.565,-0.300
73,-0.585,-0.315
74,-0.570,-0.315
75,-0.575,-0.315
76,-0.580,-0.315
77,-0.585,-0.310
78,-0.590,-0.325
79,-0.595,-0.310
80,-0.590,-0.295
81,-0.575,-0.275
82,-0.560,-0.275
83,-0.550,-0.250
84,-0.535,-0.240
85,-0.525,-0.255
86,-0.515,-0.260
87,-0.510,-0.265
88,-0.490,-0.290
89,-0.495,-0.310
90,-0.490,-0.320
91,-0.495,-0.325
92,-0.480,-0.340
93,-0.465,-0.340
94,-0.455,-0.335
95,-0.445,-0.315
96,-0.430,-0.300
97,-0.435,-0.320
98,-0.440,-0.305
99,-0.445,-0.330
100,-0.475,-0.315
101,-0.480,-0.330
102,-0.485,-0.340
103,-0.490,-0.325
104,-0.495,-0.330
105,-0.485,-0.320
106,-0.480,-0.310
107,-0.480,-0.320
108,-0.470,-0.315
109,-0.470,-0.325
110,-0.485,-0.335
111,-0.500,-0.345
112,-0.535,-0.350
113,-0.545,-0.365
114,-0.565,-0.370
115,-0.575,-0.365
116,-0.585,-0.360
117,-0.585,-0.345
118,-0.580,-0.345
119,-0.565,-0.340
120,-0.570,-0.335
121,-0.565,-0.345
122,-0.560,-0.345
123,-0.575,-0.355
124,-0.580,-0.355
125,-0.585,-0.355
126,-0.605,-0.360
127,-0.610,-0.365
128,-0.600,-0.365
129,-0.590,-0.340
130,-0.600,-0.345
131,-0.595,-0.345
132,-0.575,-0.335
133,-0.555,-0.345
134,-0.565,-0.350
135,-0.575,-0.350
136,-0.575,-0.350
137,-0.590,-0.345
138,-0.590,-0.365
139,-0.590,-0.350
140,-0.575,-0.350
141,-0.585,-0.345
142,-0.575,-0.345
143,-0.565,-0.335
144,-0.540,-0.315
145,-0.530,-0.310
146,-0.525,-0.300
147,-0.525,-0.300
148,-0.520,-0.295
149,-0.515,-0.315
150,-0.515,-0.350
151,-0.510,-0.390
152,-0.495,-0.440
153,-0.450,-0.505
154,-0.375,-0.585
155,-0.260,-0.660
156,-0.100,-0.740
157,0.125,-0.795
158,0.425,-0.835
159,0.775,-0.815
160,1.155,-0.775
161,1.470,-0.700
162,1.665,-0.605
163,1.670,-0.525
164,1.455,-0.450
165,0.995,-0.395
166,0.360,-0.375
167,-0.280,-0.385
168,-0.905,-0.395
169,-1.260,-0.425
170,-1.360,-0.430
171,-1.255,-0.430
172,-1.035,-0.390
173,-0.800,-0.360
174,-0.605,-0.325
175,-0.490,-0.295
176,-0.430,-0.275
177,-0.415,-0.280
178,-0.430,-0.265
179,-0.470,-0.275
180,-0.490,-0.265
181,-0.505,-0.275
182,-0.520,-0.285
183,-0.510,-0.280
184,-0.515,-0.285
185,-0.500,-0.295
186,-0.500,-0.300
187,-0.500,-0.295
188,-0.500,-0.290
189,-0.490,-0.285
190,-0.490,-0.285
191,-0.490,-0.270
192,-0.485,-0.255
193,-0.480,-0.270
194,-0.475,-0.265
195,-0.485,-0.285
196,-0.475,-0.285
197,-0.480,-0.295
198,-0.495,-0.300
199,-0.490,-0.295
200,-0.510,-0.310
201,-0.505,-0.285
202,-0.480,-0.270
203,-0.470,-0.280
204,-0.480,-0.270
205,-0.465,-0.275
206,-0.470,-0.285
207,-0.465,-0.290
208,-0.470,-0.285
209,-0.485,-0.300
210,-0.495,-0.305
211,-0.490,-0.305
212,-0.475,-0.300
213,-0.475,-0.295
214,-0.475,-0.285
215,-0.470,-0.280
216,-0.470,-0.285
217,-0.460,-0.285
218,-0.465,-0.280
219,-0.465,-0.290
220,-0.470,-0.295
221,-0.485,-0.305
222,-0.490,-0.310
223,-0.485,-0.310
224,-0.485,-0.310
225,-0.495,-0.305
226,-0.490,-0.300
227,-0.490,-0.295
228,-0.470,-0.285
229,-0.465,-0.290
230,-0.465,-0.275
231,-0.455,-0.305
232,-0.475,-0.315
233,-0.465,-0.310
234,-0.480,-0.320
235,-0.485,-0.320
236,-0.480,-0.310
237,-0.470,-0.310
238,-0.465,-0.300
239,-0.470,-0.295
240,-0.465,-0.285
241,-0.445,-0.290
242,-0.440,-0.300
243,-0.440,-0.305
244,-0.440,-0.310
245,-0.445,-0.320
246,-0.440,-0.315
247,-0.460,-0.325
248,-0.455,-0.320
249,-0.455,-0.325
250,-0.440,-0.305
251,-0.430,-0.300
252,-0.435,-0.305
253,-0.425,-0.310
254,-0.415,-0.305
255,-0.415,-0.310
256,-0.420,-0.330
257,-0.420,-0.330
258,-0.430,-0.325
259,-0.425,-0.335
260,-0.415,-0.320
261,-0.430,-0.310
262,-0.410,-0.305
263,-0.410,-0.295
264,-0.400,-0.290
265,-0.385,-0.295
266,-0.370,-0.295
267,-0.375,-0.310
268,-0.380,-0.330
269,-0.390,-0.330
270,-0.395,-0.340
271,-0.395,-0.330
272,-0.390,-0.335
273,-0.395,-0.325
274,-0.385,-0.315
275,-0.370,-0.315
276,-0.360,-0.310
277,-0.365,-0.315
278,-0.365,-0.315
279,-0.365,-0.325
280,-0.375,-0.320
281,-0.380,-0.335
282,-0.385,-0.340
283,-0.385,-0.335
284,-0.385,-0.335
285,-0.380,-0.335
286,-0.375,-0.325
287,-0.375,-0.310
288,-0.365,-0.305
289,-0.345,-0.315
290,-0.355,-0.325
291,-0.360,-0.320
292,-0.365,-0.335
293,-0.355,-0.345
294,-0.365,-0.340
295,-0.370,-0.335
296,-0.365,-0.340
297,-0.380,-0.325
298,-0.365,-0.320
299,-0.380,-0.305
300,-0.380,-0.305
301,-0.365,-0.315
302,-0.390,-0.295
303,-0.395,-0.315
304,-0.395,-0.305
305,-0.425,-0.315
306,-0.445,-0.320
307,-0.465,-0.320
308,-0.475,-0.320
309,-0.490,-0.305
310,-0.495,-0.300
311,-0.495,-0.290
312,-0.505,-0.290
313,-0.500,-0.285
314,-0.530,-0.295
315,-0.535,-0.295
316,-0.545,-0.310
317,-0.550,-0.310
318,-0.565,-0.320
319,-0.570,-0.310
320,-0.570,-0.295
321,-0.580,-0.300
322,-0.565,-0.285
323,-0.575,-0.280
324,-0.560,-0.270
325,-0.555,-0.275
326,-0.560,-0.280
327,-0.585,-0.280
328,-0.575,-0.290
329,-0.585,-0.295
330,-0.585,-0.300
331,-0.595,-0.295
332,-0.590,-0.295
333,-0.590,-0.285
334,-0.580,-0.280
335,-0.580,-0.280
336,-0.565,-0.275
337,-0.555,-0.265
338,-0.550,-0.265
339,-0.555,-0.275
340,-0.565,-0.290
341,-0.580,-0.290
342,-0.580,-0.300
343,-0.585,-0.290
344,-0.575,-0.285
345,-0.570,-0.275
346,-0.565,-0.275
347,-0.550,-0.270
348,-0.545,-0.265
349,-0.540,-0.260
350,-0.540,-0.270
351,-0.540,-0.280
352,-0.550,-0.295
353,-0.550,-0.295
354,-0.565,-0.300
355,-0.565,-0.290
356,-0.550,-0.280
357,-0.550,-0.280
358,-0.545,-0.270
359,-0.530,-0.270
360,-0.525,-0.245
361,-0.525,-0.260
362,-0.525,-0.270
363,-0.525,-0.280
364,-0.525,-0.290
365,-0.540,-0.295
366,-0.560,-0.295
367,-0.555,-0.290
368,-0.555,-0.300
369,-0.550,-0.295
370,-0.555,-0.290
371,-0.550,-0.285
372,-0.550,-0.255
373,-0.540,-0.275
374,-0.540,-0.285
375,-0.545,-0.290
376,-0.565,-0.295
377,-0.565,-0.300
378,-0.570,-0.315
379,-0.575,-0.315
380,-0.580,-0.305
381,-0.575,-0.295
382,-0.580,-0.290
383,-0.570,-0.290
384,-0.565,-0.270
385,-0.555,-0.285
386,-0.565,-0.290
387,-0.570,-0.285
388,-0.570,-0.295
389,-0.580,-0.310
390,-0.575,-0.305
391,-0.600,-0.310
392,-0.590,-0.305
393,-0.585,-0.290
394,-0.595,-0.290
395,-0.595,-0.275
396,-0.580,-0.275
397,-0.575,-0.280
398,-0.580,-0.290
399,-0.590,-0.295
400,-0.590,-0.300
401,-0.610,-0.310
402,-0.610,-0.305
403,-0.610,-0.310
404,-0.615,-0.310
405,-0.610,-0.305
406,-0.615,-0.285
407,-0.610,-0.290
408,-0.595,-0.270
409,-0.595,-0.280
410,-0.590,-0.280
411,-0.585,-0.300
412,-0.590,-0.290
413,-0.600,-0.300
414,-0.605,-0.305
415,-0.610,-0.300
416,-0.625,-0.300
417,-0.615,-0.305
418,-0.610,-0.290
419,-0.595,-0.280
420,-0.590,-0.275
421,-0.590,-0.285
422,-0.590,-0.285
423,-0.585,-0.285
424,-0.595,-0.295
425,-0.605,-0.305
426,-0.610,-0.305
427,-0.615,-0.305
428,-0.610,-0.310
429,-0.615,-0.290
430,-0.605,-0.290
431,-0.605,-0.285
432,-0.595,-0.270
433,-0.590,-0.270
434,-0.595,-0.280
435,-0.595,-0.280
436,-0.605,-0.280
437,-0.600,-0.275
438,-0.605,-0.275
439,-0.590,-0.265
440,-0.605,-0.260
441,-0.590,-0.240
442,-0.575,-0.225
443,-0.565,-0.225
444,-0.550,-0.200
445,-0.530,-0.205
446,-0.520,-0.220
447,-0.515,-0.240
448,-0.515,-0.240
449,-0.515,-0.270
450,-0.500,-0.280
451,-0.495,-0.305
452,-0.490,-0.305
453,-0.490,-0.295
454,-0.475,-0.280
455,-0.470,-0.270
456,-0.455,-0.260
457,-0.435,-0.270
458,-0.460,-0.275
459,-0.470,-0.280
460,-0.485,-0.270
461,-0.485,-0.290
462,-0.480,-0.290
463,-0.480,-0.290
464,-0.490,-0.285
465,-0.480,-0.290
466,-0.480,-0.280
467,-0.490,-0.285
468,-0.480,-0.270
469,-0.500,-0.280
470,-0.525,-0.295
471,-0.545,-0.300
472,-0.560,-0.300
473,-0.585,-0.305
474,-0.600,-0.310
475,-0.610,-0.310
476,-0.615,-0.305
477,-0.620,-0.300
478,-0.605,-0.290
479,-0.600,-0.300
480,-0.595,-0.275
481,-0.595,-0.285
482,-0.605,-0.295
483,-0.605,-0.300
484,-0.610,-0.295
485,-0.615,-0.300
486,-0.630,-0.305
487,-0.630,-0.315
488,-0.625,-0.310
489,-0.625,-0.305
490,-0.620,-0.305
491,-0.615,-0.285
492,-0.605,-0.275
493,-0.615,-0.275
494,-0.615,-0.295
495,-0.610,-0.290
496,-0.595,-0.295
497,-0.605,-0.300
498,-0.605,-0.305
499,-0.605,-0.305
500,-0.595,-0.280
501,-0.600,-0.270
502,-0.585,-0.250
503,-0.575,-0.230
504,-0.550,-0.230
505,-0.545,-0.240
506,-0.540,-0.265
507,-0.520,-0.310
508,-0.525,-0.360
509,-0.505,-0.435
510,-0.465,-0.515
511,-0.400,-0.595
512,-0.270,-0.660
513,-0.085,-0.705
514,0.155,-0.730
515,0.460,-0.705
516,0.825,-0.650
517,1.200,-0.580
518,1.485,-0.490
519,1.610,-0.400
520,1.490,-0.330
521,1.095,-0.285
522,0.455,-0.285
523,-0.185,-0.295
524,-0.825,-0.315
525,-1.280,-0.335
526,-1.370,-0.350
527,-1.230,-0.330
528,-0.995,-0.305
529,-0.745,-0.265
530,-0.535,-0.240
531,-0.425,-0.210
532,-0.400,-0.230
533,-0.425,-0.225
534,-0.470,-0.245
535,-0.515,-0.250
536,-0.545,-0.245
537,-0.555,-0.255
538,-0.575,-0.240
539,-0.565,-0.240
540,-0.530,-0.230
541,-0.520,-0.225
542,-0.515,-0.235
543,-0.515,-0.235
544,-0.530,-0.245
545,-0.535,-0.255
546,-0.530,-0.265
547,-0.530,-0.260
548,-0.530,-0.255
549,-0.520,-0.245
550,-0.525,-0.245
551,-0.525,-0.245
552,-0.505,-0.220
553,-0.500,-0.225
554,-0.505,-0.225
555,-0.505,-0.240
556,-0.510,-0.255
557,-0.520,-0.255
558,-0.515,-0.265
559,-0.525,-0.270
560,-0.525,-0.260
561,-0.520,-0.250
562,-0.505,-0.250
563,-0.495,-0.235
564,-0.495,-0.235
565,-0.485,-0.245
566,-0.485,-0.250
567,-0.490,-0.255
568,-0.495,-0.255
569,-0.505,-0.265
570,-0.510,-0.270
571,-0.515,-0.265
572,-0.510,-0.260
573,-0.520,-0.260
574,-0.500,-0.245
575,-0.505,-0.250
576,-0.485,-0.240
577,-0.485,-0.245
578,-0.475,-0.255
579,-0.485,-0.245
580,-0.485,-0.250
581,-0.490,-0.265
582,-0.510,-0.270
583,-0.510,-0.265
584,-0.510,-0.270
585,-0.510,-0.260
586,-0.505,-0.260
587,-0.495,-0.245
588,-0.475,-0.255
589,-0.470,-0.250
590,-0.465,-0.250
591,-0.465,-0.260
592,-0.475,-0.270
593,-0.475,-0.275
594,-0.490,-0.275
595,-0.505,-0.280
596,-0.495,-0.270
597,-0.490,-0.270
598,-0.490,-0.260
599,-0.495,-0.260
600,-0.475,-0.255
601,-0.450,-0.250
602,-0.480,-0.265
603,-0.465,-0.270
604,-0.465,-0.270
605,-0.470,-0.275
606,-0.485,-0.285
607,-0.480,-0.295
608,-0.480,-0.290
609,-0.490,-0.285
610,-0.465,-0.275
611,-0.475,-0.270
612,-0.460,-0.260
613,-0.445,-0.260
614,-0.445,-0.275
615,-0.435,-0.275
616,-0.440,-0.280
617,-0.445,-0.295
618,-0.430,-0.285
619,-0.435,-0.295
620,-0.435,-0.290
621,-0.435,-0.290
622,-0.430,-0.280
623,-0.415,-0.275
624,-0.415,-0.270
625,-0.410,-0.270
626,-0.410,-0.290
627,-0.405,-0.280
628,-0.415,-0.300
629,-0.415,-0.305
630,-0.405,-0.310
631,-0.415,-0.310
632,-0.415,-0.310
633,-0.425,-0.305
634,-0.420,-0.295
635,-0.415,-0.290
636,-0.400,-0.280
637,-0.390,-0.285
638,-0.385,-0.295
639,-0.385,-0.290
640,-0.390,-0.300
641,-0.400,-0.290
642,-0.415,-0.315
643,-0.415,-0.310
644,-0.425,-0.305
645,-0.410,-0.290
646,-0.415,-0.290
647,-0.410,-0.285
648,-0.400,-0.280
649,-0.390,-0.270
650,-0.380,-0.285
651,-0.400,-0.280
652,-0.390,-0.295
653,-0.400,-0.285
654,-0.410,-0.300
655,-0.425,-0.280
656,-0.440,-0.275
657,-0.440,-0.275
658,-0.445,-0.260
659,-0.450,-0.265
660,-0.455,-0.255
661,-0.460,-0.245
662,-0.475,-0.245
663,-0.495,-0.250
664,-0.505,-0.245
665,-0.515,-0.265
666,-0.530,-0.265
667,-0.555,-0.265
668,-0.565,-0.255
669,-0.570,-0.250
670,-0.580,-0.235
671,-0.590,-0.245
672,-0.605,-0.240
673,-0.595,-0.225
674,-0.590,-0.240
675,-0.600,-0.245
676,-0.605,-0.245
677,-0.610,-0.255
678,-0.620,-0.260
679,-0.630,-0.260
680,-0.635,-0.255
681,-0.645,-0.245
682,-0.640,-0.240
683,-0.640,-0.240
684,-0.630,-0.225
685,-0.625,-0.225
686,-0.615,-0.240
687,-0.610,-0.245
688,-0.620,-0.255
689,-0.615,-0.250
690,-0.625,-0.260
691,-0.635,-0.260
692,-0.630,-0.255
693,-0.630,-0.245
694,-0.625,-0.250
695,-0.605,-0.240
696,-0.600,-0.245
697,-0.580,-0.235
698,-0.585,-0.255
699,-0.585,-0.250
700,-0.580,-0.255
701,-0.590,-0.270
702,-0.605,-0.270
703,-0.605,-0.270
704,-0.605,-0.270
705,-0.605,-0.250
706,-0.600,-0.255
707,-0.600,-0.240
708,-0.575,-0.240
709,-0.575,-0.240
710,-0.580,-0.250
711,-0.580,-0.260
712,-0.585,-0.265
713,-0.580,-0.265
714,-0.595,-0.270
715,-0.600,-0.280
716,-0.605,-0.280
717,-0.600,-0.260
718,-0.600,-0.265
719,-0.600,-0.260
720,-0.595,-0.260
721,-0.595,-0.250
722,-0.605,-0.255
723,-0.595,-0.260
724,-0.600,-0.265
725,-0.620,-0.275
726,-0.625,-0.275
727,-0.610,-0.285
728,-0.615,-0.275
729,-0.620,-0.275
730,-0.615,-0.260
731,-0.615,-0.260
732,-0.620,-0.260
733,-0.600,-0.260
734,-0.600,-0.250
735,-0.605,-0.255
736,-0.610,-0.270
737,-0.625,-0.270
738,-0.645,-0.280
739,-0.660,-0.285
740,-0.645,-0.285
741,-0.640,-0.275
742,-0.640,-0.275
743,-0.640,-0.260
744,-0.630,-0.255
745,-0.625,-0.255
746,-0.625,-0.260
747,-0.630,-0.260
748,-0.640,-0.265
749,-0.645,-0.285
750,-0.660,-0.285
751,-0.655,-0.280
752,-0.650,-0.280
753,-0.650,-0.280
754,-0.650,-0.275
755,-0.645,-0.255
756,-0.635,-0.265
757,-0.645,-0.260
758,-0.645,-0.275
759,-0.645,-0.280
760,-0.645,-0.275
761,-0.645,-0.285
762,-0.660,-0.280
763,-0.660,-0.265
764,-0.660,-0.250
765,-0.655,-0.250
766,-0.660,-0.235
767,-0.650,-0.225
768,-0.635,-0.210
769,-0.615,-0.200
770,-0.615,-0.200
771,-0.610,-0.215
772,-0.600,-0.225
773,-0.605,-0.240
774,-0.590,-0.255
775,-0.595,-0.260
776,-0.580,-0.275
777,-0.560,-0.285
778,-0.540,-0.275
779,-0.525,-0.265
780,-0.500,-0.270
781,-0.480,-0.245
782,-0.480,-0.250
783,-0.500,-0.255
784,-0.500,-0.250
785,-0.515,-0.270
786,-0.520,-0.280
787,-0.530,-0.275
788,-0.525,-0.270
789,-0.520,-0.265
790,-0.520,-0.260
791,-0.510,-0.250
792,-0.520,-0.260
793,-0.510,-0.260
794,-0.520,-0.275
795,-0.535,-0.280
796,-0.540,-0.300
797,-0.565,-0.310
798,-0.600,-0.310
799,-0.610,-0.310
800,-0.640,-0.310
801,-0.635,-0.305
802,-0.650,-0.290
803,-0.645,-0.300
804,-0.635,-0.290
805,-0.635,-0.295
806,-0.635,-0.295
807,-0.645,-0.305
808,-0.640,-0.305
809,-0.670,-0.320
810,-0.665,-0.325
811,-0.670,-0.325
812,-0.665,-0.325
813,-0.675,-0.310
814,-0.665,-0.305
815,-0.665,-0.295
816,-0.655,-0.295
817,-0.645,-0.280
818,-0.645,-0.290
819,-0.650,-0.300
820,-0.660,-0.305
821,-0.660,-0.310
822,-0.670,-0.320
823,-0.670,-0.315
824,-0.680,-0.320
825,-0.680,-0.310
826,-0.665,-0.295
827,-0.660,-0.300
828,-0.645,-0.290
829,-0.635,-0.295
830,-0.625,-0.295
831,-0.630,-0.295
832,-0.630,-0.305
833,-0.630,-0.295
834,-0.630,-0.290
835,-0.620,-0.280
836,-0.600,-0.270
837,-0.600,-0.280
838,-0.600,-0.305
839,-0.580,-0.335
840,-0.545,-0.390
841,-0.500,-0.465
842,-0.435,-0.550
843,-0.300,-0.645
844,-0.145,-0.715
845,0.085,-0.760
846,0.375,-0.775
847,0.715,-0.755
848,1.070,-0.685
849,1.405,-0.610
850,1.635,-0.515
851,1.710,-0.440
852,1.590,-0.370
853,1.255,-0.315
854,0.745,-0.295
855,0.115,-0.315
856,-0.510,-0.325
857,-1.025,-0.355
858,-1.320,-0.385
859,-1.370,-0.385
860,-1.225,-0.385
861,-0.990,-0.350
862,-0.770,-0.315
863,-0.600,-0.275
864,-0.500,-0.230
865,-0.460,-0.225
866,-0.455,-0.240
867,-0.490,-0.255
868,-0.520,-0.260
869,-0.565,-0.265
870,-0.575,-0.265
871,-0.580,-0.275
872,-0.590,-0.270
873,-0.580,-0.265
874,-0.560,-0.260
875,-0.560,-0.255
876,-0.555,-0.260
877,-0.535,-0.235
878,-0.535,-0.255
879,-0.535,-0.260
880,-0.545,-0.255
881,-0.550,-0.275
882,-0.565,-0.285
883,-0.550,-0.275
884,-0.565,-0.275
885,-0.565,-0.265
886,-0.560,-0.250
887,-0.540,-0.255
888,-0.540,-0.250
889,-0.520,-0.250
890,-0.525,-0.255
891,-0.540,-0.265
892,-0.530,-0.275
893,-0.555,-0.285
894,-0.550,-0.285
895,-0.545,-0.290
896,-0.545,-0.285
897,-0.550,-0.270
898,-0.540,-0.280
899,-0.530,-0.275
900,-0.530,-0.265
901,-0.530,-0.260
902,-0.520,-0.265
903,-0.520,-0.275
904,-0.530,-0.285
905,-0.530,-0.280
906,-0.530,-0.295
907,-0.525,-0.300
908,-0.530,-0.290
909,-0.540,-0.290
910,-0.545,-0.275
911,-0.525,-0.280
912,-0.510,-0.270
913,-0.510,-0.275
914,-0.530,-0.285
915,-0.515,-0.290
916,-0.515,-0.285
917,-0.515,-0.285
918,-0.515,-0.290
919,-0.525,-0.305
920,-0.515,-0.305
921,-0.525,-0.295
922,-0.505,-0.280
923,-0.500,-0.290
924,-0.495,-0.285
925,-0.480,-0.265
926,-0.480,-0.265
927,-0.490,-0.275
928,-0.495,-0.290
929,-0.495,-0.290
930,-0.495,-0.300
931,-0.505,-0.300
932,-0.500,-0.295
933,-0.510,-0.300
934,-0.495,-0.280
935,-0.485,-0.275
936,-0.480,-0.275
937,-0.470,-0.265
938,-0.470,-0.270
939,-0.465,-0.285
940,-0.465,-0.300
941,-0.470,-0.300
942,-0.475,-0.300
943,-0.465,-0.320
944,-0.470,-0.310
945,-0.460,-0.295
946,-0.450,-0.295
947,-0.445,-0.280
948,-0.445,-0.285
949,-0.425,-0.280
950,-0.425,-0.280
951,-0.425,-0.290
952,-0.435,-0.300
953,-0.430,-0.305
954,-0.445,-0.305
955,-0.425,-0.300
956,-0.425,-0.305
957,-0.415,-0.315
958,-0.415,-0.300
959,-0.410,-0.305
960,-0.395,-0.295
961,-0.375,-0.285
962,-0.380,-0.295
963,-0.375,-0.300
964,-0.380,-0.315
965,-0.370,-0.320
966,-0.385,-0.315
967,-0.380,-0.325
968,-0.395,-0.315
969,-0.390,-0.310
970,-0.385,-0.315
971,-0.380,-0.300
972,-0.380,-0.300
973,-0.365,-0.300
974,-0.360,-0.305
975,-0.360,-0.305
976,-0.375,-0.325
977,-0.370,-0.320
978,-0.380,-0.330
979,-0.395,-0.330
980,-0.385,-0.330
981,-0.390,-0.325
982,-0.395,-0.320
983,-0.400,-0.300
984,-0.410,-0.300
985,-0.410,-0.290
986,-0.415,-0.305
987,-0.455,-0.290
988,-0.475,-0.305
989,-0.485,-0.300
990,-0.500,-0.305
991,-0.510,-0.315
992,-0.530,-0.305
993,-0.550,-0.290
994,-0.555,-0.280
995,-0.555,-0.285
996,-0.580,-0.265
997,-0.570,-0.260
998,-0.580,-0.270
999,-0.600,-0.275
1000,-0.605,-0.285
1001,-0.635,-0.295
1002,-0.645,-0.295
1003,-0.645,-0.290
1004,-0.660,-0.295
1005,-0.650,-0.275
1006,-0.650,-0.270
1007,-0.655,-0.265
1008,-0.635,-0.270
1009,-0.635,-0.270
1010,-0.645,-0.270
1011,-0.655,-0.285
1012,-0.660,-0.285
1013,-0.650,-0.300
1014,-0.670,-0.305
1015,-0.660,-0.310
1016,-0.655,-0.290
1017,-0.660,-0.285
1018,-0.650,-0.280
1019,-0.655,-0.270
1020,-0.645,-0.265
1021,-0.635,-0.270
1022,-0.630,-0.275
1023,-0.625,-0.285
1024,-0.630,-0.285
1025,-0.635,-0.290
1026,-0.635,-0.305
1027,-0.630,-0.290
1028,-0.630,-0.290
1029,-0.630,-0.285
1030,-0.610,-0.280
1031,-0.615,-0.285
1032,-0.610,-0.265
1033,-0.595,-0.280
1034,-0.590,-0.290
1035,-0.590,-0.285
1036,-0.600,-0.290
1037,-0.595,-0.310
1038,-0.600,-0.310
1039,-0.605,-0.310
1040,-0.605,-0.300
1041,-0.605,-0.295
1042,-0.595,-0.300
1043,-0.590,-0.290
1044,-0.580,-0.285
1045,-0.585,-0.285
1046,-0.580,-0.290
1047,-0.590,-0.305
1048,-0.600,-0.315
1049,-0.595,-0.305
1050,-0.605,-0.320
1051,-0.610,-0.325
1052,-0.605,-0.305
1053,-0.610,-0.310
1054,-0.610,-0.295
1055,-0.595,-0.295
1056,-0.590,-0.280
1057,-0.600,-0.295
1058,-0.605,-0.310
1059,-0.610,-0.310
1060,-0.625,-0.315
1061,-0.615,-0.330
1062,-0.630,-0.330
1063,-0.635,-0.315
1064,-0.635,-0.315
1065,-0.630,-0.305
1066,-0.620,-0.300
1067,-0.630,-0.300
1068,-0.615,-0.285
1069,-0.620,-0.300
1070,-0.610,-0.305
1071,-0.615,-0.315
1072,-0.625,-0.320
1073,-0.625,-0.325
1074,-0.645,-0.315
1075,-0.665,-0.330
1076,-0.645,-0.315
1077,-0.640,-0.325
1078,-0.640,-0.325
1079,-0.630,-0.305
1080,-0.625,-0.290
1081,-0.620,-0.300
1082,-0.615,-0.310
1083,-0.635,-0.315
1084,-0.630,-0.320
1085,-0.640,-0.330
1086,-0.640,-0.335
1087,-0.650,-0.325
1088,-0.650,-0.330
1089,-0.635,-0.310
1090,-0.640,-0.315
1091,-0.635,-0.305
1092,-0.640,-0.290
1093,-0.630,-0.310
1094,-0.630,-0.305
1095,-0.630,-0.315
1096,-0.640,-0.325
1097,-0.645,-0.340
1098,-0.650,-0.330
1099,-0.650,-0.330
1100,-0.660,-0.325
1101,-0.655,-0.315
1102,-0.655,-0.315
1103,-0.640,-0.300
1104,-0.645,-0.305
1105,-0.635,-0.315
1106,-0.635,-0.320
1107,-0.640,-0.320
1108,-0.650,-0.330
1109,-0.655,-0.330
1110,-0.650,-0.335
1111,-0.655,-0.330
1112,-0.640,-0.335
1113,-0.660,-0.335
1114,-0.660,-0.315
1115,-0.640,-0.315
1116,-0.625,-0.300
1117,-0.630,-0.320
1118,-0.630,-0.315
1119,-0.635,-0.320
1120,-0.660,-0.325
1121,-0.640,-0.330
1122,-0.655,-0.335
1123,-0.645,-0.320
1124,-0.635,-0.305
1125,-0.630,-0.285
1126,-0.640,-0.280
1127,-0.610,-0.275
1128,-0.610,-0.255
1129,-0.605,-0.255
1130,-0.590,-0.255
1131,-0.570,-0.265
1132,-0.565,-0.265
1133,-0.580,-0.280
1134,-0.580,-0.300
1135,-0.565,-0.300
1136,-0.550,-0.295
1137,-0.550,-0.305
1138,-0.535,-0.295
1139,-0.510,-0.310
1140,-0.505,-0.310
1141,-0.495,-0.310
1142,-0.490,-0.310
1143,-0.485,-0.315
1144,-0.490,-0.315
1145,-0.505,-0.320
1146,-0.505,-0.335
1147,-0.530,-0.325
1148,-0.530,-0.315
1149,-0.530,-0.310
1150,-0.530,-0.310
1151,-0.515,-0.290
1152,-0.500,-0.295
1153,-0.500,-0.300
1154,-0.500,-0.305
1155,-0.510,-0.315
1156,-0.530,-0.330
1157,-0.540,-0.340
1158,-0.565,-0.350
1159,-0.580,-0.345
1160,-0.590,-0.340
1161,-0.600,-0.325
1162,-0.620,-0.335
1163,-0.610,-0.325
1164,-0.610,-0.320
1165,-0.605,-0.330
1166,-0.615,-0.325
1167,-0.610,-0.345
1168,-0.625,-0.350
1169,-0.630,-0.345
1170,-0.640,-0.360
1171,-0.640,-0.355
1172,-0.640,-0.350
1173,-0.630,-0.340
1174,-0.630,-0.330
1175,-0.640,-0.325
1176,-0.625,-0.320
1177,-0.620,-0.325
1178,-0.625,-0.340
1179,-0.630,-0.340
1180,-0.635,-0.340
1181,-0.635,-0.340
1182,-0.650,-0.350
1183,-0.635,-0.350
1184,-0.645,-0.345
1185,-0.635,-0.330
1186,-0.635,-0.330
1187,-0.615,-0.315
1188,-0.610,-0.310
1189,-0.610,-0.315
1190,-0.600,-0.320
1191,-0.595,-0.330
1192,-0.605,-0.340
1193,-0.595,-0.340
1194,-0.605,-0.320
1195,-0.595,-0.315
1196,-0.590,-0.300
1197,-0.585,-0.275
1198,-0.575,-0.270
1199,-0.545,-0.265
1200,-0.530,-0.290
1201,-0.520,-0.365
1202,-0.495,-0.420
1203,-0.445,-0.510
1204,-0.365,-0.610
1205,-0.235,-0.710
1206,-0.035,-0.770
1207,0.225,-0.815
1208,0.575,-0.810
1209,0.950,-0.765
1210,1.305,-0.705
1211,1.595,-0.615
1212,1.745,-0.530
1213,1.695,-0.460
1214,1.430,-0.415
1215,0.960,-0.375
1216,0.340,-0.380
1217,-0.280,-0.380
1218,-0.830,-0.400
1219,-1.220,-0.415
1220,-1.375,-0.425
1221,-1.320,-0.415
1222,-1.120,-0.385
1223,-0.900,-0.350
1224,-0.700,-0.305
1225,-0.550,-0.275
1226,-0.475,-0.255
1227,-0.445,-0.245
1228,-0.445,-0.265
1229,-0.480,-0.280
1230,-0.510,-0.285
1231,-0.545,-0.285
1232,-0.550,-0.280
1233,-0.550,-0.265
1234,-0.545,-0.255
1235,-0.535,-0.255
1236,-0.525,-0.260
1237,-0.510,-0.260
1238,-0.505,-0.255
1239,-0.515,-0.265
1240,-0.520,-0.270
1241,-0.525,-0.290
1242,-0.530,-0.280
1243,-0.535,-0.275
1244,-0.530,-0.265
1245,-0.530,-0.270
1246,-0.515,-0.265
1247,-0.515,-0.260
1248,-0.505,-0.250
1249,-0.505,-0.260
1250,-0.500,-0.265
1251,-0.500,-0.280
1252,-0.520,-0.280
1253,-0.515,-0.285
1254,-0.520,-0.280
1255,-0.535,-0.295
1256,-0.530,-0.280
1257,-0.515,-0.280
1258,-0.505,-0.250
1259,-0.500,-0.255
1260,-0.500,-0.245
1261,-0.495,-0.265
1262,-0.495,-0.270
1263,-0.495,-0.275
1264,-0.510,-0.280
1265,-0.505,-0.285
1266,-0.515,-0.300
1267,-0.515,-0.290
1268,-0.515,-0.280
1269,-0.515,-0.270
1270,-0.500,-0.270
1271,-0.495,-0.265
1272,-0.490,-0.255
1273,-0.485,-0.260
1274,-0.485,-0.265
1275,-0.495,-0.280
1276,-0.495,-0.275
1277,-0.505,-0.295
1278,-0.520,-0.290
1279,-0.510,-0.285
1280,-0.520,-0.285
1281,-0.510,-0.295
1282,-0.500,-0.280
1283,-0.490,-0.270
1284,-0.490,-0.260
1285,-0.500,-0.265
1286,-0.480,-0.285
1287,-0.480,-0.275
1288,-0.480,-0.290
1289,-0.480,-0.295
1290,-0.490,-0.305
1291,-0.500,-0.300
1292,-0.495,-0.285
1293,-0.490,-0.275
1294,-0.480,-0.270
1295,-0.470,-0.270
1296,-0.460,-0.265
1297,-0.450,-0.275
1298,-0.455,-0.280
1299,-0.450,-0.290
1300,-0.450,-0.295
1301,-0.470,-0.295
1302,-0.475,-0.305
1303,-0.475,-0.305
1304,-0.465,-0.305
1305,-0.460,-0.280
1306,-0.455,-0.280
1307,-0.430,-0.260
1308,-0.425,-0.270
1309,-0.415,-0.270
1310,-0.415,-0.270
1311,-0.425,-0.280
1312,-0.425,-0.285
1313,-0.425,-0.305
1314,-0.430,-0.300
1315,-0.425,-0.300
1316,-0.430,-0.295
1317,-0.415,-0.285
1318,-0.415,-0.275
1319,-0.405,-0.275
1320,-0.405,-0.270
1321,-0.395,-0.270
1322,-0.390,-0.270
1323,-0.395,-0.290
1324,-0.400,-0.300
1325,-0.395,-0.300
1326,-0.405,-0.305
1327,-0.405,-0.305
1328,-0.405,-0.295
1329,-0.415,-0.285
1330,-0.400,-0.300
1331,-0.380,-0.285
1332,-0.370,-0.280
1333,-0.370,-0.280
1334,-0.380,-0.300
1335,-0.380,-0.295
1336,-0.380,-0.300
1337,-0.370,-0.315
1338,-0.380,-0.325
1339,-0.380,-0.320
1340,-0.370,-0.310
1341,-0.385,-0.315
1342,-0.380,-0.295
1343,-0.370,-0.285
1344,-0.360,-0.275
1345,-0.370,-0.295
1346,-0.365,-0.290
1347,-0.385,-0.295
1348,-0.400,-0.300
1349,-0.435,-0.315
1350,-0.445,-0.305
1351,-0.460,-0.300
1352,-0.475,-0.285
1353,-0.490,-0.290
1354,-0.490,-0.280
1355,-0.505,-0.275
1356,-0.510,-0.255
1357,-0.510,-0.265
1358,-0.525,-0.260
1359,-0.535,-0.265
1360,-0.555,-0.275
1361,-0.570,-0.285
1362,-0.575,-0.285
1363,-0.595,-0.280
1364,-0.590,-0.270
1365,-0.605,-0.270
1366,-0.600,-0.255
1367,-0.600,-0.260
1368,-0.615,-0.245
1369,-0.590,-0.250
1370,-0.600,-0.265
1371,-0.595,-0.275
1372,-0.600,-0.265
1373,-0.620,-0.265
1374,-0.620,-0.270
1375,-0.620,-0.270
1376,-0.610,-0.265
1377,-0.610,-0.255
1378,-0.600,-0.260
1379,-0.605,-0.250
1380,-0.595,-0.245
1381,-0.590,-0.255
1382,-0.585,-0.250
1383,-0.585,-0.265
1384,-0.590,-0.265
1385,-0.590,-0.265
1386,-0.595,-0.260
1387,-0.610,-0.275
1388,-0.600,-0.270
1389,-0.595,-0.255
1390,-0.585,-0.255
1391,-0.580,-0.245
1392,-0.570,-0.255
1393,-0.575,-0.245
1394,-0.575,-0.250
1395,-0.565,-0.260
1396,-0.580,-0.265
1397,-0.575,-0.275
1398,-0.575,-0.275
1399,-0.575,-0.280
1400,-0.570,-0.260
1401,-0.585,-0.260
1402,-0.555,-0.265
1403,-0.560,-0.245
1404,-0.555,-0.245
1405,-0.550,-0.250
1406,-0.560,-0.260
1407,-0.555,-0.270
1408,-0.555,-0.275
1409,-0.565,-0.280
1410,-0.575,-0.280
1411,-0.560,-0.285
1412,-0.565,-0.285
1413,-0.560,-0.275
1414,-0.565,-0.265
1415,-0.555,-0.265
1416,-0.555,-0.260
1417,-0.550,-0.265
1418,-0.550,-0.270
1419,-0.555,-0.270
1420,-0.565,-0.280
1421,-0.570,-0.285
1422,-0.580,-0.295
1423,-0.585,-0.295
1424,-0.585,-0.280
1425,-0.600,-0.285
1426,-0.605,-0.285
1427,-0.590,-0.280
1428,-0.585,-0.270
1429,-0.590,-0.270
1430,-0.585,-0.285
1431,-0.590,-0.280
1432,-0.590,-0.285
1433,-0.595,-0.290
1434,-0.605,-0.290
1435,-0.620,-0.300
1436,-0.605,-0.290
1437,-0.615,-0.280
1438,-0.605,-0.280
1439,-0.600,-0.270
1440,-0.585,-0.260
1441,-0.595,-0.265
1442,-0.600,-0.285
1443,-0.595,-0.280
1444,-0.605,-0.285
1445,-0.620,-0.300
1446,-0.620,-0.300
1447,-0.625,-0.300
1448,-0.620,-0.295
1449,-0.620,-0.290
1450,-0.615,-0.285
1451,-0.605,-0.280
1452,-0.605,-0.270
1453,-0.605,-0.280
1454,-0.605,-0.295
1455,-0.610,-0.295
1456,-0.610,-0.290
1457,-0.615,-0.300
1458,-0.615,-0.305
1459,-0.630,-0.305
1460,-0.635,-0.295
1461,-0.635,-0.300
1462,-0.620,-0.290
1463,-0.610,-0.275
1464,-0.605,-0.265
1465,-0.600,-0.275
1466,-0.610,-0.285
1467,-0.605,-0.295
1468,-0.620,-0.290
1469,-0.625,-0.300
1470,-0.625,-0.300
1471,-0.630,-0.295
1472,-0.625,-0.305
1473,-0.630,-0.290
1474,-0.625,-0.275
1475,-0.605,-0.280
1476,-0.610,-0.270
1477,-0.600,-0.270
1478,-0.610,-0.270
1479,-0.600,-0.285
1480,-0.620,-0.290
1481,-0.610,-0.295
1482,-0.625,-0.295
1483,-0.620,-0.300
1484,-0.615,-0.295
1485,-0.620,-0.290
1486,-0.620,-0.280
1487,-0.610,-0.280
1488,-0.600,-0.270
1489,-0.610,-0.275
1490,-0.595,-0.270
1491,-0.600,-0.290
1492,-0.610,-0.305
1493,-0.610,-0.290
1494,-0.620,-0.305
1495,-0.630,-0.305
1496,-0.615,-0.305
1497,-0.630,-0.295
1498,-0.625,-0.285
1499,-0.620,-0.290
1500,-0.615,-0.270
1501,-0.605,-0.285
1502,-0.600,-0.285
1503,-0.595,-0.290
1504,-0.615,-0.290
1505,-0.615,-0.295
1506,-0.620,-0.305
1507,-0.615,-0.305
1508,-0.620,-0.280
1509,-0.620,-0.285
1510,-0.615,-0.275
1511,-0.605,-0.275
1512,-0.600,-0.265
1513,-0.595,-0.275
1514,-0.610,-0.285
1515,-0.615,-0.290
1516,-0.610,-0.295
1517,-0.620,-0.290
1518,-0.625,-0.300
1519,-0.635,-0.305
1520,-0.620,-0.290
1521,-0.605,-0.285
1522,-0.600,-0.275
1523,-0.610,-0.265
1524,-0.600,-0.260
1525,-0.600,-0.270
1526,-0.605,-0.270
1527,-0.595,-0.280
1528,-0.615,-0.285
1529,-0.620,-0.290
1530,-0.625,-0.290
1531,-0.625,-0.285
1532,-0.610,-0.295
1533,-0.610,-0.275
1534,-0.600,-0.265
1535,-0.600,-0.265
1536,-0.590,-0.255
1537,-0.590,-0.265
1538,-0.595,-0.270
1539,-0.595,-0.265
1540,-0.605,-0.275
1541,-0.615,-0.280
1542,-0.625,-0.295
1543,-0.625,-0.280
1544,-0.635,-0.265
1545,-0.620,-0.255
1546,-0.615,-0.245
1547,-0.600,-0.235
1548,-0.590,-0.220
1549,-0.580,-0.215
1550,-0.585,-0.205
1551,-0.570,-0.205
1552,-0.565,-0.210
1553,-0.580,-0.215
1554,-0.565,-0.220
1555,-0.550,-0.225
1556,-0.540,-0.230
1557,-0.530,-0.235
1558,-0.500,-0.235
1559,-0.485,-0.255
1560,-0.480,-0.255
1561,-0.460,-0.260
1562,-0.465,-0.255
1563,-0.460,-0.260
1564,-0.460,-0.265
1565,-0.470,-0.255
1566,-0.490,-0.265
1567,-0.500,-0.270
1568,-0.490,-0.270
1569,-0.495,-0.260
1570,-0.485,-0.255
1571,-0.485,-0.250
1572,-0.470,-0.235
1573,-0.460,-0.230
1574,-0.470,-0.260
1575,-0.470,-0.255
1576,-0.500,-0.265
1577,-0.515,-0.285
1578,-0.545,-0.290
1579,-0.560,-0.290
1580,-0.575,-0.280
1581,-0.580,-0.285
1582,-0.590,-0.275
1583,-0.585,-0.270
1584,-0.575,-0.265
1585,-0.570,-0.260
1586,-0.580,-0.270
1587,-0.590,-0.275
1588,-0.585,-0.280
1589,-0.595,-0.280
1590,-0.610,-0.295
1591,-0.620,-0.295
1592,-0.630,-0.285
1593,-0.620,-0.285
1594,-0.615,-0.270
1595,-0.620,-0.260
1596,-0.615,-0.260
1597,-0.590,-0.255
1598,-0.590,-0.280
1599,-0.590,-0.285
1600,-0.600,-0.290
1601,-0.610,-0.285
1602,-0.625,-0.300
1603,-0.620,-0.290
1604,-0.630,-0.285
1605,-0.600,-0.270
1606,-0.600,-0.270
1607,-0.605,-0.265
1608,-0.590,-0.255
1609,-0.580,-0.260
1610,-0.595,-0.260
1611,-0.585,-0.265
1612,-0.580,-0.270
1613,-0.575,-0.260
1614,-0.580,-0.245
1615,-0.570,-0.235
1616,-0.555,-0.230
1617,-0.550,-0.240
1618,-0.535,-0.250
1619,-0.520,-0.285
1620,-0.505,-0.335
1621,-0.465,-0.405
1622,-0.415,-0.495
1623,-0.330,-0.585
1624,-0.200,-0.675
1625,-0.015,-0.735
1626,0.225,-0.760
1627,0.565,-0.735
1628,0.940,-0.660
1629,1.295,-0.565
1630,1.545,-0.465
1631,1.580,-0.355
1632,1.320,-0.290
1633,0.785,-0.250
1634,0.145,-0.270
1635,-0.495,-0.295
1636,-1.135,-0.345
1637,-1.350,-0.355
1638,-1.310,-0.340
1639,-1.100,-0.305
1640,-0.840,-0.260
1641,-0.595,-0.215
1642,-0.445,-0.190
1643,-0.380,-0.180
1644,-0.380,-0.190
1645,-0.430,-0.205
1646,-0.470,-0.190
1647,-0.515,-0.200
1648,-0.545,-0.220
1649,-0.545,-0.215
1650,-0.545,-0.220
1651,-0.540,-0.215
1652,-0.525,-0.210
1653,-0.525,-0.210
1654,-0.510,-0.195
1655,-0.520,-0.195
1656,-0.515,-0.185
1657,-0.505,-0.195
1658,-0.505,-0.200
1659,-0.515,-0.200
1660,-0.515,-0.200
1661,-0.510,-0.215
1662,-0.520,-0.220
1663,-0.525,-0.225
1664,-0.520,-0.215
1665,-0.515,-0.210
1666,-0.510,-0.195
1667,-0.505,-0.190
1668,-0.500,-0.190
1669,-0.485,-0.190
1670,-0.490,-0.200
1671,-0.490,-0.200
1672,-0.490,-0.210
1673,-0.500,-0.225
1674,-0.510,-0.205
1675,-0.515,-0.215
1676,-0.510,-0.210
1677,-0.505,-0.205
1678,-0.500,-0.205
1679,-0.505,-0.200
1680,-0.500,-0.195
1681,-0.500,-0.200
1682,-0.495,-0.205
1683,-0.510,-0.210
1684,-0.505,-0.220
1685,-0.520,-0.230
1686,-0.520,-0.225
1687,-0.505,-0.230
1688,-0.500,-0.230
1689,-0.500,-0.220
1690,-0.485,-0.215
1691,-0.490,-0.200
1692,-0.475,-0.210
1693,-0.490,-0.215
1694,-0.465,-0.215
1695,-0.480,-0.225
1696,-0.485,-0.220
1697,-0.495,-0.235
1698,-0.500,-0.230
1699,-0.500,-0.245
1700,-0.510,-0.230
1701,-0.500,-0.230
1702,-0.495,-0.220
1703,-0.495,-0.215
1704,-0.480,-0.200
1705,-0.470,-0.210
1706,-0.455,-0.220
1707,-0.470,-0.230
1708,-0.470,-0.225
1709,-0.475,-0.250
1710,-0.470,-0.240
1711,-0.480,-0.240
1712,-0.485,-0.235
1713,-0.465,-0.230
1714,-0.470,-0.235
1715,-0.455,-0.225
1716,-0.450,-0.210
1717,-0.435,-0.220
1718,-0.450,-0.230
1719,-0.450,-0.225
1720,-0.445,-0.240
1721,-0.460,-0.240
1722,-0.450,-0.250
1723,-0.455,-0.245
1724,-0.450,-0.245
1725,-0.445,-0.240
1726,-0.440,-0.225
1727,-0.445,-0.225
1728,-0.425,-0.220
1729,-0.425,-0.215
1730,-0.410,-0.230
1731,-0.430,-0.240
1732,-0.430,-0.240
1733,-0.430,-0.255
1734,-0.420,-0.260
1735,-0.425,-0.265
1736,-0.430,-0.250
1737,-0.425,-0.250
1738,-0.425,-0.245
1739,-0.430,-0.240
1740,-0.420,-0.235
1741,-0.405,-0.240
1742,-0.410,-0.240
1743,-0.420,-0.245
1744,-0.420,-0.250
1745,-0.430,-0.260
1746,-0.435,-0.260
1747,-0.445,-0.270
1748,-0.445,-0.260
1749,-0.445,-0.255
1750,-0.445,-0.240
1751,-0.445,-0.240
1752,-0.430,-0.230
1753,-0.430,-0.240
1754,-0.425,-0.255
1755,-0.425,-0.240
1756,-0.420,-0.260
1757,-0.430,-0.260
1758,-0.420,-0.265
1759,-0.430,-0.265
1760,-0.430,-0.255
1761,-0.435,-0.245
1762,-0.430,-0.245
1763,-0.425,-0.230
1764,-0.425,-0.220
1765,-0.430,-0.220
1766,-0.450,-0.225
1767,-0.460,-0.225
1768,-0.470,-0.230
1769,-0.495,-0.235
1770,-0.500,-0.235
1771,-0.520,-0.230
1772,-0.535,-0.215
1773,-0.535,-0.220
1774,-0.555,-0.210
1775,-0.570,-0.195
1776,-0.565,-0.180
1777,-0.560,-0.190
1778,-0.565,-0.200
1779,-0.575,-0.200
1780,-0.585,-0.200
1781,-0.590,-0.205
1782,-0.605,-0.210
1783,-0.615,-0.210
1784,-0.605,-0.220
1785,-0.620,-0.205
1786,-0.620,-0.195
1787,-0.615,-0.190
1788,-0.595,-0.185
1789,-0.595,-0.180
1790,-0.600,-0.190
1791,-0.600,-0.190
1792,-0.605,-0.210
1793,-0.625,-0.210
1794,-0.630,-0.220
1795,-0.630,-0.210
1796,-0.615,-0.200
1797,-0.615,-0.205
1798,-0.615,-0.195
1799,-0.610,-0.185
1800,-0.605,-0.195
1801,-0.580,-0.180
1802,-0.580,-0.190
1803,-0.590,-0.200
1804,-0.600,-0.200
1805,-0.600,-0.210
1806,-0.595,-0.220
1807,-0.595,-0.215
1808,-0.590,-0.200
1809,-0.600,-0.210
1810,-0.590,-0.190
1811,-0.585,-0.195
1812,-0.585,-0.185
1813,-0.560,-0.195
1814,-0.580,-0.200
1815,-0.570,-0.195
1816,-0.580,-0.195
1817,-0.590,-0.205
1818,-0.600,-0.220
1819,-0.595,-0.215
1820,-0.595,-0.225
1821,-0.595,-0.205
1822,-0.585,-0.205
1823,-0.570,-0.200
1824,-0.565,-0.185
1825,-0.565,-0.190
1826,-0.565,-0.195
1827,-0.575,-0.200
1828,-0.565,-0.215
1829,-0.570,-0.220
1830,-0.585,-0.225
1831,-0.595,-0.225
1832,-0.605,-0.220
1833,-0.605,-0.225
1834,-0.585,-0.210
1835,-0.595,-0.205
1836,-0.585,-0.200
1837,-0.585,-0.190
1838,-0.585,-0.210
1839,-0.600,-0.205
1840,-0.590,-0.210
1841,-0.595,-0.220
1842,-0.605,-0.220
1843,-0.620,-0.230
1844,-0.620,-0.225
1845,-0.625,-0.220
1846,-0.630,-0.210
1847,-0.620,-0.215
1848,-0.600,-0.200
1849,-0.600,-0.215
1850,-0.605,-0.190
1851,-0.610,-0.200
1852,-0.620,-0.220
1853,-0.630,-0.220
1854,-0.635,-0.235
1855,-0.655,-0.240
1856,-0.635,-0.220
1857,-0.645,-0.220
1858,-0.635,-0.210
1859,-0.645,-0.195
1860,-0.645,-0.200
1861,-0.640,-0.205
1862,-0.620,-0.210
1863,-0.630,-0.215
1864,-0.635,-0.225
1865,-0.640,-0.225
1866,-0.645,-0.225
1867,-0.645,-0.240
1868,-0.655,-0.230
1869,-0.650,-0.220
1870,-0.645,-0.205
1871,-0.650,-0.210
1872,-0.640,-0.210
1873,-0.635,-0.195
1874,-0.630,-0.200
1875,-0.635,-0.215
1876,-0.640,-0.220
1877,-0.645,-0.230
1878,-0.660,-0.235
1879,-0.660,-0.230
1880,-0.655,-0.225
1881,-0.655,-0.220
1882,-0.650,-0.215
1883,-0.645,-0.210
1884,-0.635,-0.195
1885,-0.630,-0.200
1886,-0.630,-0.200
1887,-0.645,-0.210
1888,-0.635,-0.215
1889,-0.655,-0.225
1890,-0.670,-0.215
1891,-0.670,-0.220
1892,-0.680,-0.215
1893,-0.655,-0.200
1894,-0.665,-0.185
1895,-0.655,-0.170
1896,-0.645,-0.155
1897,-0.630,-0.155
1898,-0.630,-0.170
1899,-0.620,-0.165
1900,-0.620,-0.165
1901,-0.630,-0.155
1902,-0.625,-0.170
1903,-0.615,-0.175
1904,-0.610,-0.160
1905,-0.600,-0.175
1906,-0.580,-0.185
1907,-0.565,-0.185
1908,-0.560,-0.200
1909,-0.545,-0.185
1910,-0.535,-0.205
1911,-0.525,-0.205
1912,-0.515,-0.210
1913,-0.520,-0.210
1914,-0.525,-0.210
1915,-0.525,-0.215
1916,-0.540,-0.215
1917,-0.550,-0.210
1918,-0.550,-0.210
1919,-0.540,-0.195
1920,-0.555,-0.195
1921,-0.530,-0.180
1922,-0.530,-0.200
1923,-0.540,-0.215
1924,-0.535,-0.220
1925,-0.555,-0.225
1926,-0.580,-0.235
1927,-0.605,-0.235
1928,-0.625,-0.250
1929,-0.630,-0.250
1930,-0.640,-0.235
1931,-0.650,-0.220
1932,-0.635,-0.230
1933,-0.635,-0.225
1934,-0.645,-0.225
1935,-0.625,-0.225
1936,-0.635,-0.235
1937,-0.650,-0.240
1938,-0.665,-0.245
1939,-0.665,-0.255
1940,-0.670,-0.240
1941,-0.670,-0.240
1942,-0.670,-0.225
1943,-0.670,-0.215
1944,-0.655,-0.215
1945,-0.665,-0.210
1946,-0.650,-0.220
1947,-0.645,-0.225
1948,-0.665,-0.220
1949,-0.675,-0.245
1950,-0.660,-0.245
1951,-0.675,-0.235
1952,-0.680,-0.225
1953,-0.680,-0.230
1954,-0.665,-0.230
1955,-0.665,-0.220
1956,-0.650,-0.215
1957,-0.635,-0.215
1958,-0.635,-0.220
1959,-0.625,-0.210
1960,-0.630,-0.220
1961,-0.630,-0.210
1962,-0.625,-0.205
1963,-0.630,-0.200
1964,-0.610,-0.200
1965,-0.610,-0.220
1966,-0.610,-0.255
1967,-0.575,-0.295
1968,-0.540,-0.360
1969,-0.470,-0.425
1970,-0.385,-0.525
1971,-0.235,-0.595
1972,-0.030,-0.635
1973,0.280,-0.650
1974,0.620,-0.615
1975,0.990,-0.555
1976,1.335,-0.475
1977,1.585,-0.390
1978,1.670,-0.310
1979,1.555,-0.245
1980,1.210,-0.190
1981,0.665,-0.170
1982,0.025,-0.185
1983,-0.615,-0.210
1984,-1.170,-0.245
1985,-1.400,-0.260
1986,-1.365,-0.275
1987,-1.170,-0.270
1988,-0.920,-0.235
1989,-0.700,-0.220
1990,-0.540,-0.180
1991,-0.455,-0.155
1992,-0.445,-0.155
1993,-0.470,-0.155
1994,-0.515,-0.165
1995,-0.555,-0.170
1996,-0.585,-0.180
1997,-0.595,-0.185
1998,-0.595,-0.200
1999,-0.585,-0.200
2000,-0.595,-0.190
2001,-0.565,-0.185
2002,-0.555,-0.180
2003,-0.550,-0.180
2004,-0.545,-0.170
2005,-0.540,-0.175
2006,-0.550,-0.180
2007,-0.550,-0.180
2008,-0.550,-0.190
2009,-0.565,-0.195
2010,-0.560,-0.195
2011,-0.575,-0.210
2012,-0.570,-0.195
2013,-0.575,-0.190
2014,-0.565,-0.195
2015,-0.555,-0.195
2016,-0.550,-0.180
2017,-0.540,-0.175
2018,-0.525,-0.185
2019,-0.535,-0.185
2020,-0.550,-0.200
2021,-0.540,-0.200
2022,-0.540,-0.200
2023,-0.550,-0.210
2024,-0.550,-0.210
2025,-0.545,-0.200
2026,-0.545,-0.195
2027,-0.540,-0.190
2028,-0.530,-0.190
2029,-0.520,-0.185
2030,-0.520,-0.195
2031,-0.525,-0.195
2032,-0.540,-0.200
2033,-0.540,-0.220
2034,-0.550,-0.220
2035,-0.555,-0.215
2036,-0.560,-0.210
2037,-0.550,-0.215
2038,-0.560,-0.210
2039,-0.550,-0.205
2040,-0.535,-0.195
2041,-0.525,-0.200
2042,-0.520,-0.210
2043,-0.530,-0.205
2044,-0.530,-0.215
2045,-0.535,-0.220
2046,-0.530,-0.225
2047,-0.545,-0.220
2048,-0.535,-0.220
2049,-0.540,-0.220
2050,-0.530,-0.225
2051,-0.520,-0.205
2052,-0.510,-0.200
2053,-0.510,-0.195
2054,-0.505,-0.210
2055,-0.505,-0.210
2056,-0.510,-0.215
2057,-0.520,-0.225
2058,-0.520,-0.235
2059,-0.525,-0.230
2060,-0.530,-0.230
2061,-0.520,-0.225
2062,-0.505,-0.220
2063,-0.515,-0.215
2064,-0.510,-0.210
2065,-0.500,-0.210
2066,-0.495,-0.220
2067,-0.495,-0.230
2068,-0.500,-0.225
2069,-0.495,-0.240
2070,-0.500,-0.245
2071,-0.500,-0.235
2072,-0.500,-0.230
2073,-0.500,-0.235
2074,-0.485,-0.225
2075,-0.480,-0.220
2076,-0.470,-0.220
2077,-0.460,-0.215
2078,-0.455,-0.230
2079,-0.460,-0.230
2080,-0.465,-0.235
2081,-0.465,-0.250
2082,-0.465,-0.250
2083,-0.475,-0.250
2084,-0.465,-0.250
2085,-0.470,-0.235
2086,-0.460,-0.240
2087,-0.445,-0.235
2088,-0.440,-0.230
2089,-0.435,-0.230
2090,-0.445,-0.240
2091,-0.430,-0.240
2092,-0.440,-0.240
2093,-0.465,-0.260
2094,-0.460,-0.255
2095,-0.455,-0.265
2096,-0.465,-0.250
2097,-0.455,-0.250
2098,-0.455,-0.245
2099,-0.455,-0.240
2100,-0.440,-0.240
2101,-0.440,-0.230
2102,-0.440,-0.245
2103,-0.455,-0.240
2104,-0.470,-0.235
2105,-0.460,-0.245
2106,-0.465,-0.250
2107,-0.470,-0.260
2108,-0.490,-0.240
2109,-0.495,-0.235
2110,-0.500,-0.230
2111,-0.505,-0.215
2112,-0.505,-0.210
2113,-0.495,-0.220
2114,-0.515,-0.210
2115,-0.535,-0.220
2116,-0.540,-0.215
2117,-0.555,-0.220
2118,-0.580,-0.225
2119,-0.595,-0.230
2120,-0.595,-0.205
2121,-0.620,-0.215
2122,-0.625,-0.205
2123,-0.625,-0.195
2124,-0.635,-0.205
2125,-0.625,-0.195
2126,-0.635,-0.190
2127,-0.640,-0.200
2128,-0.650,-0.210
2129,-0.650,-0.210
2130,-0.675,-0.210
2131,-0.685,-0.225
2132,-0.695,-0.205
2133,-0.700,-0.215
2134,-0.690,-0.205
2135,-0.680,-0.200
2136,-0.675,-0.185
2137,-0.670,-0.175
2138,-0.685,-0.185
2139,-0.685,-0.200
2140,-0.685,-0.210
2141,-0.695,-0.215
2142,-0.705,-0.220
2143,-0.700,-0.215
2144,-0.695,-0.210
2145,-0.680,-0.205
2146,-0.680,-0.205
2147,-0.680,-0.195
2148,-0.670,-0.200
2149,-0.650,-0.190
2150,-0.660,-0.205
2151,-0.645,-0.205
2152,-0.645,-0.205
2153,-0.665,-0.215
2154,-0.650,-0.220
2155,-0.660,-0.225
2156,-0.665,-0.220
2157,-0.660,-0.215
2158,-0.645,-0.210
2159,-0.640,-0.210
2160,-0.625,-0.210
2161,-0.620,-0.210
2162,-0.610,-0.210
2163,-0.615,-0.210
2164,-0.620,-0.215
2165,-0.625,-0.225
2166,-0.635,-0.235
2167,-0.645,-0.235
2168,-0.640,-0.220
2169,-0.635,-0.210
2170,-0.640,-0.220
2171,-0.635,-0.220
2172,-0.615,-0.205
2173,-0.615,-0.200
2174,-0.625,-0.220
2175,-0.615,-0.210
2176,-0.615,-0.225
2177,-0.630,-0.225
2178,-0.635,-0.240
2179,-0.645,-0.235
2180,-0.645,-0.245
2181,-0.645,-0.240
2182,-0.645,-0.230
2183,-0.645,-0.225
2184,-0.640,-0.220
2185,-0.625,-0.195
2186,-0.640,-0.215
2187,-0.640,-0.220
2188,-0.640,-0.225
2189,-0.655,-0.240
2190,-0.660,-0.235
2191,-0.655,-0.245
2192,-0.660,-0.245
2193,-0.680,-0.235
2194,-0.675,-0.235
2195,-0.665,-0.230
2196,-0.670,-0.230
2197,-0.655,-0.215
2198,-0.655,-0.230
2199,-0.660,-0.230
2200,-0.665,-0.235
2201,-0.670,-0.245
2202,-0.675,-0.245
2203,-0.680,-0.255
2204,-0.685,-0.255
2205,-0.685,-0.250
2206,-0.685,-0.235
2207,-0.675,-0.245
2208,-0.675,-0.230
2209,-0.665,-0.215
2210,-0.665,-0.235
2211,-0.665,-0.235
2212,-0.680,-0.240
2213,-0.690,-0.250
2214,-0.680,-0.255
2215,-0.690,-0.255
2216,-0.685,-0.265
2217,-0.695,-0.260
2218,-0.685,-0.240
2219,-0.675,-0.245
2220,-0.670,-0.230
2221,-0.670,-0.225
2222,-0.660,-0.230
2223,-0.670,-0.245
2224,-0.680,-0.250
2225,-0.680,-0.255
2226,-0.690,-0.255
2227,-0.700,-0.265
2228,-0.695,-0.265
2229,-0.695,-0.255
2230,-0.690,-0.255
2231,-0.685,-0.245
2232,-0.675,-0.235
2233,-0.675,-0.240
2234,-0.670,-0.245
2235,-0.665,-0.240
2236,-0.665,-0.240
2237,-0.680,-0.255
2238,-0.695,-0.255
2239,-0.685,-0.265
2240,-0.700,-0.245
2241,-0.690,-0.230
2242,-0.685,-0.220
2243,-0.675,-0.215
2244,-0.660,-0.200
2245,-0.655,-0.195
2246,-0.640,-0.180
2247,-0.645,-0.180
2248,-0.620,-0.180
2249,-0.615,-0.195
2250,-0.620,-0.200
2251,-0.615,-0.220
2252,-0.605,-0.225
2253,-0.590,-0.235
2254,-0.580,-0.240
2255,-0.575,-0.235
2256,-0.565,-0.240
2257,-0.555,-0.230
2258,-0.545,-0.240
2259,-0.545,-0.235
2260,-0.530,-0.220
2261,-0.535,-0.245
2262,-0.535,-0.240
2263,-0.540,-0.260
2264,-0.565,-0.245
2265,-0.570,-0.245
2266,-0.550,-0.245
2267,-0.545,-0.230
2268,-0.560,-0.225
2269,-0.550,-0.225
2270,-0.520,-0.220
2271,-0.535,-0.240
2272,-0.535,-0.235
2273,-0.560,-0.245
2274,-0.575,-0.275
2275,-0.590,-0.275
2276,-0.615,-0.265
2277,-0.640,-0.275
2278,-0.650,-0.270
2279,-0.660,-0.255
2280,-0.660,-0.255
2281,-0.655,-0.250
2282,-0.645,-0.260
2283,-0.655,-0.265
2284,-0.670,-0.265
2285,-0.665,-0.275
2286,-0.685,-0.275
2287,-0.670,-0.290
2288,-0.680,-0.275
2289,-0.680,-0.285
2290,-0.675,-0.260
2291,-0.680,-0.260
2292,-0.680,-0.260
2293,-0.670,-0.240
2294,-0.660,-0.255
2295,-0.665,-0.260
2296,-0.670,-0.260
2297,-0.670,-0.280
2298,-0.675,-0.275
2299,-0.680,-0.280
2300,-0.675,-0.275
2301,-0.680,-0.270
2302,-0.675,-0.265
2303,-0.660,-0.260
2304,-0.660,-0.255
2305,-0.645,-0.245
2306,-0.635,-0.245
2307,-0.645,-0.245
2308,-0.645,-0.265
2309,-0.640,-0.260
2310,-0.645,-0.265
2311,-0.640,-0.250
2312,-0.635,-0.235
2313,-0.630,-0.225
2314,-0.625,-0.210
2315,-0.605,-0.220
2316,-0.600,-0.255
2317,-0.585,-0.285
2318,-0.555,-0.350
2319,-0.515,-0.435
2320,-0.430,-0.515
2321,-0.300,-0.620
2322,-0.110,-0.695
2323,0.140,-0.730
2324,0.480,-0.740
2325,0.870,-0.690
2326,1.245,-0.625
2327,1.560,-0.530
2328,1.700,-0.445
2329,1.620,-0.350
2330,1.275,-0.320
2331,0.715,-0.285
2332,0.075,-0.300
2333,-0.565,-0.320
2334,-1.130,-0.355
2335,-1.395,-0.365
2336,-1.420,-0.360
2337,-1.265,-0.330
2338,-1.030,-0.285
2339,-0.800,-0.240
2340,-0.620,-0.205
2341,-0.525,-0.180
2342,-0.480,-0.175
2343,-0.485,-0.185
2344,-0.520,-0.195
2345,-0.550,-0.210
2346,-0.570,-0.220
2347,-0.600,-0.225
2348,-0.615,-0.210
2349,-0.605,-0.220
2350,-0.595,-0.195
2351,-0.580,-0.195
2352,-0.570,-0.195
2353,-0.575,-0.185
2354,-0.555,-0.190
2355,-0.565,-0.190
2356,-0.570,-0.200
2357,-0.570,-0.200
2358,-0.570,-0.215
2359,-0.580,-0.220
2360,-0.580,-0.220
2361,-0.585,-0.195
2362,-0.580,-0.195
2363,-0.565,-0.195
2364,-0.560,-0.190
2365,-0.555,-0.175
2366,-0.555,-0.185
2367,-0.550,-0.200
2368,-0.550,-0.200
2369,-0.550,-0.210
2370,-0.555,-0.215
2371,-0.575,-0.220
2372,-0.580,-0.205
2373,-0.570,-0.215
2374,-0.560,-0.210
2375,-0.565,-0.200
2376,-0.555,-0.195
2377,-0.545,-0.185
2378,-0.545,-0.205
2379,-0.550,-0.200
2380,-0.550,-0.200
2381,-0.570,-0.210
2382,-0.565,-0.215
2383,-0.565,-0.220
2384,-0.575,-0.240
2385,-0.580,-0.210
2386,-0.565,-0.210
2387,-0.560,-0.195
2388,-0.560,-0.195
2389,-0.550,-0.195
2390,-0.555,-0.195
2391,-0.550,-0.205
2392,-0.550,-0.200
2393,-0.540,-0.225
2394,-0.545,-0.225
2395,-0.555,-0.225
2396,-0.555,-0.220
2397,-0.565,-0.225
2398,-0.545,-0.215
2399,-0.535,-0.200
2400,-0.540,-0.200
2401,-0.540,-0.195
2402,-0.525,-0.205
2403,-0.525,-0.200
2404,-0.530,-0.215
2405,-0.530,-0.215
2406,-0.530,-0.225
2407,-0.540,-0.230
2408,-0.545,-0.225
2409,-0.535,-0.215
2410,-0.535,-0.215
2411,-0.515,-0.205
2412,-0.510,-0.200
2413,-0.500,-0.190
2414,-0.515,-0.195
2415,-0.495,-0.205
2416,-0.490,-0.215
2417,-0.500,-0.220
2418,-0.510,-0.225
2419,-0.510,-0.235
2420,-0.515,-0.225
2421,-0.510,-0.225
2422,-0.505,-0.225
2423,-0.485,-0.215
2424,-0.485,-0.210
2425,-0.475,-0.205
2426,-0.465,-0.205
2427,-0.480,-0.205
2428,-0.465,-0.210
2429,-0.470,-0.220
2430,-0.475,-0.235
2431,-0.480,-0.220
2432,-0.480,-0.230
2433,-0.465,-0.225
2434,-0.465,-0.215
2435,-0.455,-0.210
2436,-0.450,-0.220
2437,-0.450,-0.190
2438,-0.420,-0.210
2439,-0.425,-0.210
2440,-0.420,-0.225
2441,-0.435,-0.235
2442,-0.435,-0.230
2443,-0.440,-0.235
2444,-0.450,-0.230
2445,-0.420,-0.235
2446,-0.425,-0.230
2447,-0.410,-0.210
2448,-0.415,-0.205
2449,-0.405,-0.205
2450,-0.400,-0.210
2451,-0.395,-0.210
2452,-0.395,-0.230
2453,-0.415,-0.230
2454,-0.410,-0.235
2455,-0.420,-0.235
2456,-0.410,-0.230
2457,-0.420,-0.230
2458,-0.415,-0.230
2459,-0.400,-0.225
2460,-0.390,-0.220
2461,-0.375,-0.200
2462,-0.385,-0.220
2463,-0.385,-0.220
2464,-0.405,-0.230
2465,-0.420,-0.235
2466,-0.430,-0.235
2467,-0.450,-0.245
2468,-0.455,-0.230
2469,-0.475,-0.220
2470,-0.485,-0.210
2471,-0.490,-0.205
2472,-0.510,-0.200
2473,-0.515,-0.185
2474,-0.515,-0.205
2475,-0.535,-0.200
2476,-0.550,-0.200
2477,-0.570,-0.205
2478,-0.590,-0.215
2479,-0.595,-0.215
2480,-0.615,-0.210
2481,-0.620,-0.210
2482,-0.625,-0.195
2483,-0.610,-0.190
2484,-0.620,-0.185
2485,-0.620,-0.185
2486,-0.615,-0.190
2487,-0.625,-0.175
2488,-0.645,-0.195
2489,-0.655,-0.205
2490,-0.655,-0.205
2491,-0.665,-0.225
2492,-0.665,-0.200
2493,-0.665,-0.205
2494,-0.650,-0.195
2495,-0.655,-0.185
2496,-0.650,-0.185
2497,-0.635,-0.175
2498,-0.645,-0.185
2499,-0.640,-0.190
2500,-0.650,-0.195
2501,-0.650,-0.190
2502,-0.650,-0.200
2503,-0.660,-0.205
2504,-0.655,-0.190
2505,-0.640,-0.190
2506,-0.635,-0.190
2507,-0.630,-0.180
2508,-0.620,-0.180
2509,-0.605,-0.180
2510,-0.605,-0.185
2511,-0.600,-0.185
2512,-0.595,-0.190
2513,-0.600,-0.195
2514,-0.610,-0.200
2515,-0.610,-0.210
2516,-0.605,-0.200
2517,-0.600,-0.210
2518,-0.595,-0.195
2519,-0.585,-0.195
2520,-0.575,-0.195
2521,-0.570,-0.170
2522,-0.570,-0.180
2523,-0.560,-0.195
2524,-0.560,-0.190
2525,-0.570,-0.205
2526,-0.570,-0.200
2527,-0.580,-0.205
2528,-0.570,-0.205
2529,-0.575,-0.195
2530,-0.565,-0.195
2531,-0.575,-0.195
2532,-0.560,-0.185
2533,-0.550,-0.180
2534,-0.540,-0.180
2535,-0.550,-0.185
2536,-0.555,-0.200
2537,-0.575,-0.220
2538,-0.565,-0.220
2539,-0.580,-0.220
2540,-0.580,-0.205
2541,-0.570,-0.220
2542,-0.575,-0.205
2543,-0.575,-0.190
2544,-0.575,-0.190
2545,-0.565,-0.190
2546,-0.565,-0.195
2547,-0.570,-0.195
2548,-0.570,-0.200
2549,-0.580,-0.215
2550,-0.585,-0.215
2551,-0.590,-0.225
2552,-0.600,-0.225
2553,-0.610,-0.225
2554,-0.595,-0.215
2555,-0.595,-0.205
2556,-0.585,-0.200
2557,-0.585,-0.195
2558,-0.570,-0.205
2559,-0.580,-0.200
2560,-0.585,-0.205
2561,-0.600,-0.215
2562,-0.600,-0.220
2563,-0.595,-0.230
2564,-0.600,-0.225
2565,-0.605,-0.220
2566,-0.600,-0.215
2567,-0.595,-0.215
2568,-0.590,-0.195
2569,-0.590,-0.200
2570,-0.580,-0.200
2571,-0.595,-0.195
2572,-0.590,-0.205
2573,-0.600,-0.215
2574,-0.610,-0.215
2575,-0.610,-0.230
2576,-0.600,-0.225
2577,-0.610,-0.210
2578,-0.605,-0.205
2579,-0.595,-0.205
2580,-0.585,-0.205
2581,-0.570,-0.205
2582,-0.580,-0.200
2583,-0.590,-0.205
2584,-0.595,-0.220
2585,-0.600,-0.225
2586,-0.590,-0.230
2587,-0.610,-0.235
2588,-0.610,-0.225
2589,-0.605,-0.235
2590,-0.600,-0.215
2591,-0.600,-0.205
2592,-0.595,-0.195
2593,-0.590,-0.190
2594,-0.580,-0.205
2595,-0.575,-0.210
2596,-0.585,-0.200
2597,-0.585,-0.215
2598,-0.580,-0.225
2599,-0.580,-0.220
2600,-0.590,-0.220
2601,-0.590,-0.225
2602,-0.575,-0.210
2603,-0.580,-0.215
2604,-0.565,-0.215
2605,-0.560,-0.205
2606,-0.560,-0.205
2607,-0.565,-0.200
2608,-0.550,-0.210
2609,-0.565,-0.220
2610,-0.560,-0.220
2611,-0.575,-0.230
2612,-0.565,-0.215
2613,-0.570,-0.225
2614,-0.570,-0.210
2615,-0.565,-0.190
2616,-0.560,-0.180
2617,-0.555,-0.170
2618,-0.555,-0.170
2619,-0.545,-0.170
2620,-0.540,-0.165
2621,-0.535,-0.160
2622,-0.530,-0.165
2623,-0.535,-0.160
2624,-0.525,-0.155
2625,-0.520,-0.155
2626,-0.510,-0.145
2627,-0.500,-0.155
2628,-0.475,-0.160
2629,-0.455,-0.165
2630,-0.440,-0.185
2631,-0.425,-0.195
2632,-0.425,-0.215
2633,-0.415,-0.210
2634,-0.415,-0.220
2635,-0.410,-0.220
2636,-0.420,-0.205
2637,-0.410,-0.210
2638,-0.420,-0.200
2639,-0.425,-0.185
2640,-0.415,-0.180
2641,-0.415,-0.185
2642,-0.415,-0.185
2643,-0.415,-0.185
2644,-0.415,-0.205
2645,-0.415,-0.200
2646,-0.410,-0.215
2647,-0.430,-0.225
2648,-0.435,-0.230
2649,-0.460,-0.210
2650,-0.445,-0.220
2651,-0.455,-0.225
2652,-0.460,-0.205
2653,-0.475,-0.210
2654,-0.480,-0.215
2655,-0.485,-0.220
2656,-0.510,-0.235
2657,-0.510,-0.230
2658,-0.505,-0.225
2659,-0.545,-0.240
2660,-0.535,-0.235
2661,-0.515,-0.235
2662,-0.525,-0.230
2663,-0.515,-0.225
2664,-0.515,-0.225
2665,-0.505,-0.225
2666,-0.505,-0.220
2667,-0.510,-0.215
2668,-0.515,-0.230
2669,-0.530,-0.225
2670,-0.530,-0.240
2671,-0.535,-0.240
2672,-0.535,-0.235
2673,-0.535,-0.230
2674,-0.535,-0.235
2675,-0.535,-0.220
2676,-0.520,-0.200
2677,-0.510,-0.210
2678,-0.515,-0.210
2679,-0.510,-0.215
2680,-0.495,-0.225
2681,-0.500,-0.220
2682,-0.515,-0.220
2683,-0.495,-0.225
2684,-0.495,-0.200
2685,-0.480,-0.200
2686,-0.470,-0.185
2687,-0.450,-0.165
2688,-0.440,-0.185
2689,-0.425,-0.215
2690,-0.410,-0.275
2691,-0.370,-0.350
2692,-0.310,-0.450
2693,-0.210,-0.560
2694,-0.055,-0.660
2695,0.175,-0.710
2696,0.470,-0.715
2697,0.850,-0.680
2698,1.240,-0.610
2699,1.580,-0.510
2700,1.765,-0.410
2701,1.735,-0.315
2702,1.415,-0.260
2703,0.860,-0.225
2704,0.220,-0.230
2705,-0.420,-0.260
2706,-1.025,-0.295
2707,-1.270,-0.325
2708,-1.235,-0.315
2709,-1.045,-0.285
2710,-0.785,-0.245
2711,-0.560,-0.205
2712,-0.410,-0.160
2713,-0.325,-0.130
2714,-0.300,-0.130
2715,-0.310,-0.145
2716,-0.325,-0.145
2717,-0.370,-0.160
2718,-0.400,-0.180
2719,-0.415,-0.185
2720,-0.415,-0.175
2721,-0.415,-0.160
2722,-0.395,-0.160
2723,-0.390,-0.150
2724,-0.370,-0.140
2725,-0.370,-0.150
2726,-0.365,-0.145
2727,-0.375,-0.145
2728,-0.380,-0.160
2729,-0.385,-0.170
2730,-0.370,-0.170
2731,-0.390,-0.175
2732,-0.400,-0.185
2733,-0.390,-0.175
2734,-0.395,-0.155
2735,-0.385,-0.160
2736,-0.370,-0.145
2737,-0.360,-0.150
2738,-0.365,-0.155
2739,-0.360,-0.160
2740,-0.365,-0.160
2741,-0.370,-0.165
2742,-0.360,-0.175
2743,-0.370,-0.185
2744,-0.370,-0.185
2745,-0.380,-0.175
2746,-0.365,-0.175
2747,-0.355,-0.165
2748,-0.360,-0.165
2749,-0.350,-0.140
2750,-0.335,-0.160
2751,-0.340,-0.160
2752,-0.330,-0.165
2753,-0.345,-0.175
2754,-0.340,-0.185
2755,-0.345,-0.175
2756,-0.345,-0.185
2757,-0.360,-0.185
2758,-0.370,-0.180
2759,-0.340,-0.165
2760,-0.355,-0.160
2761,-0.340,-0.160
2762,-0.325,-0.170
2763,-0.330,-0.170
2764,-0.335,-0.175
2765,-0.330,-0.185
2766,-0.335,-0.190
2767,-0.350,-0.195
2768,-0.365,-0.185
2769,-0.340,-0.185
2770,-0.345,-0.185
2771,-0.325,-0.175
2772,-0.325,-0.170
2773,-0.320,-0.165
2774,-0.300,-0.170
2775,-0.300,-0.175
2776,-0.295,-0.180
2777,-0.295,-0.190
2778,-0.310,-0.190
2779,-0.320,-0.200
2780,-0.325,-0.190
2781,-0.335,-0.185
2782,-0.315,-0.185
2783,-0.305,-0.185
2784,-0.290,-0.180
2785,-0.280,-0.165
2786,-0.280,-0.170
2787,-0.270,-0.180
2788,-0.270,-0.180
2789,-0.280,-0.180
2790,-0.280,-0.195
2791,-0.280,-0.200
2792,-0.290,-0.205
2793,-0.280,-0.195
2794,-0.285,-0.185
2795,-0.280,-0.185
2796,-0.265,-0.180
2797,-0.255,-0.165
2798,-0.230,-0.170
2799,-0.230,-0.180
2800,-0.230,-0.190
2801,-0.230,-0.195
2802,-0.235,-0.200
2803,-0.235,-0.200
2804,-0.245,-0.205
2805,-0.230,-0.195
2806,-0.235,-0.195
2807,-0.215,-0.195
2808,-0.210,-0.185
2809,-0.205,-0.190
2810,-0.200,-0.180
2811,-0.215,-0.195
2812,-0.200,-0.190
2813,-0.200,-0.205
2814,-0.210,-0.190
2815,-0.215,-0.205
2816,-0.220,-0.210
2817,-0.230,-0.205
2818,-0.225,-0.210
2819,-0.225,-0.195
2820,-0.215,-0.200
2821,-0.215,-0.195
2822,-0.200,-0.200
2823,-0.190,-0.200
2824,-0.190,-0.195
2825,-0.200,-0.215
2826,-0.210,-0.225
2827,-0.220,-0.220
2828,-0.210,-0.220
2829,-0.200,-0.215
2830,-0.215,-0.210
2831,-0.220,-0.200
2832,-0.215,-0.195
2833,-0.210,-0.185
2834,-0.220,-0.195
2835,-0.225,-0.190
2836,-0.240,-0.205
2837,-0.260,-0.210
2838,-0.275,-0.210
2839,-0.305,-0.205
2840,-0.295,-0.195
2841,-0.320,-0.185
2842,-0.330,-0.185
2843,-0.340,-0.165
2844,-0.340,-0.155
2845,-0.345,-0.160
2846,-0.345,-0.160
2847,-0.360,-0.180
2848,-0.380,-0.170
2849,-0.405,-0.170
2850,-0.395,-0.185
2851,-0.420,-0.175
2852,-0.420,-0.190
2853,-0.430,-0.175
2854,-0.425,-0.180
2855,-0.430,-0.180
2856,-0.430,-0.170
2857,-0.425,-0.165
2858,-0.420,-0.165
2859,-0.425,-0.170
2860,-0.430,-0.170
2861,-0.430,-0.180
2862,-0.435,-0.190
2863,-0.455,-0.185
2864,-0.455,-0.185
2865,-0.455,-0.185
2866,-0.450,-0.170
2867,-0.440,-0.165
2868,-0.435,-0.160
2869,-0.430,-0.150
2870,-0.410,-0.150
2871,-0.420,-0.170
2872,-0.420,-0.170
2873,-0.430,-0.180
2874,-0.425,-0.190
2875,-0.440,-0.185
2876,-0.445,-0.190
2877,-0.435,-0.185
2878,-0.430,-0.170
2879,-0.425,-0.160
2880,-0.420,-0.155
2881,-0.410,-0.155
2882,-0.400,-0.160
2883,-0.400,-0.165
2884,-0.395,-0.170
2885,-0.405,-0.180
2886,-0.405,-0.185
2887,-0.410,-0.195
2888,-0.395,-0.185
2889,-0.400,-0.200
2890,-0.395,-0.175
2891,-0.400,-0.170
2892,-0.395,-0.170
2893,-0.390,-0.160
2894,-0.375,-0.170
2895,-0.380,-0.170
2896,-0.380,-0.170
2897,-0.390,-0.175
2898,-0.395,-0.190
2899,-0.390,-0.205
2900,-0.405,-0.195
2901,-0.390,-0.200
2902,-0.390,-0.180
2903,-0.395,-0.185
2904,-0.390,-0.180
2905,-0.390,-0.185
2906,-0.395,-0.180
2907,-0.380,-0.175
2908,-0.400,-0.190
2909,-0.400,-0.200
2910,-0.400,-0.195
2911,-0.415,-0.205
2912,-0.420,-0.205
2913,-0.430,-0.200
2914,-0.415,-0.195
2915,-0.415,-0.195
2916,-0.410,-0.195
2917,-0.405,-0.185
2918,-0.395,-0.185
2919,-0.400,-0.185
2920,-0.405,-0.195
2921,-0.410,-0.200
2922,-0.415,-0.215
2923,-0.425,-0.215
2924,-0.435,-0.215
2925,-0.435,-0.205
2926,-0.425,-0.205
2927,-0.415,-0.190
2928,-0.415,-0.185
2929,-0.410,-0.185
2930,-0.410,-0.180
2931,-0.420,-0.195
2932,-0.405,-0.200
2933,-0.415,-0.205
2934,-0.425,-0.215
2935,-0.435,-0.215
2936,-0.445,-0.215
2937,-0.440,-0.200
2938,-0.435,-0.205
2939,-0.435,-0.195
2940,-0.425,-0.185
2941,-0.450,-0.185
2942,-0.430,-0.180
2943,-0.415,-0.200
2944,-0.415,-0.200
2945,-0.420,-0.210
2946,-0.435,-0.210
2947,-0.440,-0.210
2948,-0.450,-0.215
2949,-0.460,-0.200
2950,-0.445,-0.200
2951,-0.440,-0.195
2952,-0.430,-0.210
2953,-0.430,-0.185
2954,-0.415,-0.200
2955,-0.425,-0.190
2956,-0.420,-0.190
2957,-0.435,-0.205
2958,-0.430,-0.215
2959,-0.450,-0.220
2960,-0.455,-0.215
2961,-0.450,-0.205
2962,-0.445,-0.205
2963,-0.440,-0.205
2964,-0.435,-0.205
2965,-0.430,-0.195
2966,-0.425,-0.200
2967,-0.430,-0.200
2968,-0.440,-0.195
2969,-0.435,-0.205
2970,-0.445,-0.220
2971,-0.435,-0.215
2972,-0.460,-0.225
2973,-0.450,-0.210
2974,-0.455,-0.210
2975,-0.455,-0.205
2976,-0.450,-0.200
2977,-0.435,-0.180
2978,-0.430,-0.195
2979,-0.440,-0.195
2980,-0.445,-0.200
2981,-0.440,-0.215
2982,-0.440,-0.215
2983,-0.455,-0.210
2984,-0.455,-0.205
2985,-0.460,-0.195
2986,-0.445,-0.185
2987,-0.435,-0.155
2988,-0.425,-0.145
2989,-0.410,-0.135
2990,-0.405,-0.130
2991,-0.400,-0.130
2992,-0.380,-0.140
2993,-0.380,-0.135
2994,-0.380,-0.145
2995,-0.380,-0.155
2996,-0.360,-0.180
2997,-0.345,-0.185
2998,-0.345,-0.195
2999,-0.325,-0.195
3000,-0.305,-0.200
3001,-0.305,-0.205
3002,-0.295,-0.200
3003,-0.280,-0.195
3004,-0.280,-0.190
3005,-0.285,-0.190
3006,-0.290,-0.190
3007,-0.320,-0.200
3008,-0.320,-0.195
3009,-0.330,-0.205
3010,-0.330,-0.185
3011,-0.320,-0.185
3012,-0.315,-0.185
3013,-0.300,-0.185
3014,-0.305,-0.190
3015,-0.320,-0.195
3016,-0.335,-0.210
3017,-0.345,-0.215
3018,-0.370,-0.215
3019,-0.390,-0.230
3020,-0.410,-0.235
3021,-0.430,-0.230
3022,-0.440,-0.220
3023,-0.440,-0.225
3024,-0.440,-0.225
3025,-0.425,-0.210
3026,-0.420,-0.215
3027,-0.425,-0.215
3028,-0.425,-0.220
3029,-0.425,-0.225
3030,-0.435,-0.235
3031,-0.445,-0.245
3032,-0.455,-0.240
3033,-0.465,-0.225
3034,-0.465,-0.230
3035,-0.455,-0.220
3036,-0.455,-0.210
3037,-0.440,-0.200
3038,-0.435,-0.200
3039,-0.430,-0.220
3040,-0.430,-0.215
3041,-0.440,-0.225
3042,-0.440,-0.230
3043,-0.455,-0.230
3044,-0.450,-0.230
3045,-0.460,-0.230
3046,-0.445,-0.215
3047,-0.435,-0.210
3048,-0.420,-0.195
3049,-0.405,-0.195
3050,-0.400,-0.170
3051,-0.400,-0.175
3052,-0.390,-0.155
3053,-0.385,-0.170
3054,-0.380,-0.180
3055,-0.380,-0.210
3056,-0.370,-0.265
3057,-0.340,-0.335
3058,-0.290,-0.430
3059,-0.185,-0.530
3060,-0.030,-0.615
3061,0.200,-0.665
3062,0.510,-0.675
3063,0.875,-0.665
3064,1.270,-0.610
3065,1.600,-0.520
3066,1.790,-0.430
3067,1.800,-0.335
3068,1.590,-0.270
3069,1.145,-0.235
3070,0.545,-0.200
3071,-0.095,-0.220
3072,-0.715,-0.235
3073,-1.090,-0.255
3074,-1.210,-0.270
3075,-1.130,-0.275
3076,-0.920,-0.245
3077,-0.680,-0.215
3078,-0.475,-0.175
3079,-0.340,-0.160
3080,-0.280,-0.155
3081,-0.280,-0.135
3082,-0.295,-0.145
3083,-0.325,-0.150
3084,-0.360,-0.140
3085,-0.375,-0.150
3086,-0.375,-0.140
3087,-0.385,-0.145
3088,-0.375,-0.140
3089,-0.375,-0.150
3090,-0.360,-0.150
3091,-0.375,-0.160
3092,-0.370,-0.155
3093,-0.370,-0.150
3094,-0.360,-0.155
3095,-0.350,-0.145
3096,-0.350,-0.140
3097,-0.345,-0.135
3098,-0.345,-0.135
3099,-0.345,-0.140
3100,-0.340,-0.135
3101,-0.355,-0.150
3102,-0.355,-0.155
3103,-0.360,-0.160
3104,-0.375,-0.160
3105,-0.360,-0.155
3106,-0.355,-0.150
3107,-0.355,-0.145
3108,-0.340,-0.140
3109,-0.335,-0.135
3110,-0.330,-0.130
3111,-0.335,-0.145
3112,-0.345,-0.160
3113,-0.340,-0.160
3114,-0.345,-0.155
3115,-0.350,-0.170
3116,-0.350,-0.160
3117,-0.350,-0.165
3118,-0.350,-0.155
3119,-0.350,-0.155
3120,-0.345,-0.150
3121,-0.340,-0.130
3122,-0.335,-0.140
3123,-0.350,-0.135
3124,-0.335,-0.145
3125,-0.355,-0.155
3126,-0.340,-0.155
3127,-0.370,-0.170
3128,-0.360,-0.175
3129,-0.360,-0.165
3130,-0.350,-0.155
3131,-0.335,-0.160
3132,-0.345,-0.150
3133,-0.350,-0.145
3134,-0.335,-0.135
3135,-0.325,-0.150
3136,-0.330,-0.155
3137,-0.335,-0.170
3138,-0.335,-0.170
3139,-0.340,-0.175
3140,-0.350,-0.180
3141,-0.345,-0.170
3142,-0.340,-0.165
3143,-0.340,-0.160
3144,-0.335,-0.150
3145,-0.330,-0.155
3146,-0.310,-0.140
3147,-0.310,-0.165
3148,-0.335,-0.165
3149,-0.335,-0.170
3150,-0.330,-0.175
3151,-0.325,-0.175
3152,-0.335,-0.180
3153,-0.335,-0.180
3154,-0.340,-0.170
3155,-0.330,-0.160
3156,-0.320,-0.155
3157,-0.315,-0.155
3158,-0.295,-0.145
3159,-0.290,-0.155
3160,-0.285,-0.165
3161,-0.295,-0.170
3162,-0.295,-0.180
3163,-0.285,-0.180
3164,-0.295,-0.165
3165,-0.305,-0.170
3166,-0.295,-0.165
3167,-0.280,-0.160
3168,-0.275,-0.150
3169,-0.270,-0.160
3170,-0.275,-0.170
3171,-0.280,-0.170
3172,-0.270,-0.165
3173,-0.265,-0.185
3174,-0.265,-0.175
3175,-0.275,-0.190
3176,-0.280,-0.185
3177,-0.275,-0.190
3178,-0.275,-0.190
3179,-0.260,-0.180
3180,-0.255,-0.175
3181,-0.245,-0.170
3182,-0.245,-0.175
3183,-0.230,-0.180
3184,-0.250,-0.180
3185,-0.245,-0.190
3186,-0.260,-0.185
3187,-0.255,-0.200
3188,-0.275,-0.195
3189,-0.270,-0.190
3190,-0.265,-0.190
3191,-0.270,-0.190
3192,-0.255,-0.185
3193,-0.250,-0.170
3194,-0.245,-0.175
3195,-0.255,-0.180
3196,-0.260,-0.190
3197,-0.265,-0.195
3198,-0.260,-0.205
3199,-0.255,-0.200
3200,-0.265,-0.210
3201,-0.275,-0.195
3202,-0.280,-0.195
3203,-0.280,-0.175
3204,-0.290,-0.150
3205,-0.295,-0.150
3206,-0.310,-0.150
3207,-0.330,-0.155
3208,-0.335,-0.155
3209,-0.360,-0.165
3210,-0.390,-0.165
3211,-0.405,-0.165
3212,-0.415,-0.170
3213,-0.430,-0.165
3214,-0.435,-0.155
3215,-0.450,-0.145
3216,-0.460,-0.140
3217,-0.460,-0.130
3218,-0.465,-0.140
3219,-0.465,-0.140
3220,-0.465,-0.135
3221,-0.490,-0.140
3222,-0.505,-0.155
3223,-0.505,-0.165
3224,-0.520,-0.155
3225,-0.515,-0.150
3226,-0.515,-0.160
3227,-0.515,-0.130
3228,-0.505,-0.140
3229,-0.500,-0.130
3230,-0.495,-0.125
3231,-0.505,-0.135
3232,-0.505,-0.125
3233,-0.510,-0.145
3234,-0.525,-0.145
3235,-0.520,-0.155
3236,-0.525,-0.155
3237,-0.530,-0.145
3238,-0.530,-0.140
3239,-0.520,-0.125
3240,-0.515,-0.135
3241,-0.510,-0.130
3242,-0.500,-0.125
3243,-0.495,-0.125
3244,-0.495,-0.130
3245,-0.500,-0.150
3246,-0.505,-0.160
3247,-0.515,-0.150
3248,-0.510,-0.160
3249,-0.505,-0.145
3250,-0.505,-0.150
3251,-0.490,-0.140
3252,-0.505,-0.140
3253,-0.495,-0.145
3254,-0.470,-0.120
3255,-0.475,-0.135
3256,-0.470,-0.150
3257,-0.485,-0.150
3258,-0.490,-0.160
3259,-0.490,-0.150
3260,-0.495,-0.160
3261,-0.490,-0.165
3262,-0.495,-0.150
3263,-0.490,-0.145
3264,-0.480,-0.145
3265,-0.470,-0.135
3266,-0.470,-0.140
3267,-0.475,-0.150
3268,-0.460,-0.145
3269,-0.465,-0.160
3270,-0.470,-0.165
3271,-0.495,-0.175
3272,-0.500,-0.180
3273,-0.495,-0.165
3274,-0.500,-0.160
3275,-0.500,-0.160
3276,-0.495,-0.145
3277,-0.500,-0.150
3278,-0.480,-0.140
3279,-0.490,-0.160
3280,-0.495,-0.150
3281,-0.515,-0.155
3282,-0.530,-0.175
3283,-0.540,-0.180
3284,-0.535,-0.175
3285,-0.535,-0.170
3286,-0.530,-0.170
3287,-0.530,-0.165
3288,-0.520,-0.155
3289,-0.525,-0.145
3290,-0.505,-0.155
3291,-0.505,-0.155
3292,-0.520,-0.155
3293,-0.530,-0.165
3294,-0.530,-0.185
3295,-0.530,-0.190
3296,-0.540,-0.190
3297,-0.545,-0.185
3298,-0.545,-0.180
3299,-0.540,-0.170
3300,-0.535,-0.170
3301,-0.540,-0.150
3302,-0.530,-0.155
3303,-0.535,-0.165
3304,-0.540,-0.180
3305,-0.540,-0.175
3306,-0.540,-0.185
3307,-0.545,-0.185
3308,-0.555,-0.185
3309,-0.555,-0.170
3310,-0.555,-0.180
3311,-0.550,-0.165
3312,-0.540,-0.165
3313,-0.555,-0.165
3314,-0.545,-0.150
3315,-0.555,-0.155
3316,-0.555,-0.155
3317,-0.565,-0.170
3318,-0.565,-0.175
3319,-0.570,-0.175
3320,-0.590,-0.170
3321,-0.570,-0.155
3322,-0.565,-0.145
3323,-0.555,-0.125
3324,-0.540,-0.110
3325,-0.525,-0.110
3326,-0.505,-0.100
3327,-0.500,-0.100
3328,-0.490,-0.105
3329,-0.490,-0.110
3330,-0.490,-0.120
3331,-0.495,-0.150
3332,-0.495,-0.160
3333,-0.490,-0.170
3334,-0.480,-0.170
3335,-0.460,-0.175
3336,-0.445,-0.180
3337,-0.420,-0.165
3338,-0.415,-0.135
3339,-0.400,-0.140
3340,-0.405,-0.150
3341,-0.420,-0.145
3342,-0.440,-0.155
3343,-0.450,-0.170
3344,-0.435,-0.170
3345,-0.455,-0.165
3346,-0.430,-0.175
3347,-0.425,-0.160
3348,-0.425,-0.155
3349,-0.415,-0.155
3350,-0.410,-0.160
3351,-0.415,-0.165
3352,-0.420,-0.165
3353,-0.455,-0.185
3354,-0.480,-0.185
3355,-0.520,-0.200
3356,-0.535,-0.190
3357,-0.550,-0.190
3358,-0.565,-0.190
3359,-0.570,-0.190
3360,-0.570,-0.175
3361,-0.560,-0.185
3362,-0.550,-0.170
3363,-0.540,-0.185
3364,-0.540,-0.175
3365,-0.560,-0.195
3366,-0.565,-0.200
3367,-0.575,-0.200
3368,-0.580,-0.205
3369,-0.595,-0.195
3370,-0.590,-0.185
3371,-0.590,-0.180
3372,-0.590,-0.180
3373,-0.575,-0.180
3374,-0.580,-0.160
3375,-0.575,-0.185
3376,-0.585,-0.175
3377,-0.595,-0.180
3378,-0.600,-0.190
3379,-0.605,-0.195
3380,-0.595,-0.195
3381,-0.600,-0.195
3382,-0.585,-0.180
3383,-0.590,-0.180
3384,-0.580,-0.180
3385,-0.570,-0.170
3386,-0.555,-0.175
3387,-0.560,-0.180
3388,-0.545,-0.165
3389,-0.545,-0.175
3390,-0.545,-0.170
3391,-0.555,-0.170
3392,-0.540,-0.155
3393,-0.550,-0.150
3394,-0.535,-0.165
3395,-0.525,-0.180
3396,-0.505,-0.225
3397,-0.480,-0.270
3398,-0.445,-0.345
3399,-0.365,-0.435
3400,-0.255,-0.530
3401,-0.085,-0.605
3402,0.165,-0.635
3403,0.495,-0.620
3404,0.875,-0.570
3405,1.240,-0.485
3406,1.540,-0.400
3407,1.710,-0.300
3408,1.655,-0.215
3409,1.365,-0.175
3410,0.855,-0.140
3411,0.215,-0.140
3412,-0.425,-0.150
3413,-1.015,-0.185
3414,-1.325,-0.205
3415,-1.370,-0.225
3416,-1.210,-0.245
3417,-0.975,-0.235
3418,-0.745,-0.225
3419,-0.570,-0.175
3420,-0.465,-0.155
3421,-0.415,-0.120
3422,-0.415,-0.110
3423,-0.445,-0.125
3424,-0.475,-0.125
3425,-0.495,-0.145
3426,-0.500,-0.155
3427,-0.510,-0.155
3428,-0.520,-0.160
3429,-0.520,-0.155
3430,-0.520,-0.155
3431,-0.515,-0.145
3432,-0.495,-0.135
3433,-0.490,-0.140
3434,-0.480,-0.130
3435,-0.475,-0.140
3436,-0.480,-0.145
3437,-0.485,-0.145
3438,-0.490,-0.160
3439,-0.500,-0.160
3440,-0.495,-0.170
3441,-0.500,-0.170
3442,-0.495,-0.155
3443,-0.490,-0.155
3444,-0.485,-0.150
3445,-0.470,-0.150
3446,-0.460,-0.135
3447,-0.470,-0.140
3448,-0.470,-0.150
3449,-0.470,-0.155
3450,-0.475,-0.160
3451,-0.475,-0.155
3452,-0.490,-0.175
3453,-0.485,-0.160
3454,-0.490,-0.165
3455,-0.475,-0.160
3456,-0.475,-0.150
3457,-0.465,-0.150
3458,-0.455,-0.150
3459,-0.460,-0.150
3460,-0.470,-0.160
3461,-0.475,-0.160
3462,-0.485,-0.165
3463,-0.480,-0.180
3464,-0.495,-0.180
3465,-0.505,-0.175
3466,-0.490,-0.180
3467,-0.495,-0.165
3468,-0.480,-0.160
3469,-0.475,-0.155
3470,-0.485,-0.165
3471,-0.475,-0.155
3472,-0.455,-0.165
3473,-0.460,-0.170
3474,-0.470,-0.170
3475,-0.480,-0.180
3476,-0.480,-0.190
3477,-0.480,-0.180
3478,-0.490,-0.185
3479,-0.475,-0.170
3480,-0.470,-0.170
3481,-0.460,-0.145
3482,-0.450,-0.150
3483,-0.455,-0.165
3484,-0.450,-0.170
3485,-0.460,-0.175
3486,-0.460,-0.180
3487,-0.460,-0.185
3488,-0.470,-0.190
3489,-0.470,-0.175
3490,-0.475,-0.175
3491,-0.460,-0.165
3492,-0.455,-0.170
3493,-0.450,-0.165
3494,-0.445,-0.160
3495,-0.425,-0.165
3496,-0.430,-0.165
3497,-0.440,-0.175
3498,-0.435,-0.185
3499,-0.435,-0.190
3500,-0.435,-0.195
3501,-0.445,-0.185
3502,-0.435,-0.190
3503,-0.420,-0.175
3504,-0.420,-0.175
3505,-0.400,-0.160
3506,-0.390,-0.165
3507,-0.390,-0.170
3508,-0.390,-0.175
3509,-0.400,-0.180
3510,-0.405,-0.190
3511,-0.410,-0.205
3512,-0.410,-0.205
3513,-0.405,-0.200
3514,-0.405,-0.195
3515,-0.395,-0.185
3516,-0.380,-0.180
3517,-0.380,-0.185
3518,-0.365,-0.175
3519,-0.355,-0.185
3520,-0.365,-0.195
3521,-0.370,-0.205
3522,-0.365,-0.195
3523,-0.375,-0.210
3524,-0.370,-0.220
3525,-0.375,-0.210
3526,-0.365,-0.210
3527,-0.360,-0.200
3528,-0.345,-0.200
3529,-0.340,-0.195
3530,-0.345,-0.200
3531,-0.340,-0.195
3532,-0.345,-0.205
3533,-0.350,-0.220
3534,-0.360,-0.215
3535,-0.360,-0.215
3536,-0.370,-0.220
3537,-0.385,-0.220
3538,-0.365,-0.205
3539,-0.370,-0.200
3540,-0.355,-0.200
3541,-0.355,-0.180
3542,-0.360,-0.175
3543,-0.365,-0.185
3544,-0.375,-0.195
3545,-0.385,-0.180
3546,-0.410,-0.175
3547,-0.440,-0.190
3548,-0.465,-0.180
3549,-0.470,-0.180
3550,-0.480,-0.170
3551,-0.485,-0.160
3552,-0.500,-0.150
3553,-0.515,-0.150
3554,-0.525,-0.135
3555,-0.550,-0.150
3556,-0.560,-0.145
3557,-0.575,-0.155
3558,-0.590,-0.155
3559,-0.595,-0.160
3560,-0.605,-0.175
3561,-0.625,-0.165
3562,-0.625,-0.155
3563,-0.615,-0.150
3564,-0.620,-0.140
3565,-0.635,-0.145
3566,-0.630,-0.145
3567,-0.625,-0.135
3568,-0.625,-0.140
3569,-0.635,-0.145
3570,-0.640,-0.155
3571,-0.660,-0.165
3572,-0.650,-0.165
3573,-0.655,-0.145
3574,-0.640,-0.150
3575,-0.630,-0.150
3576,-0.630,-0.145
3577,-0.625,-0.135
3578,-0.615,-0.130
3579,-0.620,-0.145
3580,-0.610,-0.135
3581,-0.625,-0.150
3582,-0.625,-0.150
3583,-0.630,-0.165
3584,-0.630,-0.165
3585,-0.630,-0.170
3586,-0.630,-0.155
3587,-0.620,-0.155
3588,-0.615,-0.150
3589,-0.615,-0.135
3590,-0.600,-0.140
3591,-0.585,-0.145
3592,-0.585,-0.145
3593,-0.580,-0.160
3594,-0.605,-0.170
3595,-0.600,-0.170
3596,-0.605,-0.175
3597,-0.605,-0.170
3598,-0.610,-0.170
3599,-0.595,-0.165
3600,-0.580,-0.160
3601,-0.570,-0.165
3602,-0.565,-0.160
3603,-0.565,-0.155
3604,-0.580,-0.170
3605,-0.575,-0.165
3606,-0.585,-0.165
3607,-0.590,-0.185
3608,-0.600,-0.195
3609,-0.600,-0.190
3610,-0.600,-0.180
3611,-0.605,-0.175
3612,-0.600,-0.170
3613,-0.595,-0.160
3614,-0.585,-0.155
3615,-0.590,-0.170
3616,-0.590,-0.180
3617,-0.590,-0.180
3618,-0.605,-0.190
3619,-0.605,-0.210
3620,-0.630,-0.195
3621,-0.640,-0.195
3622,-0.635,-0.200
3623,-0.620,-0.175
3624,-0.620,-0.180
3625,-0.605,-0.160
3626,-0.615,-0.165
3627,-0.610,-0.170
3628,-0.610,-0.180
3629,-0.610,-0.190
3630,-0.630,-0.185
3631,-0.630,-0.200
3632,-0.650,-0.195
3633,-0.640,-0.185
3634,-0.655,-0.185
3635,-0.635,-0.190
3636,-0.640,-0.190
3637,-0.650,-0.170
3638,-0.630,-0.170
3639,-0.620,-0.185
3640,-0.625,-0.170
3641,-0.630,-0.185
3642,-0.630,-0.200
3643,-0.645,-0.200
3644,-0.655,-0.200
3645,-0.660,-0.185
3646,-0.665,-0.180
3647,-0.640,-0.170
3648,-0.630,-0.165
3649,-0.625,-0.160
3650,-0.630,-0.145
3651,-0.615,-0.145
3652,-0.610,-0.140
3653,-0.610,-0.155
3654,-0.620,-0.155
3655,-0.615,-0.140
3656,-0.615,-0.145
3657,-0.605,-0.140
3658,-0.605,-0.130
3659,-0.585,-0.130
3660,-0.565,-0.135
3661,-0.540,-0.140
3662,-0.520,-0.145
3663,-0.510,-0.170
3664,-0.505,-0.180
3665,-0.510,-0.190
3666,-0.490,-0.195
3667,-0.495,-0.195
3668,-0.505,-0.195
3669,-0.510,-0.195
3670,-0.530,-0.175
3671,-0.530,-0.185
3672,-0.520,-0.170
3673,-0.495,-0.165
3674,-0.495,-0.160
3675,-0.480,-0.165
3676,-0.485,-0.165
3677,-0.490,-0.190
3678,-0.510,-0.200
3679,-0.515,-0.205
3680,-0.525,-0.215
3681,-0.545,-0.215
3682,-0.565,-0.205
3683,-0.570,-0.215
3684,-0.585,-0.205
3685,-0.595,-0.200
3686,-0.620,-0.185
3687,-0.625,-0.200
3688,-0.630,-0.225
3689,-0.655,-0.225
3690,-0.650,-0.215
3691,-0.645,-0.225
3692,-0.660,-0.230
3693,-0.655,-0.235
3694,-0.640,-0.225
3695,-0.650,-0.215
3696,-0.665,-0.225
3697,-0.655,-0.210
3698,-0.645,-0.195
3699,-0.645,-0.215
3700,-0.650,-0.210
3701,-0.655,-0.215
3702,-0.660,-0.225
3703,-0.690,-0.225
3704,-0.675,-0.230
3705,-0.685,-0.225
3706,-0.665,-0.210
3707,-0.675,-0.210
3708,-0.675,-0.215
3709,-0.665,-0.200
3710,-0.640,-0.205
3711,-0.645,-0.210
3712,-0.645,-0.190
3713,-0.650,-0.210
3714,-0.645,-0.220
3715,-0.650,-0.220
3716,-0.650,-0.220
3717,-0.650,-0.215
3718,-0.645,-0.220
3719,-0.645,-0.200
3720,-0.625,-0.190
3721,-0.620,-0.175
3722,-0.590,-0.150
3723,-0.585,-0.155
3724,-0.580,-0.165
3725,-0.570,-0.180
3726,-0.580,-0.225
3727,-0.565,-0.280
3728,-0.535,-0.330
3729,-0.485,-0.400
3730,-0.430,-0.465
3731,-0.300,-0.540
3732,-0.130,-0.600
3733,0.105,-0.655
3734,0.410,-0.670
3735,0.760,-0.655
3736,1.140,-0.615
3737,1.470,-0.545
3738,1.685,-0.470
3739,1.715,-0.390
3740,1.500,-0.330
3741,1.075,-0.275
3742,0.455,-0.255
3743,-0.185,-0.240
3744,-0.825,-0.250
3745,-1.320,-0.260
3746,-1.455,-0.280
3747,-1.350,-0.295
3748,-1.125,-0.270
3749,-0.875,-0.250
3750,-0.685,-0.210
3751,-0.550,-0.185
3752,-0.495,-0.165
3753,-0.475,-0.170
3754,-0.495,-0.165
3755,-0.520,-0.155
3756,-0.565,-0.155
3757,-0.585,-0.160
3758,-0.585,-0.150
3759,-0.565,-0.170
3760,-0.555,-0.150
3761,-0.560,-0.160
3762,-0.565,-0.165
3763,-0.555,-0.180
3764,-0.570,-0.190
3765,-0.565,-0.185
3766,-0.570,-0.175
3767,-0.565,-0.160
3768,-0.555,-0.160
3769,-0.550,-0.160
3770,-0.545,-0.145
3771,-0.540,-0.165
3772,-0.535,-0.165
3773,-0.530,-0.175
3774,-0.540,-0.170
3775,-0.535,-0.180
3776,-0.555,-0.180
3777,-0.555,-0.180
3778,-0.545,-0.185
3779,-0.540,-0.180
3780,-0.535,-0.160
3781,-0.525,-0.160
3782,-0.525,-0.155
3783,-0.525,-0.170
3784,-0.535,-0.165
3785,-0.525,-0.170
3786,-0.540,-0.170
3787,-0.540,-0.190
3788,-0.550,-0.200
3789,-0.550,-0.200
3790,-0.545,-0.195
3791,-0.540,-0.185
3792,-0.535,-0.170
3793,-0.530,-0.170
3794,-0.515,-0.165
3795,-0.505,-0.165
3796,-0.520,-0.180
3797,-0.520,-0.180
3798,-0.515,-0.180
3799,-0.520,-0.185
3800,-0.515,-0.190
3801,-0.530,-0.190
3802,-0.525,-0.195
3803,-0.515,-0.190
3804,-0.515,-0.175
3805,-0.510,-0.170
3806,-0.485,-0.160
3807,-0.495,-0.170
3808,-0.500,-0.180
3809,-0.500,-0.185
3810,-0.515,-0.180
3811,-0.505,-0.195
3812,-0.510,-0.195
3813,-0.510,-0.205
3814,-0.500,-0.180
3815,-0.505,-0.195
3816,-0.490,-0.180
3817,-0.485,-0.180
3818,-0.480,-0.175
3819,-0.480,-0.175
3820,-0.475,-0.185
3821,-0.475,-0.185
3822,-0.480,-0.200
3823,-0.475,-0.190
3824,-0.485,-0.205
3825,-0.495,-0.200
3826,-0.505,-0.210
3827,-0.475,-0.200
3828,-0.470,-0.180
3829,-0.460,-0.185
3830,-0.455,-0.175
3831,-0.450,-0.190
3832,-0.455,-0.180
3833,-0.445,-0.195
3834,-0.445,-0.190
3835,-0.455,-0.200
3836,-0.460,-0.205
3837,-0.455,-0.205
3838,-0.440,-0.210
3839,-0.440,-0.190
3840,-0.425,-0.185
3841,-0.410,-0.180
3842,-0.395,-0.170
3843,-0.395,-0.170
3844,-0.385,-0.185
3845,-0.385,-0.195
3846,-0.390,-0.205
3847,-0.390,-0.205
3848,-0.385,-0.200
3849,-0.400,-0.210
3850,-0.395,-0.205
3851,-0.380,-0.210
3852,-0.370,-0.200
3853,-0.355,-0.195
3854,-0.350,-0.180
3855,-0.340,-0.190
3856,-0.360,-0.190
3857,-0.355,-0.205
3858,-0.350,-0.215
3859,-0.365,-0.210
3860,-0.370,-0.225
3861,-0.365,-0.220
3862,-0.360,-0.215
3863,-0.345,-0.210
3864,-0.340,-0.200
3865,-0.345,-0.200
3866,-0.325,-0.190
3867,-0.330,-0.205
3868,-0.325,-0.195
3869,-0.335,-0.205
3870,-0.340,-0.210
3871,-0.340,-0.225
3872,-0.360,-0.230
3873,-0.370,-0.215
3874,-0.375,-0.200
3875,-0.380,-0.195
3876,-0.380,-0.195
3877,-0.400,-0.190
3878,-0.395,-0.185
3879,-0.405,-0.185
3880,-0.430,-0.190
3881,-0.460,-0.185
3882,-0.480,-0.200
3883,-0.495,-0.195
3884,-0.520,-0.200
3885,-0.530,-0.200
3886,-0.555,-0.190
3887,-0.570,-0.185
3888,-0.580,-0.165
3889,-0.585,-0.160
3890,-0.590,-0.165
3891,-0.590,-0.165
3892,-0.610,-0.175
3893,-0.615,-0.185
3894,-0.625,-0.185
3895,-0.630,-0.195
3896,-0.655,-0.190
3897,-0.660,-0.190
3898,-0.665,-0.175
3899,-0.650,-0.185
3900,-0.650,-0.170
3901,-0.650,-0.170
3902,-0.640,-0.145
3903,-0.650,-0.160
3904,-0.650,-0.165
3905,-0.650,-0.175
3906,-0.660,-0.180
3907,-0.665,-0.195
3908,-0.660,-0.190
3909,-0.665,-0.190
3910,-0.650,-0.180
3911,-0.660,-0.175
3912,-0.650,-0.180
3913,-0.645,-0.160
3914,-0.640,-0.155
3915,-0.630,-0.170
3916,-0.630,-0.160
3917,-0.625,-0.165
3918,-0.635,-0.185
3919,-0.635,-0.190
3920,-0.645,-0.200
3921,-0.640,-0.200
3922,-0.620,-0.180
3923,-0.620,-0.180
3924,-0.610,-0.180
3925,-0.610,-0.170
3926,-0.595,-0.175
3927,-0.580,-0.170
3928,-0.585,-0.175
3929,-0.580,-0.185
3930,-0.590,-0.185
3931,-0.595,-0.190
3932,-0.605,-0.195
3933,-0.610,-0.200
3934,-0.620,-0.195
3935,-0.595,-0.185
3936,-0.590,-0.170
3937,-0.585,-0.170
3938,-0.575,-0.175
3939,-0.570,-0.180
3940,-0.570,-0.180
3941,-0.580,-0.180
3942,-0.590,-0.190
3943,-0.610,-0.190
3944,-0.620,-0.195
3945,-0.630,-0.200
3946,-0.630,-0.200
3947,-0.630,-0.195
3948,-0.625,-0.190
3949,-0.620,-0.175
3950,-0.610,-0.175
3951,-0.600,-0.190
3952,-0.600,-0.190
3953,-0.600,-0.190
3954,-0.605,-0.200
3955,-0.615,-0.210
3956,-0.625,-0.210
3957,-0.635,-0.205
3958,-0.630,-0.205
3959,-0.620,-0.200
3960,-0.620,-0.180
3961,-0.605,-0.185
3962,-0.610,-0.175
3963,-0.615,-0.190
3964,-0.620,-0.185
3965,-0.630,-0.200
3966,-0.630,-0.205
3967,-0.640,-0.210
3968,-0.650,-0.220
3969,-0.650,-0.215
3970,-0.650,-0.210
3971,-0.645,-0.205
3972,-0.650,-0.200
3973,-0.645,-0.190
3974,-0.630,-0.180
3975,-0.610,-0.205
3976,-0.630,-0.190
3977,-0.625,-0.210
3978,-0.645,-0.195
3979,-0.655,-0.205
3980,-0.660,-0.215
3981,-0.650,-0.220
3982,-0.635,-0.210
3983,-0.635,-0.195
3984,-0.640,-0.200
3985,-0.625,-0.195
3986,-0.625,-0.195
3987,-0.620,-0.195
3988,-0.625,-0.205
3989,-0.615,-0.200
3990,-0.635,-0.205
3991,-0.620,-0.220
3992,-0.645,-0.220
3993,-0.640,-0.215
3994,-0.630,-0.225
3995,-0.625,-0.200
3996,-0.610,-0.195
3997,-0.615,-0.200
3998,-0.615,-0.190
3999,-0.610,-0.195
4000,-0.615,-0.195
4001,-0.615,-0.200
4002,-0.620,-0.200
4003,-0.630,-0.220
4004,-0.640,-0.220
4005,-0.615,-0.215
4006,-0.620,-0.210
4007,-0.630,-0.200
4008,-0.620,-0.200
4009,-0.620,-0.185
4010,-0.610,-0.185
4011,-0.600,-0.185
4012,-0.605,-0.190
4013,-0.610,-0.190
4014,-0.605,-0.205
4015,-0.610,-0.215
4016,-0.620,-0.225
4017,-0.630,-0.210
4018,-0.620,-0.200
4019,-0.625,-0.195
4020,-0.600,-0.190
4021,-0.605,-0.175
4022,-0.600,-0.175
4023,-0.585,-0.180
4024,-0.595,-0.165
4025,-0.600,-0.160
4026,-0.600,-0.170
4027,-0.600,-0.175
4028,-0.610,-0.155
4029,-0.605,-0.160
4030,-0.600,-0.150
4031,-0.575,-0.130
4032,-0.540,-0.120
4033,-0.530,-0.120
4034,-0.510,-0.105
4035,-0.485,-0.125
4036,-0.490,-0.135
4037,-0.485,-0.155
4038,-0.470,-0.180
4039,-0.475,-0.205
4040,-0.465,-0.205
4041,-0.465,-0.205
4042,-0.440,-0.200
4043,-0.430,-0.180
4044,-0.430,-0.175
4045,-0.430,-0.160
4046,-0.435,-0.165
4047,-0.420,-0.160
4048,-0.430,-0.170
4049,-0.430,-0.180
4050,-0.440,-0.190
4051,-0.440,-0.190
4052,-0.450,-0.180
4053,-0.450,-0.195
4054,-0.460,-0.195
4055,-0.450,-0.190
4056,-0.455,-0.175
4057,-0.455,-0.180
4058,-0.465,-0.180
4059,-0.475,-0.185
4060,-0.495,-0.195
4061,-0.510,-0.205
4062,-0.515,-0.205
4063,-0.545,-0.215
4064,-0.550,-0.225
4065,-0.550,-0.215
4066,-0.555,-0.215
4067,-0.555,-0.205
4068,-0.565,-0.190
4069,-0.550,-0.185
4070,-0.545,-0.195
4071,-0.535,-0.185
4072,-0.535,-0.185
4073,-0.535,-0.200
4074,-0.545,-0.195
4075,-0.550,-0.205
4076,-0.555,-0.220
4077,-0.560,-0.210
4078,-0.565,-0.205
4079,-0.565,-0.195
4080,-0.565,-0.200
4081,-0.565,-0.200
4082,-0.545,-0.180
4083,-0.530,-0.175
4084,-0.545,-0.190
4085,-0.530,-0.200
4086,-0.530,-0.205
4087,-0.535,-0.205
4088,-0.540,-0.215
4089,-0.545,-0.205
4090,-0.550,-0.200
4091,-0.530,-0.190
4092,-0.515,-0.175
4093,-0.500,-0.185
4094,-0.490,-0.175
4095,-0.475,-0.175
4096,-0.480,-0.175
4097,-0.470,-0.155
4098,-0.460,-0.150
4099,-0.460,-0.145
4100,-0.465,-0.145
4101,-0.470,-0.155
4102,-0.460,-0.165
4103,-0.445,-0.190
4104,-0.425,-0.240
4105,-0.395,-0.290
4106,-0.345,-0.350
4107,-0.255,-0.445
4108,-0.145,-0.525
4109,0.025,-0.615
4110,0.260,-0.665
4111,0.555,-0.680
4112,0.905,-0.670
4113,1.275,-0.595
4114,1.600,-0.515
4115,1.775,-0.405
4116,1.740,-0.320
4117,1.445,-0.250
4118,0.900,-0.200
4119,0.260,-0.210
4120,-0.380,-0.215
4121,-1.015,-0.250
4122,-1.260,-0.275
4123,-1.235,-0.285
4124,-1.050,-0.260
4125,-0.805,-0.225
4126,-0.560,-0.170
4127,-0.390,-0.140
4128,-0.295,-0.110
4129,-0.270,-0.100
4130,-0.275,-0.100
4131,-0.310,-0.100
4132,-0.350,-0.120
4133,-0.375,-0.130
4134,-0.395,-0.135
4135,-0.405,-0.130
4136,-0.395,-0.135
4137,-0.385,-0.130
4138,-0.380,-0.130
4139,-0.365,-0.115
4140,-0.360,-0.120
4141,-0.355,-0.115
4142,-0.345,-0.100
4143,-0.345,-0.110
4144,-0.330,-0.120
4145,-0.345,-0.115
4146,-0.340,-0.130
4147,-0.345,-0.125
4148,-0.345,-0.140
4149,-0.360,-0.125
4150,-0.350,-0.125
4151,-0.350,-0.125
4152,-0.340,-0.110
4153,-0.340,-0.115
4154,-0.320,-0.110
4155,-0.315,-0.115
4156,-0.320,-0.125
4157,-0.305,-0.120
4158,-0.325,-0.130
4159,-0.330,-0.130
4160,-0.340,-0.140
4161,-0.335,-0.135
4162,-0.340,-0.125
4163,-0.325,-0.130
4164,-0.315,-0.110
4165,-0.300,-0.115
4166,-0.305,-0.110
4167,-0.295,-0.105
4168,-0.290,-0.120
4169,-0.310,-0.120
4170,-0.320,-0.130
4171,-0.310,-0.135
4172,-0.310,-0.130
4173,-0.310,-0.130
4174,-0.315,-0.135
4175,-0.320,-0.125
4176,-0.310,-0.125
4177,-0.290,-0.105
4178,-0.290,-0.115
4179,-0.285,-0.100
4180,-0.285,-0.110
4181,-0.285,-0.120
4182,-0.280,-0.130
4183,-0.285,-0.135
4184,-0.290,-0.145
4185,-0.295,-0.130
4186,-0.295,-0.130
4187,-0.290,-0.130
4188,-0.290,-0.125
4189,-0.275,-0.120
4190,-0.265,-0.125
4191,-0.255,-0.105
4192,-0.275,-0.110
4193,-0.260,-0.115
4194,-0.265,-0.135
4195,-0.265,-0.130
4196,-0.265,-0.155
4197,-0.265,-0.145
4198,-0.260,-0.150
4199,-0.280,-0.125
4200,-0.260,-0.130
4201,-0.240,-0.110
4202,-0.250,-0.110
4203,-0.225,-0.130
4204,-0.215,-0.130
4205,-0.215,-0.130
4206,-0.225,-0.140
4207,-0.220,-0.140
4208,-0.215,-0.145
4209,-0.215,-0.145
4210,-0.200,-0.145
4211,-0.200,-0.135
4212,-0.185,-0.120
4213,-0.185,-0.130
4214,-0.170,-0.110
4215,-0.170,-0.115
4216,-0.165,-0.115
4217,-0.170,-0.125
4218,-0.170,-0.135
4219,-0.180,-0.140
4220,-0.165,-0.140
4221,-0.170,-0.150
4222,-0.175,-0.145
4223,-0.145,-0.145
4224,-0.140,-0.135
4225,-0.140,-0.125
4226,-0.125,-0.115
4227,-0.115,-0.110
4228,-0.110,-0.125
4229,-0.120,-0.135
4230,-0.125,-0.140
4231,-0.130,-0.145
4232,-0.145,-0.150
4233,-0.145,-0.155
4234,-0.140,-0.150
4235,-0.140,-0.145
4236,-0.135,-0.135
4237,-0.130,-0.135
4238,-0.115,-0.130
4239,-0.105,-0.145
4240,-0.100,-0.140
4241,-0.105,-0.140
4242,-0.105,-0.155
4243,-0.105,-0.155
4244,-0.110,-0.160
4245,-0.115,-0.160
4246,-0.115,-0.150
4247,-0.120,-0.140
4248,-0.120,-0.140
4249,-0.125,-0.130
4250,-0.120,-0.115
4251,-0.130,-0.115
4252,-0.135,-0.125
4253,-0.150,-0.135
4254,-0.160,-0.125
4255,-0.180,-0.135
4256,-0.210,-0.140
4257,-0.220,-0.130
4258,-0.235,-0.130
4259,-0.255,-0.125
4260,-0.260,-0.125
4261,-0.265,-0.120
4262,-0.275,-0.100
4263,-0.280,-0.105
4264,-0.280,-0.110
4265,-0.295,-0.115
4266,-0.290,-0.110
4267,-0.300,-0.125
4268,-0.310,-0.120
4269,-0.320,-0.125
4270,-0.325,-0.120
4271,-0.350,-0.100
4272,-0.340,-0.110
4273,-0.325,-0.100
4274,-0.320,-0.095
4275,-0.315,-0.100
4276,-0.315,-0.090
4277,-0.320,-0.100
4278,-0.325,-0.125
4279,-0.345,-0.120
4280,-0.340,-0.110
4281,-0.350,-0.125
4282,-0.345,-0.115
4283,-0.330,-0.105
4284,-0.330,-0.095
4285,-0.325,-0.100
4286,-0.300,-0.090
4287,-0.295,-0.090
4288,-0.295,-0.100
4289,-0.285,-0.090
4290,-0.285,-0.100
4291,-0.280,-0.120
4292,-0.290,-0.115
4293,-0.305,-0.120
4294,-0.315,-0.105
4295,-0.285,-0.110
4296,-0.285,-0.100
4297,-0.275,-0.110
4298,-0.250,-0.090
4299,-0.265,-0.105
4300,-0.255,-0.100
4301,-0.250,-0.105
4302,-0.255,-0.100
4303,-0.270,-0.130
4304,-0.275,-0.115
4305,-0.265,-0.120
4306,-0.270,-0.115
4307,-0.270,-0.115
4308,-0.265,-0.100
4309,-0.255,-0.095
4310,-0.240,-0.090
4311,-0.235,-0.100
4312,-0.240,-0.110
4313,-0.230,-0.100
4314,-0.250,-0.115
4315,-0.250,-0.135
4316,-0.255,-0.125
4317,-0.265,-0.130
4318,-0.265,-0.120
4319,-0.265,-0.120
4320,-0.245,-0.115
4321,-0.260,-0.115
4322,-0.250,-0.110
4323,-0.240,-0.115
4324,-0.255,-0.120
4325,-0.245,-0.120
4326,-0.250,-0.125
4327,-0.255,-0.135
4328,-0.270,-0.135
4329,-0.275,-0.150
4330,-0.285,-0.130
4331,-0.280,-0.135
4332,-0.270,-0.135
4333,-0.275,-0.115
4334,-0.255,-0.115
4335,-0.255,-0.115
4336,-0.260,-0.120
4337,-0.250,-0.120
4338,-0.265,-0.140
4339,-0.265,-0.140
4340,-0.270,-0.140
4341,-0.290,-0.155
4342,-0.290,-0.145
4343,-0.300,-0.130
4344,-0.285,-0.125
4345,-0.280,-0.120
4346,-0.275,-0.110
4347,-0.265,-0.120
4348,-0.270,-0.115
4349,-0.280,-0.125
4350,-0.285,-0.125
4351,-0.290,-0.130
4352,-0.290,-0.145
4353,-0.295,-0.135
4354,-0.280,-0.140
4355,-0.280,-0.130
4356,-0.290,-0.135
4357,-0.295,-0.125
4358,-0.295,-0.120
4359,-0.275,-0.110
4360,-0.270,-0.125
4361,-0.270,-0.125
4362,-0.270,-0.140
4363,-0.280,-0.150
4364,-0.285,-0.135
4365,-0.275,-0.150
4366,-0.280,-0.130
4367,-0.290,-0.125
4368,-0.275,-0.120
4369,-0.290,-0.130
4370,-0.290,-0.120
4371,-0.275,-0.125
4372,-0.260,-0.130
4373,-0.270,-0.120
4374,-0.275,-0.140
4375,-0.290,-0.135
4376,-0.300,-0.145
4377,-0.305,-0.140
4378,-0.295,-0.140
4379,-0.295,-0.135
4380,-0.290,-0.125
4381,-0.280,-0.125
4382,-0.265,-0.115
4383,-0.265,-0.120
4384,-0.270,-0.110
4385,-0.270,-0.130
4386,-0.270,-0.135
4387,-0.290,-0.145
4388,-0.285,-0.145
4389,-0.285,-0.130
4390,-0.290,-0.135
4391,-0.280,-0.140
4392,-0.280,-0.125
4393,-0.275,-0.115
4394,-0.280,-0.110
4395,-0.280,-0.105
4396,-0.275,-0.125
4397,-0.265,-0.125
4398,-0.275,-0.120
4399,-0.290,-0.145
4400,-0.290,-0.125
4401,-0.295,-0.125
4402,-0.295,-0.120
4403,-0.295,-0.105
4404,-0.290,-0.100
4405,-0.280,-0.070
4406,-0.280,-0.075
4407,-0.250,-0.055
4408,-0.240,-0.055
4409,-0.230,-0.060
4410,-0.240,-0.065
4411,-0.225,-0.075
4412,-0.215,-0.070
4413,-0.210,-0.090
4414,-0.205,-0.090
4415,-0.190,-0.100
4416,-0.175,-0.105
4417,-0.170,-0.110
4418,-0.150,-0.115
4419,-0.140,-0.115
4420,-0.125,-0.115
4421,-0.120,-0.115
4422,-0.130,-0.125
4423,-0.135,-0.120
4424,-0.160,-0.120
4425,-0.155,-0.120
4426,-0.175,-0.125
4427,-0.155,-0.110
4428,-0.165,-0.105
4429,-0.150,-0.105
4430,-0.145,-0.095
4431,-0.145,-0.100
4432,-0.145,-0.115
4433,-0.150,-0.115
4434,-0.160,-0.125
4435,-0.175,-0.135
4436,-0.195,-0.155
4437,-0.210,-0.160
4438,-0.230,-0.155
4439,-0.245,-0.150
4440,-0.250,-0.135
4441,-0.255,-0.140
4442,-0.265,-0.130
4443,-0.265,-0.130
4444,-0.265,-0.130
4445,-0.270,-0.135
4446,-0.260,-0.155
4447,-0.290,-0.155
4448,-0.285,-0.150
4449,-0.295,-0.155
4450,-0.295,-0.145
4451,-0.295,-0.140
4452,-0.285,-0.140
4453,-0.280,-0.130
4454,-0.280,-0.115
4455,-0.270,-0.120
4456,-0.275,-0.125
4457,-0.275,-0.125
4458,-0.285,-0.140
4459,-0.300,-0.145
4460,-0.300,-0.150
4461,-0.300,-0.150
4462,-0.300,-0.135
4463,-0.300,-0.135
4464,-0.285,-0.140
4465,-0.275,-0.120
4466,-0.285,-0.120
4467,-0.265,-0.120
4468,-0.270,-0.130
4469,-0.260,-0.130
4470,-0.275,-0.130
4471,-0.285,-0.140
4472,-0.280,-0.140
4473,-0.280,-0.135
4474,-0.270,-0.120
4475,-0.245,-0.095
4476,-0.235,-0.090
4477,-0.225,-0.085
4478,-0.200,-0.095
4479,-0.200,-0.135
4480,-0.170,-0.210
4481,-0.135,-0.305
4482,-0.050,-0.410
4483,0.080,-0.515
4484,0.295,-0.585
4485,0.585,-0.620
4486,0.940,-0.590
4487,1.320,-0.535
4488,1.645,-0.430
4489,1.850,-0.320
4490,1.870,-0.230
4491,1.640,-0.170
4492,1.160,-0.135
4493,0.520,-0.120
4494,-0.120,-0.135
4495,-0.745,-0.160
4496,-1.040,-0.200
4497,-1.065,-0.220
4498,-0.890,-0.200
4499,-0.645,-0.175
4500,-0.400,-0.130
4501,-0.210,-0.090
4502,-0.120,-0.055
4503,-0.070,-0.050
4504,-0.075,-0.050
4505,-0.130,-0.065
4506,-0.165,-0.075
4507,-0.215,-0.085
4508,-0.225,-0.090
4509,-0.240,-0.095
4510,-0.230,-0.095
4511,-0.210,-0.090
4512,-0.195,-0.080
4513,-0.180,-0.065
4514,-0.175,-0.065
4515,-0.165,-0.060
4516,-0.165,-0.065
4517,-0.170,-0.075
4518,-0.175,-0.075
4519,-0.185,-0.085
4520,-0.195,-0.095
4521,-0.190,-0.090
4522,-0.200,-0.090
4523,-0.195,-0.095
4524,-0.175,-0.070
4525,-0.175,-0.075
4526,-0.185,-0.070
4527,-0.175,-0.080
4528,-0.170,-0.075
4529,-0.170,-0.075
4530,-0.165,-0.090
4531,-0.175,-0.080
4532,-0.160,-0.100
4533,-0.180,-0.100
4534,-0.180,-0.095
4535,-0.185,-0.085
4536,-0.185,-0.075
4537,-0.175,-0.080
4538,-0.155,-0.070
4539,-0.160,-0.080
4540,-0.150,-0.080
4541,-0.165,-0.080
4542,-0.160,-0.080
4543,-0.165,-0.100
4544,-0.180,-0.105
4545,-0.195,-0.105
4546,-0.190,-0.105
4547,-0.190,-0.095
4548,-0.180,-0.090
4549,-0.180,-0.090
4550,-0.175,-0.085
4551,-0.160,-0.080
4552,-0.180,-0.095
4553,-0.165,-0.095
4554,-0.175,-0.090
4555,-0.190,-0.100
4556,-0.190,-0.110
4557,-0.195,-0.110
4558,-0.190,-0.105
4559,-0.180,-0.110
4560,-0.180,-0.095
4561,-0.185,-0.105
4562,-0.180,-0.080
4563,-0.175,-0.085
4564,-0.165,-0.095
4565,-0.175,-0.100
4566,-0.175,-0.095
4567,-0.180,-0.115
4568,-0.180,-0.110
4569,-0.180,-0.110
4570,-0.175,-0.115
4571,-0.175,-0.105
4572,-0.170,-0.110
4573,-0.170,-0.105
4574,-0.160,-0.095
4575,-0.155,-0.090
4576,-0.150,-0.110
4577,-0.135,-0.105
4578,-0.145,-0.115
4579,-0.140,-0.125
4580,-0.145,-0.130
4581,-0.155,-0.120
4582,-0.150,-0.120
4583,-0.150,-0.115
4584,-0.145,-0.115
4585,-0.130,-0.115
4586,-0.125,-0.110
4587,-0.125,-0.090
4588,-0.115,-0.110
4589,-0.125,-0.105
4590,-0.130,-0.125
4591,-0.125,-0.120
4592,-0.130,-0.135
4593,-0.125,-0.135
4594,-0.125,-0.130
4595,-0.115,-0.120
4596,-0.115,-0.130
4597,-0.115,-0.125
4598,-0.095,-0.125
4599,-0.095,-0.115
4600,-0.095,-0.125
4601,-0.105,-0.120
4602,-0.110,-0.130
4603,-0.105,-0.135
4604,-0.115,-0.150
4605,-0.125,-0.145
4606,-0.130,-0.135
4607,-0.125,-0.135
4608,-0.115,-0.140
4609,-0.120,-0.135
4610,-0.110,-0.130
4611,-0.100,-0.120
4612,-0.095,-0.120
4613,-0.110,-0.125
4614,-0.110,-0.140
4615,-0.110,-0.150
4616,-0.100,-0.150
4617,-0.125,-0.150
4618,-0.120,-0.145
4619,-0.120,-0.135
4620,-0.115,-0.135
4621,-0.120,-0.125
4622,-0.115,-0.115
4623,-0.130,-0.110
4624,-0.145,-0.115
4625,-0.160,-0.110
4626,-0.180,-0.115
4627,-0.200,-0.120
4628,-0.235,-0.120
4629,-0.250,-0.125
4630,-0.260,-0.110
4631,-0.280,-0.110
4632,-0.290,-0.100
4633,-0.295,-0.100
4634,-0.290,-0.100
4635,-0.295,-0.075
4636,-0.305,-0.085
4637,-0.320,-0.085
4638,-0.325,-0.095
4639,-0.335,-0.100
4640,-0.350,-0.110
4641,-0.370,-0.110
4642,-0.375,-0.105
4643,-0.370,-0.110
4644,-0.370,-0.095
4645,-0.360,-0.095
4646,-0.350,-0.080
4647,-0.350,-0.085
4648,-0.345,-0.080
4649,-0.350,-0.085
4650,-0.370,-0.095
4651,-0.370,-0.095
4652,-0.395,-0.105
4653,-0.400,-0.105
4654,-0.390,-0.110
4655,-0.395,-0.100
4656,-0.395,-0.085
4657,-0.360,-0.085
4658,-0.360,-0.085
4659,-0.360,-0.080
4660,-0.350,-0.085
4661,-0.360,-0.095
4662,-0.355,-0.105
4663,-0.365,-0.120
4664,-0.370,-0.120
4665,-0.375,-0.115
4666,-0.355,-0.105
4667,-0.350,-0.105
4668,-0.350,-0.110
4669,-0.345,-0.095
4670,-0.360,-0.090
4671,-0.340,-0.085
4672,-0.345,-0.095
4673,-0.340,-0.095
4674,-0.350,-0.110
4675,-0.350,-0.110
4676,-0.355,-0.110
4677,-0.360,-0.115
4678,-0.345,-0.115
4679,-0.350,-0.110
4680,-0.340,-0.100
4681,-0.340,-0.105
4682,-0.340,-0.090
4683,-0.345,-0.090
4684,-0.335,-0.105
4685,-0.335,-0.105
4686,-0.345,-0.115
4687,-0.345,-0.115
4688,-0.360,-0.125
4689,-0.375,-0.125
4690,-0.380,-0.120
4691,-0.370,-0.125
4692,-0.380,-0.110
4693,-0.370,-0.095
4694,-0.365,-0.100
4695,-0.375,-0.100
4696,-0.375,-0.105
4697,-0.380,-0.105
4698,-0.380,-0.120
4699,-0.380,-0.125
4700,-0.395,-0.135
4701,-0.395,-0.140
4702,-0.410,-0.120
4703,-0.410,-0.120
4704,-0.400,-0.125
4705,-0.415,-0.115
4706,-0.405,-0.105
4707,-0.385,-0.100
4708,-0.400,-0.120
4709,-0.390,-0.110
4710,-0.400,-0.130
4711,-0.410,-0.130
4712,-0.425,-0.135
4713,-0.430,-0.150
4714,-0.440,-0.135
4715,-0.435,-0.135
4716,-0.430,-0.120
4717,-0.440,-0.125
4718,-0.430,-0.125
4719,-0.420,-0.090
4720,-0.430,-0.120
4721,-0.415,-0.120
4722,-0.435,-0.135
4723,-0.435,-0.135
4724,-0.435,-0.135
4725,-0.450,-0.135
4726,-0.450,-0.135
4727,-0.450,-0.130
4728,-0.440,-0.125
4729,-0.440,-0.120
4730,-0.440,-0.115
4731,-0.435,-0.120
4732,-0.440,-0.120
4733,-0.430,-0.125
4734,-0.435,-0.120
4735,-0.445,-0.140
4736,-0.445,-0.130
4737,-0.450,-0.135
4738,-0.460,-0.125
4739,-0.465,-0.110
4740,-0.470,-0.095
4741,-0.450,-0.090
4742,-0.435,-0.070
4743,-0.410,-0.065
4744,-0.410,-0.070
4745,-0.395,-0.070
4746,-0.375,-0.080
4747,-0.380,-0.095
4748,-0.375,-0.115
4749,-0.370,-0.115
4750,-0.360,-0.120
4751,-0.345,-0.140
4752,-0.350,-0.140
4753,-0.325,-0.115
4754,-0.305,-0.125
4755,-0.295,-0.105
4756,-0.285,-0.115
4757,-0.295,-0.115
4758,-0.305,-0.115
4759,-0.315,-0.120
4760,-0.325,-0.140
4761,-0.335,-0.130
4762,-0.335,-0.120
4763,-0.345,-0.120
4764,-0.335,-0.105
4765,-0.330,-0.110
4766,-0.335,-0.110
4767,-0.335,-0.115
4768,-0.345,-0.120
4769,-0.355,-0.135
4770,-0.370,-0.145
4771,-0.400,-0.160
4772,-0.420,-0.160
4773,-0.445,-0.175
4774,-0.465,-0.165
4775,-0.485,-0.160
4776,-0.480,-0.145
4777,-0.475,-0.140
4778,-0.455,-0.145
4779,-0.455,-0.130
4780,-0.460,-0.145
4781,-0.465,-0.145
4782,-0.465,-0.150
4783,-0.475,-0.150
4784,-0.490,-0.165
4785,-0.505,-0.170
4786,-0.505,-0.160
4787,-0.515,-0.160
4788,-0.515,-0.150
4789,-0.495,-0.145
4790,-0.500,-0.150
4791,-0.495,-0.140
4792,-0.490,-0.145
4793,-0.490,-0.145
4794,-0.500,-0.165
4795,-0.500,-0.170
4796,-0.510,-0.165
4797,-0.510,-0.165
4798,-0.515,-0.155
4799,-0.520,-0.170
4800,-0.510,-0.145
4801,-0.500,-0.150
4802,-0.490,-0.135
4803,-0.490,-0.125
4804,-0.480,-0.140
4805,-0.475,-0.135
4806,-0.470,-0.140
4807,-0.475,-0.135
4808,-0.480,-0.140
4809,-0.480,-0.125
4810,-0.475,-0.110
4811,-0.455,-0.135
4812,-0.455,-0.165
4813,-0.430,-0.205
4814,-0.400,-0.275
4815,-0.340,-0.340
4816,-0.270,-0.440
4817,-0.125,-0.525
4818,0.065,-0.575
4819,0.315,-0.610
4820,0.640,-0.605
4821,0.990,-0.555
4822,1.330,-0.470
4823,1.595,-0.365
4824,1.710,-0.285
4825,1.645,-0.205
4826,1.370,-0.160
4827,0.910,-0.115
4828,0.295,-0.130
4829,-0.345,-0.140
4830,-0.900,-0.170
4831,-1.210,-0.195
4832,-1.270,-0.225
4833,-1.145,-0.230
4834,-0.910,-0.200
4835,-0.680,-0.180
4836,-0.485,-0.145
4837,-0.380,-0.100
4838,-0.325,-0.100
4839,-0.330,-0.090
4840,-0.350,-0.100
4841,-0.395,-0.110
4842,-0.425,-0.120
4843,-0.450,-0.125
4844,-0.455,-0.130
4845,-0.465,-0.145
4846,-0.445,-0.135
4847,-0.440,-0.130
4848,-0.435,-0.130
4849,-0.420,-0.120
4850,-0.415,-0.120
4851,-0.420,-0.110
4852,-0.420,-0.120
4853,-0.430,-0.125
4854,-0.420,-0.125
4855,-0.420,-0.140
4856,-0.435,-0.140
4857,-0.440,-0.155
4858,-0.435,-0.130
4859,-0.440,-0.130
4860,-0.425,-0.125
4861,-0.425,-0.120
4862,-0.420,-0.125
4863,-0.410,-0.115
4864,-0.415,-0.125
4865,-0.410,-0.130
4866,-0.410,-0.140
4867,-0.410,-0.145
4868,-0.415,-0.155
4869,-0.430,-0.150
4870,-0.430,-0.155
4871,-0.430,-0.145
4872,-0.425,-0.140
4873,-0.420,-0.135
4874,-0.415,-0.130
4875,-0.410,-0.135
4876,-0.405,-0.150
4877,-0.415,-0.140
4878,-0.415,-0.155
4879,-0.425,-0.160
4880,-0.425,-0.160
4881,-0.430,-0.170
4882,-0.430,-0.170
4883,-0.430,-0.160
4884,-0.420,-0.145
4885,-0.420,-0.155
4886,-0.415,-0.140
4887,-0.405,-0.145
4888,-0.410,-0.140
4889,-0.410,-0.155
4890,-0.410,-0.155
4891,-0.420,-0.155
4892,-0.425,-0.170
4893,-0.425,-0.175
4894,-0.430,-0.170
4895,-0.435,-0.160
4896,-0.425,-0.165
4897,-0.415,-0.155
4898,-0.410,-0.145
4899,-0.390,-0.150
4900,-0.400,-0.160
4901,-0.395,-0.160
4902,-0.400,-0.165
4903,-0.395,-0.180
4904,-0.400,-0.165
4905,-0.410,-0.180
4906,-0.415,-0.175
4907,-0.410,-0.175
4908,-0.405,-0.160
4909,-0.395,-0.160
4910,-0.390,-0.160
4911,-0.380,-0.150
4912,-0.375,-0.160
4913,-0.365,-0.165
4914,-0.375,-0.165
4915,-0.375,-0.175
4916,-0.385,-0.185
4917,-0.390,-0.185
4918,-0.405,-0.180
4919,-0.385,-0.175
4920,-0.385,-0.180
4921,-0.395,-0.175
4922,-0.375,-0.170
4923,-0.355,-0.155
4924,-0.350,-0.180
4925,-0.340,-0.175
4926,-0.345,-0.180
4927,-0.350,-0.195
4928,-0.350,-0.195
4929,-0.350,-0.200
4930,-0.365,-0.195
4931,-0.360,-0.190
4932,-0.335,-0.195
4933,-0.345,-0.190
4934,-0.335,-0.175
4935,-0.325,-0.170
4936,-0.315,-0.185
4937,-0.320,-0.180
4938,-0.320,-0.195
4939,-0.330,-0.205
4940,-0.335,-0.210
4941,-0.355,-0.210
4942,-0.350,-0.215
4943,-0.340,-0.215
4944,-0.335,-0.210
4945,-0.340,-0.200
4946,-0.325,-0.190
4947,-0.315,-0.180
4948,-0.315,-0.190
4949,-0.320,-0.205
4950,-0.330,-0.205
4951,-0.330,-0.220
4952,-0.350,-0.235
4953,-0.345,-0.230
4954,-0.350,-0.225
4955,-0.345,-0.215
4956,-0.345,-0.215
4957,-0.335,-0.195
4958,-0.325,-0.195
4959,-0.345,-0.195
4960,-0.345,-0.185
4961,-0.350,-0.205
4962,-0.365,-0.185
4963,-0.380,-0.210
4964,-0.405,-0.205
4965,-0.420,-0.215
4966,-0.445,-0.210
4967,-0.450,-0.200
4968,-0.450,-0.180
4969,-0.465,-0.190
4970,-0.480,-0.170
4971,-0.485,-0.175
4972,-0.495,-0.180
4973,-0.500,-0.175
4974,-0.515,-0.185
4975,-0.535,-0.185
4976,-0.545,-0.185
4977,-0.575,-0.185
4978,-0.580,-0.195
4979,-0.575,-0.185
4980,-0.590,-0.190
4981,-0.590,-0.185
4982,-0.590,-0.180
4983,-0.590,-0.170
4984,-0.590,-0.170
4985,-0.605,-0.175
4986,-0.600,-0.185
4987,-0.610,-0.195
4988,-0.625,-0.190
4989,-0.635,-0.200
4990,-0.635,-0.185
4991,-0.635,-0.185
4992,-0.635,-0.175
4993,-0.635,-0.170
4994,-0.625,-0.180
4995,-0.615,-0.170
4996,-0.610,-0.180
4997,-0.605,-0.170
4998,-0.620,-0.190
4999,-0.635,-0.195
5000,-0.620,-0.195
5001,-0.635,-0.200
5002,-0.635,-0.195
5003,-0.625,-0.200
5004,-0.615,-0.190
5005,-0.610,-0.180
5006,-0.595,-0.175
5007,-0.590,-0.160
5008,-0.590,-0.180
5009,-0.585,-0.180
5010,-0.575,-0.185
5011,-0.585,-0.195
5012,-0.590,-0.200
5013,-0.600,-0.210
5014,-0.600,-0.200
5015,-0.595,-0.200
5016,-0.595,-0.200
5017,-0.590,-0.195
5018,-0.590,-0.195
5019,-0.570,-0.185
5020,-0.560,-0.180
5021,-0.555,-0.195
5022,-0.550,-0.200
5023,-0.555,-0.210
5024,-0.565,-0.215
5025,-0.580,-0.225
5026,-0.590,-0.210
5027,-0.575,-0.215
5028,-0.575,-0.205
5029,-0.575,-0.215
5030,-0.570,-0.190
5031,-0.560,-0.195
5032,-0.565,-0.200
5033,-0.575,-0.200
5034,-0.580,-0.220
5035,-0.575,-0.220
5036,-0.590,-0.230
5037,-0.595,-0.230
5038,-0.605,-0.220
5039,-0.605,-0.225
5040,-0.600,-0.215
5041,-0.600,-0.205
5042,-0.575,-0.205
5043,-0.580,-0.205
5044,-0.585,-0.210
5045,-0.585,-0.205
5046,-0.595,-0.215
5047,-0.605,-0.225
5048,-0.620,-0.240
5049,-0.610,-0.235
5050,-0.620,-0.240
5051,-0.610,-0.235
5052,-0.610,-0.230
5053,-0.600,-0.220
5054,-0.605,-0.215
5055,-0.605,-0.215
5056,-0.590,-0.220
5057,-0.595,-0.225
5058,-0.595,-0.240
5059,-0.610,-0.240
5060,-0.615,-0.240
5061,-0.625,-0.250
5062,-0.635,-0.240
5063,-0.630,-0.240
5064,-0.635,-0.235
5065,-0.625,-0.220
5066,-0.630,-0.215
5067,-0.620,-0.210
5068,-0.625,-0.215
5069,-0.630,-0.215
5070,-0.625,-0.230
5071,-0.635,-0.235
5072,-0.640,-0.260
5073,-0.645,-0.250
5074,-0.665,-0.250
5075,-0.650,-0.245
5076,-0.650,-0.240
5077,-0.635,-0.225
5078,-0.630,-0.230
5079,-0.620,-0.225
5080,-0.620,-0.235
5081,-0.610,-0.225
5082,-0.615,-0.230
5083,-0.620,-0.245
5084,-0.645,-0.255
5085,-0.650,-0.265
5086,-0.645,-0.250
5087,-0.645,-0.255
5088,-0.640,-0.240
5089,-0.645,-0.225
5090,-0.635,-0.210
5091,-0.625,-0.210
5092,-0.625,-0.220
5093,-0.615,-0.210
5094,-0.625,-0.205
5095,-0.625,-0.200
5096,-0.625,-0.205
5097,-0.625,-0.200
5098,-0.620,-0.185
5099,-0.615,-0.200
5100,-0.590,-0.180
5101,-0.580,-0.170
5102,-0.560,-0.180
5103,-0.545,-0.180
5104,-0.525,-0.200
5105,-0.525,-0.225
5106,-0.515,-0.240
5107,-0.510,-0.250
5108,-0.500,-0.265
5109,-0.500,-0.255
5110,-0.490,-0.250
5111,-0.485,-0.235
5112,-0.495,-0.225
5113,-0.480,-0.225
5114,-0.495,-0.230
5115,-0.495,-0.215
5116,-0.480,-0.230
5117,-0.480,-0.225
5118,-0.485,-0.235
5119,-0.495,-0.230
5120,-0.500,-0.245
5121,-0.505,-0.250
5122,-0.525,-0.245
5123,-0.535,-0.255
5124,-0.535,-0.260
5125,-0.530,-0.240
5126,-0.555,-0.245
5127,-0.565,-0.260
5128,-0.580,-0.255
5129,-0.585,-0.265
5130,-0.605,-0.270
5131,-0.620,-0.270
5132,-0.650,-0.285
5133,-0.655,-0.290
5134,-0.655,-0.280
5135,-0.645,-0.285
5136,-0.650,-0.270
5137,-0.635,-0.270
5138,-0.635,-0.260
5139,-0.620,-0.260
5140,-0.625,-0.265
5141,-0.635,-0.265
5142,-0.650,-0.275
5143,-0.655,-0.270
5144,-0.660,-0.285
5145,-0.670,-0.300
5146,-0.675,-0.290
5147,-0.675,-0.285
5148,-0.680,-0.275
5149,-0.665,-0.260
5150,-0.660,-0.270
5151,-0.660,-0.250
5152,-0.660,-0.260
5153,-0.645,-0.260
5154,-0.645,-0.265
5155,-0.655,-0.280
5156,-0.655,-0.280
5157,-0.665,-0.280
5158,-0.665,-0.275
5159,-0.650,-0.270
5160,-0.635,-0.265
5161,-0.625,-0.260
5162,-0.610,-0.240
5163,-0.605,-0.215
5164,-0.595,-0.205
5165,-0.585,-0.220
5166,-0.590,-0.220
5167,-0.575,-0.250
5168,-0.580,-0.275
5169,-0.575,-0.315
5170,-0.560,-0.355
5171,-0.515,-0.430
5172,-0.445,-0.495
5173,-0.320,-0.565
5174,-0.155,-0.650
5175,0.070,-0.715
5176,0.360,-0.755
5177,0.695,-0.735
5178,1.065,-0.685
5179,1.400,-0.640
5180,1.605,-0.545
5181,1.635,-0.470
5182,1.425,-0.400
5183,0.975,-0.340
5184,0.355,-0.305
5185,-0.285,-0.310
5186,-0.925,-0.310
5187,-1.330,-0.320
5188,-1.455,-0.340
5189,-1.345,-0.340
5190,-1.115,-0.320
5191,-0.880,-0.290
5192,-0.665,-0.265
5193,-0.540,-0.235
5194,-0.475,-0.210
5195,-0.460,-0.215
5196,-0.480,-0.205
5197,-0.515,-0.200
5198,-0.555,-0.210
5199,-0.555,-0.205
5200,-0.560,-0.200
5201,-0.570,-0.210
5202,-0.570,-0.205
5203,-0.565,-0.210
5204,-0.565,-0.230
5205,-0.575,-0.230
5206,-0.575,-0.235
5207,-0.585,-0.220
5208,-0.585,-0.210
5209,-0.580,-0.210
5210,-0.575,-0.200
5211,-0.560,-0.205
5212,-0.565,-0.205
5213,-0.565,-0.210
5214,-0.565,-0.210
5215,-0.570,-0.210
5216,-0.585,-0.235
5217,-0.585,-0.245
5218,-0.580,-0.235
5219,-0.590,-0.225
5220,-0.575,-0.220
5221,-0.570,-0.220
5222,-0.565,-0.200
5223,-0.565,-0.200
5224,-0.570,-0.210
5225,-0.560,-0.210
5226,-0.560,-0.225
5227,-0.565,-0.225
5228,-0.565,-0.240
5229,-0.585,-0.240
5230,-0.580,-0.250
5231,-0.575,-0.225
5232,-0.575,-0.220
5233,-0.570,-0.220
5234,-0.565,-0.205
5235,-0.555,-0.210
5236,-0.555,-0.205
5237,-0.550,-0.230
5238,-0.560,-0.225
5239,-0.555,-0.240
5240,-0.565,-0.240
5241,-0.565,-0.245
5242,-0.565,-0.250
5243,-0.570,-0.245
5244,-0.570,-0.220
5245,-0.565,-0.225
5246,-0.560,-0.220
5247,-0.550,-0.215
5248,-0.550,-0.205
5249,-0.540,-0.225
5250,-0.545,-0.235
5251,-0.555,-0.230
5252,-0.560,-0.245
5253,-0.550,-0.240
5254,-0.560,-0.250
5255,-0.570,-0.245
5256,-0.565,-0.240
5257,-0.560,-0.225
5258,-0.565,-0.220
5259,-0.545,-0.215
5260,-0.525,-0.225
5261,-0.525,-0.215
5262,-0.525,-0.225
5263,-0.530,-0.240
5264,-0.530,-0.250
5265,-0.540,-0.250
5266,-0.540,-0.245
5267,-0.530,-0.240
5268,-0.530,-0.235
5269,-0.520,-0.230
5270,-0.530,-0.220
5271,-0.510,-0.210
5272,-0.490,-0.225
5273,-0.490,-0.230
5274,-0.500,-0.225
5275,-0.505,-0.230
5276,-0.515,-0.250
5277,-0.510,-0.245
5278,-0.510,-0.245
5279,-0.500,-0.240
5280,-0.500,-0.235
5281,-0.490,-0.230
5282,-0.480,-0.235
5283,-0.470,-0.220
5284,-0.455,-0.230
5285,-0.460,-0.235
5286,-0.455,-0.245
5287,-0.455,-0.255
5288,-0.460,-0.255
5289,-0.465,-0.265
5290,-0.470,-0.255
5291,-0.460,-0.250
5292,-0.465,-0.245
5293,-0.440,-0.245
5294,-0.435,-0.235
5295,-0.425,-0.235
5296,-0.425,-0.230
5297,-0.430,-0.235
5298,-0.410,-0.255
5299,-0.415,-0.255
5300,-0.420,-0.260
5301,-0.415,-0.265
5302,-0.425,-0.265
5303,-0.425,-0.270
5304,-0.415,-0.260
5305,-0.410,-0.250
5306,-0.410,-0.250
5307,-0.400,-0.240
5308,-0.415,-0.250
5309,-0.400,-0.250
5310,-0.400,-0.260
5311,-0.420,-0.265
5312,-0.425,-0.275
5313,-0.440,-0.270
5314,-0.460,-0.270
5315,-0.475,-0.270
5316,-0.500,-0.260
5317,-0.505,-0.255
5318,-0.515,-0.250
5319,-0.525,-0.230
5320,-0.525,-0.225
5321,-0.530,-0.230
5322,-0.565,-0.245
5323,-0.565,-0.255
5324,-0.590,-0.250
5325,-0.620,-0.255
5326,-0.630,-0.255
5327,-0.635,-0.250
5328,-0.645,-0.245
5329,-0.650,-0.230
5330,-0.655,-0.215
5331,-0.650,-0.230
5332,-0.650,-0.215
5333,-0.660,-0.225
5334,-0.675,-0.230
5335,-0.680,-0.240
5336,-0.700,-0.240
5337,-0.700,-0.255
5338,-0.700,-0.245
5339,-0.715,-0.235
5340,-0.710,-0.225
5341,-0.705,-0.225
5342,-0.705,-0.225
5343,-0.695,-0.210
5344,-0.690,-0.220
5345,-0.705,-0.215
5346,-0.705,-0.235
5347,-0.705,-0.235
5348,-0.715,-0.230
5349,-0.730,-0.240
5350,-0.720,-0.245
5351,-0.720,-0.240
5352,-0.720,-0.225
5353,-0.715,-0.220
5354,-0.700,-0.215
5355,-0.680,-0.220
5356,-0.680,-0.215
5357,-0.680,-0.220
5358,-0.680,-0.220
5359,-0.680,-0.240
5360,-0.685,-0.230
5361,-0.690,-0.235
5362,-0.680,-0.240
5363,-0.685,-0.240
5364,-0.680,-0.240
5365,-0.665,-0.230
5366,-0.675,-0.225
5367,-0.665,-0.225
5368,-0.650,-0.220
5369,-0.650,-0.230
5370,-0.640,-0.240
5371,-0.650,-0.250
5372,-0.660,-0.245
5373,-0.675,-0.265
5374,-0.665,-0.260
5375,-0.665,-0.255
5376,-0.660,-0.255
5377,-0.660,-0.245
5378,-0.655,-0.240
5379,-0.655,-0.240
5380,-0.645,-0.240
5381,-0.655,-0.250
5382,-0.655,-0.255
5383,-0.675,-0.265
5384,-0.680,-0.270
5385,-0.685,-0.265
5386,-0.675,-0.275
5387,-0.680,-0.265
5388,-0.680,-0.265
5389,-0.680,-0.265
5390,-0.680,-0.240
5391,-0.670,-0.235
5392,-0.675,-0.245
5393,-0.690,-0.255
5394,-0.700,-0.245
5395,-0.700,-0.265
5396,-0.685,-0.275
5397,-0.695,-0.280
5398,-0.700,-0.280
5399,-0.705,-0.270
5400,-0.690,-0.260
5401,-0.690,-0.260
5402,-0.695,-0.255
5403,-0.695,-0.250
5404,-0.685,-0.255
5405,-0.695,-0.265
5406,-0.700,-0.265
5407,-0.710,-0.270
5408,-0.710,-0.285
5409,-0.715,-0.285
5410,-0.720,-0.285
5411,-0.720,-0.265
5412,-0.720,-0.265
5413,-0.705,-0.265
5414,-0.715,-0.265
5415,-0.700,-0.250
5416,-0.695,-0.260
5417,-0.695,-0.260
5418,-0.700,-0.265
5419,-0.715,-0.275
5420,-0.710,-0.280
5421,-0.725,-0.285
5422,-0.725,-0.275
5423,-0.725,-0.265
5424,-0.725,-0.270
5425,-0.715,-0.265
5426,-0.715,-0.260
5427,-0.715,-0.255
5428,-0.710,-0.245
5429,-0.700,-0.255
5430,-0.710,-0.260
5431,-0.715,-0.270
5432,-0.715,-0.260
5433,-0.725,-0.255
5434,-0.730,-0.260
5435,-0.715,-0.225
5436,-0.720,-0.215
5437,-0.695,-0.190
5438,-0.680,-0.195
5439,-0.670,-0.180
5440,-0.650,-0.190
5441,-0.640,-0.190
5442,-0.635,-0.200
5443,-0.640,-0.215
5444,-0.625,-0.235
5445,-0.625,-0.260
5446,-0.610,-0.265
5447,-0.605,-0.270
5448,-0.590,-0.275
5449,-0.560,-0.255
5450,-0.555,-0.245
5451,-0.560,-0.240
5452,-0.550,-0.225
5453,-0.570,-0.245
5454,-0.570,-0.250
5455,-0.575,-0.255
5456,-0.590,-0.265
5457,-0.580,-0.260
5458,-0.585,-0.265
5459,-0.575,-0.245
5460,-0.580,-0.245
5461,-0.575,-0.245
5462,-0.575,-0.250
5463,-0.580,-0.245
5464,-0.580,-0.235
5465,-0.595,-0.255
5466,-0.605,-0.265
5467,-0.630,-0.265
5468,-0.660,-0.290
5469,-0.690,-0.285
5470,-0.695,-0.300
5471,-0.715,-0.280
5472,-0.725,-0.290
5473,-0.735,-0.280
5474,-0.730,-0.270
5475,-0.710,-0.260
5476,-0.695,-0.275
5477,-0.705,-0.275
5478,-0.720,-0.280
5479,-0.720,-0.295
5480,-0.725,-0.290
5481,-0.745,-0.295
5482,-0.750,-0.285
5483,-0.750,-0.285
5484,-0.755,-0.280
5485,-0.750,-0.275
5486,-0.750,-0.270
5487,-0.730,-0.255
5488,-0.715,-0.265
5489,-0.730,-0.270
5490,-0.720,-0.265
5491,-0.725,-0.285
5492,-0.735,-0.290
5493,-0.740,-0.300
5494,-0.750,-0.295
5495,-0.740,-0.280
5496,-0.735,-0.275
5497,-0.730,-0.270
5498,-0.730,-0.275
5499,-0.710,-0.270
5500,-0.715,-0.265
5501,-0.720,-0.270
5502,-0.710,-0.280
5503,-0.710,-0.270
5504,-0.705,-0.270
5505,-0.705,-0.270
5506,-0.700,-0.255
5507,-0.680,-0.230
5508,-0.675,-0.235
5509,-0.665,-0.245
5510,-0.640,-0.290
5511,-0.610,-0.345
5512,-0.565,-0.435
5513,-0.475,-0.540
5514,-0.330,-0.640
5515,-0.135,-0.730
5516,0.140,-0.785
5517,0.490,-0.785
5518,0.900,-0.755
5519,1.255,-0.670
5520,1.495,-0.570
5521,1.530,-0.470
5522,1.330,-0.380
5523,0.855,-0.325
5524,0.215,-0.295
5525,-0.425,-0.305
5526,-1.065,-0.325
5527,-1.480,-0.345
5528,-1.585,-0.375
5529,-1.455,-0.375
5530,-1.230,-0.355
5531,-0.970,-0.310
5532,-0.765,-0.270
5533,-0.645,-0.230
5534,-0.585,-0.200
5535,-0.570,-0.190
5536,-0.580,-0.180
5537,-0.605,-0.205
5538,-0.630,-0.215
5539,-0.660,-0.210
5540,-0.670,-0.230
5541,-0.680,-0.230
5542,-0.685,-0.225
5543,-0.675,-0.215
5544,-0.670,-0.215
5545,-0.665,-0.225
5546,-0.650,-0.205
5547,-0.645,-0.210
5548,-0.645,-0.215
5549,-0.650,-0.210
5550,-0.640,-0.220
5551,-0.650,-0.225
5552,-0.660,-0.230
5553,-0.675,-0.235
5554,-0.675,-0.240
5555,-0.670,-0.220
5556,-0.670,-0.215
5557,-0.660,-0.230
5558,-0.635,-0.210
5559,-0.635,-0.210
5560,-0.640,-0.200
5561,-0.635,-0.210
5562,-0.635,-0.225
5563,-0.645,-0.225
5564,-0.655,-0.240
5565,-0.655,-0.225
5566,-0.665,-0.245
5567,-0.650,-0.225
5568,-0.645,-0.225
5569,-0.640,-0.215
5570,-0.630,-0.220
5571,-0.635,-0.215
5572,-0.625,-0.210
5573,-0.630,-0.220
5574,-0.630,-0.220
5575,-0.625,-0.225
5576,-0.645,-0.235
5577,-0.630,-0.240
5578,-0.645,-0.245
5579,-0.650,-0.230
5580,-0.645,-0.230
5581,-0.630,-0.235
5582,-0.625,-0.225
5583,-0.620,-0.220
5584,-0.605,-0.225
5585,-0.610,-0.225
5586,-0.610,-0.230
5587,-0.615,-0.240
5588,-0.620,-0.250
5589,-0.625,-0.255
5590,-0.625,-0.240
5591,-0.625,-0.235
5592,-0.615,-0.245
5593,-0.605,-0.235
5594,-0.605,-0.235
5595,-0.590,-0.220
5596,-0.585,-0.215
5597,-0.600,-0.220
5598,-0.595,-0.240
5599,-0.600,-0.240
5600,-0.610,-0.240
5601,-0.610,-0.255
5602,-0.605,-0.255
5603,-0.615,-0.245
5604,-0.610,-0.240
5605,-0.605,-0.235
5606,-0.600,-0.225
5607,-0.580,-0.220
5608,-0.565,-0.220
5609,-0.565,-0.230
5610,-0.570,-0.225
5611,-0.575,-0.240
5612,-0.580,-0.245
5613,-0.585,-0.245
5614,-0.590,-0.245
5615,-0.580,-0.235
5616,-0.575,-0.230
5617,-0.560,-0.230
5618,-0.565,-0.220
5619,-0.545,-0.225
5620,-0.525,-0.225
5621,-0.530,-0.240
5622,-0.530,-0.235
5623,-0.535,-0.240
5624,-0.525,-0.250
5625,-0.550,-0.250
5626,-0.545,-0.255
5627,-0.530,-0.260
5628,-0.535,-0.245
5629,-0.510,-0.240
5630,-0.515,-0.235
5631,-0.505,-0.225
5632,-0.505,-0.230
5633,-0.500,-0.240
5634,-0.505,-0.250
5635,-0.480,-0.245
5636,-0.485,-0.245
5637,-0.495,-0.255
5638,-0.495,-0.255
5639,-0.495,-0.250
5640,-0.495,-0.250
5641,-0.490,-0.245
5642,-0.485,-0.235
5643,-0.485,-0.235
5644,-0.470,-0.245
5645,-0.470,-0.245
5646,-0.465,-0.245
5647,-0.480,-0.255
5648,-0.480,-0.260
5649,-0.500,-0.270
5650,-0.510,-0.250
5651,-0.520,-0.255
5652,-0.530,-0.250
5653,-0.545,-0.245
5654,-0.555,-0.230
5655,-0.575,-0.215
5656,-0.590,-0.215
5657,-0.600,-0.225
5658,-0.610,-0.220
5659,-0.630,-0.235
5660,-0.660,-0.225
5661,-0.680,-0.245
5662,-0.710,-0.245
5663,-0.715,-0.225
5664,-0.715,-0.220
5665,-0.730,-0.215
5666,-0.735,-0.210
5667,-0.740,-0.205
5668,-0.740,-0.195
5669,-0.740,-0.210
5670,-0.750,-0.200
5671,-0.745,-0.215
5672,-0.775,-0.220
5673,-0.770,-0.230
5674,-0.775,-0.220
5675,-0.790,-0.210
5676,-0.780,-0.210
5677,-0.780,-0.210
5678,-0.775,-0.200
5679,-0.765,-0.205
5680,-0.765,-0.185
5681,-0.755,-0.190
5682,-0.765,-0.200
5683,-0.765,-0.200
5684,-0.775,-0.210
5685,-0.795,-0.225
5686,-0.795,-0.205
5687,-0.785,-0.210
5688,-0.780,-0.210
5689,-0.765,-0.195
5690,-0.750,-0.190
5691,-0.755,-0.185
5692,-0.730,-0.175
5693,-0.735,-0.195
5694,-0.740,-0.205
5695,-0.745,-0.200
5696,-0.760,-0.205
5697,-0.760,-0.210
5698,-0.765,-0.215
5699,-0.755,-0.210
5700,-0.755,-0.205
5701,-0.750,-0.195
5702,-0.745,-0.200
5703,-0.730,-0.185
5704,-0.730,-0.185
5705,-0.720,-0.190
5706,-0.725,-0.195
5707,-0.730,-0.215
5708,-0.735,-0.220
5709,-0.735,-0.215
5710,-0.740,-0.220
5711,-0.735,-0.210
5712,-0.745,-0.210
5713,-0.730,-0.205
5714,-0.725,-0.205
5715,-0.725,-0.195
5716,-0.700,-0.200
5717,-0.730,-0.215
5718,-0.730,-0.210
5719,-0.745,-0.200
5720,-0.740,-0.220
5721,-0.750,-0.230
5722,-0.750,-0.235
5723,-0.760,-0.230
5724,-0.765,-0.225
5725,-0.760,-0.220
5726,-0.765,-0.215
5727,-0.745,-0.215
5728,-0.745,-0.205
5729,-0.755,-0.210
5730,-0.755,-0.220
5731,-0.770,-0.215
5732,-0.760,-0.225
5733,-0.765,-0.240
5734,-0.775,-0.240
5735,-0.785,-0.230
5736,-0.785,-0.220
5737,-0.780,-0.205
5738,-0.765,-0.200
5739,-0.770,-0.200
5740,-0.760,-0.200
5741,-0.755,-0.215
5742,-0.765,-0.220
5743,-0.775,-0.225
5744,-0.780,-0.230
5745,-0.795,-0.235
5746,-0.815,-0.235
5747,-0.825,-0.225
5748,-0.810,-0.225
5749,-0.800,-0.215
5750,-0.805,-0.210
5751,-0.795,-0.200
5752,-0.775,-0.200
5753,-0.775,-0.195
5754,-0.775,-0.195
5755,-0.780,-0.210
5756,-0.780,-0.210
5757,-0.790,-0.205
5758,-0.790,-0.210
5759,-0.800,-0.195
5760,-0.780,-0.175
5761,-0.780,-0.160
5762,-0.770,-0.155
5763,-0.745,-0.155
5764,-0.730,-0.140
5765,-0.725,-0.145
5766,-0.710,-0.150
5767,-0.715,-0.160
5768,-0.715,-0.165
5769,-0.710,-0.175
5770,-0.700,-0.190
5771,-0.700,-0.200
5772,-0.695,-0.210
5773,-0.670,-0.205
5774,-0.655,-0.200
5775,-0.640,-0.180
5776,-0.620,-0.185
5777,-0.615,-0.180
5778,-0.615,-0.190
5779,-0.630,-0.195
5780,-0.635,-0.200
5781,-0.660,-0.210
5782,-0.680,-0.210
5783,-0.675,-0.205
5784,-0.670,-0.210
5785,-0.655,-0.190
5786,-0.650,-0.190
5787,-0.640,-0.170
5788,-0.650,-0.195
5789,-0.660,-0.195
5790,-0.660,-0.200
5791,-0.675,-0.210
5792,-0.695,-0.220
5793,-0.715,-0.235
5794,-0.730,-0.250
5795,-0.770,-0.240
5796,-0.780,-0.235
5797,-0.800,-0.225
5798,-0.800,-0.225
5799,-0.795,-0.225
5800,-0.790,-0.225
5801,-0.800,-0.225
5802,-0.785,-0.225
5803,-0.790,-0.235
5804,-0.795,-0.235
5805,-0.815,-0.250
5806,-0.840,-0.250
5807,-0.830,-0.240
5808,-0.835,-0.235
5809,-0.835,-0.230
5810,-0.835,-0.215
5811,-0.820,-0.215
5812,-0.810,-0.210
5813,-0.825,-0.220
5814,-0.825,-0.215
5815,-0.835,-0.230
5816,-0.835,-0.235
5817,-0.825,-0.235
5818,-0.825,-0.245
5819,-0.825,-0.225
5820,-0.825,-0.230
5821,-0.815,-0.220
5822,-0.815,-0.215
5823,-0.810,-0.215
5824,-0.800,-0.205
5825,-0.805,-0.210
5826,-0.795,-0.205
5827,-0.790,-0.220
5828,-0.790,-0.220
5829,-0.785,-0.210
5830,-0.775,-0.200
5831,-0.770,-0.190
5832,-0.770,-0.175
5833,-0.745,-0.175
5834,-0.745,-0.190
5835,-0.730,-0.225
5836,-0.700,-0.275
5837,-0.665,-0.360
5838,-0.580,-0.460
5839,-0.485,-0.565
5840,-0.300,-0.640
5841,-0.050,-0.675
5842,0.280,-0.680
5843,0.660,-0.635
5844,1.050,-0.555
5845,1.335,-0.440
5846,1.460,-0.350
5847,1.380,-0.255
5848,1.035,-0.215
5849,0.460,-0.185
5850,-0.180,-0.185
5851,-0.820,-0.205
5852,-1.360,-0.240
5853,-1.605,-0.265
5854,-1.595,-0.280
5855,-1.415,-0.275
5856,-1.175,-0.275
5857,-0.945,-0.235
5858,-0.785,-0.200
5859,-0.690,-0.170
5860,-0.665,-0.150
5861,-0.665,-0.140
5862,-0.695,-0.155
5863,-0.705,-0.160
5864,-0.735,-0.170
5865,-0.750,-0.185
5866,-0.755,-0.190
5867,-0.760,-0.180
5868,-0.755,-0.170
5869,-0.750,-0.175
5870,-0.735,-0.165
5871,-0.735,-0.165
5872,-0.725,-0.160
5873,-0.725,-0.165
5874,-0.715,-0.170
5875,-0.715,-0.170
5876,-0.720,-0.185
5877,-0.725,-0.185
5878,-0.735,-0.195
5879,-0.730,-0.180
5880,-0.740,-0.190
5881,-0.725,-0.180
5882,-0.715,-0.170
5883,-0.710,-0.160
5884,-0.695,-0.180
5885,-0.710,-0.185
5886,-0.710,-0.180
5887,-0.725,-0.180
5888,-0.725,-0.190
5889,-0.720,-0.195
5890,-0.740,-0.200
5891,-0.730,-0.200
5892,-0.730,-0.195
5893,-0.730,-0.185
5894,-0.720,-0.180
5895,-0.705,-0.180
5896,-0.705,-0.170
5897,-0.705,-0.185
5898,-0.700,-0.180
5899,-0.700,-0.185
5900,-0.700,-0.200
5901,-0.715,-0.205
5902,-0.715,-0.200
5903,-0.710,-0.200
5904,-0.695,-0.195
5905,-0.690,-0.180
5906,-0.700,-0.175
5907,-0.700,-0.175
5908,-0.705,-0.175
5909,-0.705,-0.185
5910,-0.700,-0.175
5911,-0.695,-0.200
5912,-0.700,-0.200
5913,-0.705,-0.210
5914,-0.710,-0.210
5915,-0.705,-0.210
5916,-0.715,-0.210
5917,-0.705,-0.190
5918,-0.700,-0.195
5919,-0.705,-0.190
5920,-0.680,-0.190
5921,-0.675,-0.200
5922,-0.685,-0.200
5923,-0.670,-0.215
5924,-0.685,-0.210
5925,-0.690,-0.215
5926,-0.710,-0.215
5927,-0.705,-0.215
5928,-0.705,-0.220
5929,-0.695,-0.205
5930,-0.685,-0.200
5931,-0.665,-0.190
5932,-0.650,-0.185
5933,-0.635,-0.195
5934,-0.645,-0.185
5935,-0.640,-0.210
5936,-0.645,-0.215
5937,-0.650,-0.230
5938,-0.655,-0.230
5939,-0.655,-0.215
5940,-0.665,-0.215
5941,-0.640,-0.210
5942,-0.640,-0.200
5943,-0.620,-0.200
5944,-0.605,-0.190
5945,-0.610,-0.210
5946,-0.595,-0.205
5947,-0.605,-0.215
5948,-0.595,-0.225
5949,-0.610,-0.230
5950,-0.605,-0.225
5951,-0.605,-0.220
5952,-0.610,-0.240
5953,-0.610,-0.230
5954,-0.600,-0.240
5955,-0.585,-0.225
5956,-0.590,-0.215
5957,-0.585,-0.225
5958,-0.590,-0.230
5959,-0.585,-0.235
5960,-0.590,-0.240
5961,-0.590,-0.250
5962,-0.590,-0.240
5963,-0.590,-0.235
5964,-0.590,-0.230
5965,-0.590,-0.225
5966,-0.565,-0.220
5967,-0.570,-0.205
5968,-0.570,-0.210
5969,-0.580,-0.210
5970,-0.560,-0.220
5971,-0.565,-0.215
5972,-0.580,-0.230
5973,-0.580,-0.230
5974,-0.605,-0.230
5975,-0.590,-0.220
5976,-0.600,-0.215
5977,-0.610,-0.220
5978,-0.605,-0.195
5979,-0.610,-0.190
5980,-0.620,-0.185
5981,-0.630,-0.185
5982,-0.650,-0.190
5983,-0.675,-0.200
5984,-0.695,-0.200
5985,-0.730,-0.205
5986,-0.750,-0.210
5987,-0.765,-0.200
5988,-0.780,-0.200
5989,-0.785,-0.195
5990,-0.800,-0.165
5991,-0.800,-0.170
5992,-0.805,-0.165
5993,-0.815,-0.170
5994,-0.810,-0.175
5995,-0.825,-0.180
5996,-0.835,-0.185
5997,-0.840,-0.190
5998,-0.855,-0.185
5999,-0.870,-0.185
6000,-0.865,-0.180
6001,-0.855,-0.175
6002,-0.850,-0.165
6003,-0.845,-0.160
6004,-0.850,-0.170
6005,-0.845,-0.155
6006,-0.855,-0.170
6007,-0.865,-0.170
6008,-0.860,-0.175
6009,-0.865,-0.175
6010,-0.870,-0.175
6011,-0.865,-0.165
6012,-0.865,-0.175
6013,-0.865,-0.175
6014,-0.875,-0.155
6015,-0.855,-0.150
6016,-0.845,-0.150
6017,-0.840,-0.165
6018,-0.840,-0.145
6019,-0.840,-0.170
6020,-0.855,-0.180
6021,-0.850,-0.200
6022,-0.855,-0.185
6023,-0.850,-0.180
6024,-0.845,-0.175
6025,-0.840,-0.165
6026,-0.830,-0.160
6027,-0.825,-0.160
6028,-0.810,-0.150
6029,-0.810,-0.160
6030,-0.820,-0.165
6031,-0.805,-0.175
6032,-0.830,-0.180
6033,-0.825,-0.200
6034,-0.830,-0.205
6035,-0.825,-0.190
6036,-0.825,-0.180
6037,-0.840,-0.180
6038,-0.820,-0.165
6039,-0.825,-0.170
6040,-0.820,-0.155
6041,-0.815,-0.175
6042,-0.810,-0.175
6043,-0.830,-0.185
6044,-0.835,-0.190
6045,-0.840,-0.195
6046,-0.835,-0.190
6047,-0.860,-0.195
6048,-0.845,-0.195
6049,-0.845,-0.185
6050,-0.840,-0.175
6051,-0.840,-0.165
6052,-0.830,-0.175
6053,-0.835,-0.175
6054,-0.830,-0.170
6055,-0.845,-0.180
6056,-0.845,-0.195
6057,-0.865,-0.195
6058,-0.870,-0.210
6059,-0.870,-0.190
6060,-0.865,-0.200
6061,-0.860,-0.190
6062,-0.860,-0.175
6063,-0.860,-0.170
6064,-0.855,-0.165
6065,-0.845,-0.170
6066,-0.845,-0.170
6067,-0.855,-0.175
6068,-0.860,-0.190
6069,-0.855,-0.190
6070,-0.875,-0.195
6071,-0.880,-0.190
6072,-0.875,-0.190
6073,-0.870,-0.170
6074,-0.865,-0.160
6075,-0.855,-0.135
6076,-0.850,-0.135
6077,-0.850,-0.140
6078,-0.835,-0.140
6079,-0.835,-0.140
6080,-0.840,-0.140
6081,-0.830,-0.150
6082,-0.820,-0.145
6083,-0.830,-0.145
6084,-0.820,-0.140
6085,-0.810,-0.135
6086,-0.790,-0.150
6087,-0.785,-0.150
6088,-0.765,-0.155
6089,-0.750,-0.180
6090,-0.735,-0.185
6091,-0.720,-0.190
6092,-0.725,-0.190
6093,-0.725,-0.185
6094,-0.725,-0.190
6095,-0.735,-0.185
6096,-0.750,-0.180
6097,-0.755,-0.180
6098,-0.735,-0.175
6099,-0.735,-0.175
6100,-0.720,-0.155
6101,-0.720,-0.160
6102,-0.725,-0.165
6103,-0.735,-0.180
6104,-0.750,-0.190
6105,-0.770,-0.195
6106,-0.790,-0.210
6107,-0.805,-0.210
6108,-0.825,-0.220
6109,-0.835,-0.210
6110,-0.850,-0.190
6111,-0.865,-0.190
6112,-0.865,-0.190
6113,-0.885,-0.195
6114,-0.885,-0.210
6115,-0.885,-0.215
6116,-0.895,-0.210
6117,-0.900,-0.230
6118,-0.905,-0.225
6119,-0.900,-0.220
6120,-0.915,-0.225
6121,-0.915,-0.220
6122,-0.910,-0.200
6123,-0.900,-0.200
6124,-0.905,-0.180
6125,-0.905,-0.205
6126,-0.900,-0.210
6127,-0.895,-0.205
6128,-0.910,-0.220
6129,-0.915,-0.225
6130,-0.920,-0.225
6131,-0.935,-0.220
6132,-0.930,-0.220
6133,-0.920,-0.215
6134,-0.915,-0.205
6135,-0.920,-0.210
6136,-0.890,-0.190
6137,-0.890,-0.210
6138,-0.905,-0.205
6139,-0.910,-0.215
6140,-0.910,-0.210
6141,-0.905,-0.220
6142,-0.920,-0.225
6143,-0.910,-0.205
6144,-0.900,-0.205
6145,-0.885,-0.190
6146,-0.860,-0.175
6147,-0.845,-0.155
6148,-0.820,-0.145
6149,-0.820,-0.170
6150,-0.830,-0.185
6151,-0.820,-0.220
6152,-0.800,-0.290
6153,-0.785,-0.350
6154,-0.705,-0.425
6155,-0.610,-0.520
6156,-0.445,-0.600
6157,-0.185,-0.655
6158,0.165,-0.660
6159,0.590,-0.630
6160,1.025,-0.550
6161,1.350,-0.470
6162,1.475,-0.365
6163,1.315,-0.275
6164,0.815,-0.230
6165,0.175,-0.210
6166,-0.465,-0.235
6167,-1.105,-0.240
6168,-1.655,-0.270
6169,-1.680,-0.275
6170,-1.470,-0.270
6171,-1.200,-0.245
6172,-0.930,-0.185
6173,-0.745,-0.175
6174,-0.660,-0.155
6175,-0.645,-0.160
6176,-0.690,-0.170
6177,-0.750,-0.180
6178,-0.810,-0.205
6179,-0.845,-0.200
6180,-0.855,-0.200
6181,-0.845,-0.185
6182,-0.825,-0.165
6183,-0.805,-0.160
6184,-0.790,-0.160
6185,-0.785,-0.165
6186,-0.795,-0.165
6187,-0.780,-0.180
6188,-0.805,-0.180
6189,-0.805,-0.200
6190,-0.800,-0.200
6191,-0.815,-0.190
6192,-0.820,-0.190
6193,-0.805,-0.190
6194,-0.780,-0.170
6195,-0.790,-0.175
6196,-0.775,-0.180
6197,-0.765,-0.185
6198,-0.795,-0.180
6199,-0.795,-0.185
6200,-0.800,-0.195
6201,-0.790,-0.205
6202,-0.795,-0.200
6203,-0.795,-0.200
6204,-0.795,-0.205
6205,-0.805,-0.185
6206,-0.790,-0.190
6207,-0.780,-0.185
6208,-0.770,-0.185
6209,-0.755,-0.190
6210,-0.765,-0.190
6211,-0.775,-0.190
6212,-0.780,-0.200
6213,-0.780,-0.215
6214,-0.785,-0.210
6215,-0.780,-0.210
6216,-0.780,-0.200
6217,-0.780,-0.205
6218,-0.765,-0.200
6219,-0.775,-0.205
6220,-0.755,-0.185
6221,-0.755,-0.190
6222,-0.760,-0.195
6223,-0.770,-0.215
6224,-0.765,-0.215
6225,-0.770,-0.215
6226,-0.770,-0.225
6227,-0.765,-0.215
6228,-0.765,-0.210
6229,-0.760,-0.205
6230,-0.750,-0.200
6231,-0.760,-0.190
6232,-0.735,-0.200
6233,-0.740,-0.205
6234,-0.735,-0.205
6235,-0.735,-0.210
6236,-0.730,-0.225
6237,-0.740,-0.230
6238,-0.745,-0.230
6239,-0.745,-0.220
6240,-0.745,-0.215
6241,-0.735,-0.205
6242,-0.735,-0.195
6243,-0.725,-0.195
6244,-0.725,-0.195
6245,-0.700,-0.195
6246,-0.700,-0.200
6247,-0.700,-0.220
6248,-0.705,-0.215
6249,-0.705,-0.225
6250,-0.710,-0.230
6251,-0.710,-0.225
6252,-0.710,-0.215
6253,-0.710,-0.215
6254,-0.690,-0.215
6255,-0.695,-0.210
6256,-0.665,-0.205
6257,-0.640,-0.200
6258,-0.655,-0.205
6259,-0.640,-0.215
6260,-0.640,-0.225
6261,-0.645,-0.225
6262,-0.650,-0.235
6263,-0.655,-0.240
6264,-0.655,-0.240
6265,-0.650,-0.220
6266,-0.640,-0.230
6267,-0.640,-0.215
6268,-0.625,-0.210
6269,-0.615,-0.215
6270,-0.620,-0.225
6271,-0.610,-0.230
6272,-0.615,-0.250
6273,-0.620,-0.250
6274,-0.610,-0.255
6275,-0.625,-0.240
6276,-0.630,-0.240
6277,-0.620,-0.235
6278,-0.615,-0.230
6279,-0.595,-0.220
6280,-0.600,-0.225
6281,-0.595,-0.220
6282,-0.595,-0.220
6283,-0.590,-0.225
6284,-0.610,-0.235
6285,-0.615,-0.240
6286,-0.625,-0.245
6287,-0.640,-0.240
6288,-0.645,-0.225
6289,-0.645,-0.225
6290,-0.655,-0.210
6291,-0.675,-0.210
6292,-0.685,-0.200
6293,-0.695,-0.205
6294,-0.705,-0.210
6295,-0.725,-0.220
6296,-0.740,-0.220
6297,-0.760,-0.220
6298,-0.785,-0.235
6299,-0.810,-0.220
6300,-0.825,-0.220
6301,-0.835,-0.215
6302,-0.830,-0.200
6303,-0.840,-0.195
6304,-0.855,-0.195
6305,-0.850,-0.200
6306,-0.865,-0.195
6307,-0.865,-0.205
6308,-0.875,-0.215
6309,-0.890,-0.215
6310,-0.890,-0.225
6311,-0.900,-0.215
6312,-0.910,-0.205
6313,-0.910,-0.195
6314,-0.905,-0.205
6315,-0.890,-0.185
6316,-0.885,-0.185
6317,-0.885,-0.185
6318,-0.885,-0.200
6319,-0.890,-0.200
6320,-0.890,-0.210
6321,-0.890,-0.220
6322,-0.900,-0.215
6323,-0.905,-0.210
6324,-0.900,-0.225
6325,-0.905,-0.195
6326,-0.890,-0.205
6327,-0.890,-0.195
6328,-0.885,-0.180
6329,-0.865,-0.195
6330,-0.870,-0.205
6331,-0.865,-0.205
6332,-0.875,-0.215
6333,-0.865,-0.215
6334,-0.885,-0.220
6335,-0.875,-0.210
6336,-0.875,-0.210
6337,-0.865,-0.205
6338,-0.860,-0.200
6339,-0.840,-0.205
6340,-0.845,-0.190
6341,-0.835,-0.195
6342,-0.840,-0.195
6343,-0.840,-0.205
6344,-0.840,-0.215
6345,-0.840,-0.225
6346,-0.845,-0.235
6347,-0.845,-0.230
6348,-0.840,-0.215
6349,-0.845,-0.220
6350,-0.840,-0.210
6351,-0.845,-0.200
6352,-0.835,-0.210
6353,-0.835,-0.210
6354,-0.830,-0.210
6355,-0.845,-0.225
6356,-0.845,-0.225
6357,-0.860,-0.230
6358,-0.860,-0.230
6359,-0.855,-0.250
6360,-0.855,-0.230
6361,-0.850,-0.230
6362,-0.855,-0.215
6363,-0.855,-0.215
6364,-0.840,-0.220
6365,-0.840,-0.225
6366,-0.845,-0.220
6367,-0.855,-0.230
6368,-0.845,-0.240
6369,-0.850,-0.250
6370,-0.865,-0.245
6371,-0.875,-0.245
6372,-0.875,-0.230
6373,-0.870,-0.230
6374,-0.865,-0.220
6375,-0.855,-0.225
6376,-0.860,-0.215
6377,-0.845,-0.225
6378,-0.845,-0.210
6379,-0.870,-0.230
