'sample interval','MLII','V1'
'0.00277778 sec','mV','mV'
0,-0.200,0.075
1,-0.200,0.075
2,-0.200,0.075
3,-0.200,0.075
4,-0.200,0.075
5,-0.200,0.075
6,-0.200,0.075
7,-0.200,0.075
8,-0.185,0.075
9,-0.185,0.080
10,-0.190,0.075
11,-0.195,0.060
12,-0.210,0.060
13,-0.210,0.060
14,-0.195,0.065
15,-0.190,0.065
16,-0.180,0.075
17,-0.180,0.080
18,-0.175,0.090
19,-0.165,0.085
20,-0.170,0.085
21,-0.175,0.065
22,-0.185,0.060
23,-0.195,0.065
24,-0.195,0.065
25,-0.225,0.055
26,-0.225,0.060
27,-0.225,0.075
28,-0.210,0.075
29,-0.215,0.085
30,-0.195,0.085
31,-0.205,0.085
32,-0.210,0.080
33,-0.215,0.070
34,-0.225,0.065
35,-0.230,0.065
36,-0.240,0.060
37,-0.245,0.060
38,-0.260,0.055
39,-0.250,0.065
40,-0.240,0.065
41,-0.235,0.085
42,-0.245,0.090
43,-0.245,0.080
44,-0.245,0.080
45,-0.260,0.070
46,-0.255,0.060
47,-0.260,0.060
48,-0.265,0.060
49,-0.260,0.065
50,-0.275,0.065
51,-0.265,0.060
52,-0.265,0.070
53,-0.270,0.080
54,-0.275,0.095
55,-0.265,0.080
56,-0.270,0.085
57,-0.275,0.070
58,-0.275,0.060
59,-0.285,0.060
60,-0.280,0.055
61,-0.285,0.055
62,-0.275,0.065
63,-0.275,0.075
64,-0.270,0.075
65,-0.265,0.095
66,-0.265,0.085
67,-0.265,0.080
68,-0.270,0.065
69,-0.290,0.075
70,-0.275,0.080
71,-0.280,0.070
72,-0.295,0.065
73,-0.285,0.065
74,-0.295,0.070
75,-0.295,0.075
76,-0.285,0.085
77,-0.290,0.085
78,-0.280,0.085
79,-0.270,0.085
80,-0.285,0.075
81,-0.275,0.075
82,-0.280,0.060
83,-0.285,0.055
84,-0.290,0.050
85,-0.295,0.045
86,-0.295,0.055
87,-0.300,0.065
88,-0.290,0.085
89,-0.290,0.075
90,-0.290,0.080
91,-0.275,0.085
92,-0.280,0.085
93,-0.280,0.070
94,-0.285,0.065
95,-0.300,0.070
96,-0.300,0.060
97,-0.305,0.075
98,-0.295,0.070
99,-0.295,0.080
100,-0.290,0.085
101,-0.280,0.090
102,-0.285,0.085
103,-0.280,0.100
104,-0.265,0.105
105,-0.285,0.110
106,-0.285,0.105
107,-0.275,0.105
108,-0.275,0.125
109,-0.270,0.140
110,-0.260,0.155
111,-0.260,0.160
112,-0.230,0.160
113,-0.210,0.170
114,-0.205,0.155
115,-0.200,0.140
116,-0.190,0.135
117,-0.180,0.120
118,-0.185,0.105
119,-0.160,0.095
120,-0.145,0.085
121,-0.135,0.075
122,-0.105,0.080
123,-0.095,0.090
124,-0.100,0.080
125,-0.100,0.080
126,-0.110,0.075
127,-0.125,0.080
128,-0.125,0.060
129,-0.140,0.050
130,-0.155,0.045
131,-0.170,0.045
132,-0.180,0.050
133,-0.200,0.050
134,-0.205,0.055
135,-0.215,0.060
136,-0.235,0.060
137,-0.250,0.065
138,-0.255,0.070
139,-0.275,0.060
140,-0.290,0.055
141,-0.285,0.050
142,-0.300,0.045
143,-0.305,0.030
144,-0.310,0.030
145,-0.315,0.035
146,-0.315,0.030
147,-0.320,0.050
148,-0.310,0.055
149,-0.300,0.065
150,-0.300,0.065
151,-0.300,0.060
152,-0.295,0.060
153,-0.295,0.045
154,-0.295,0.045
155,-0.300,0.040
156,-0.310,0.050
157,-0.320,0.035
158,-0.315,0.050
159,-0.310,0.065
160,-0.305,0.060
161,-0.285,0.065
162,-0.290,0.085
163,-0.285,0.075
164,-0.290,0.095
165,-0.300,0.110
166,-0.315,0.140
167,-0.340,0.175
168,-0.375,0.195
169,-0.430,0.200
170,-0.500,0.195
171,-0.550,0.175
172,-0.545,0.140
173,-0.480,0.090
174,-0.285,0.030
175,-0.005,-0.020
176,0.365,-0.055
177,0.760,-0.085
178,1.120,-0.105
179,1.395,-0.125
180,1.520,-0.115
181,1.430,-0.105
182,1.140,-0.105
183,0.675,-0.070
184,0.175,-0.010
185,-0.195,0.110
186,-0.420,0.265
187,-0.500,0.435
188,-0.485,0.590
189,-0.470,0.720
190,-0.480,0.805
191,-0.565,0.860
192,-0.665,0.895
193,-0.780,0.930
194,-0.915,0.960
195,-1.010,1.000
196,-1.060,1.005
197,-1.090,0.990
198,-1.075,0.930
199,-1.035,0.870
200,-0.995,0.795
201,-0.910,0.695
202,-0.830,0.600
203,-0.750,0.510
204,-0.670,0.405
205,-0.575,0.310
206,-0.505,0.245
207,-0.440,0.195
208,-0.380,0.175
209,-0.350,0.150
210,-0.325,0.140
211,-0.325,0.130
212,-0.310,0.125
213,-0.320,0.105
214,-0.300,0.105
215,-0.305,0.090
216,-0.295,0.070
217,-0.305,0.070
218,-0.300,0.065
219,-0.290,0.060
220,-0.270,0.070
221,-0.250,0.070
222,-0.240,0.060
223,-0.245,0.065
224,-0.250,0.065
225,-0.245,0.050
226,-0.250,0.040
227,-0.245,0.035
228,-0.255,0.040
229,-0.255,0.025
230,-0.255,0.045
231,-0.225,0.045
232,-0.230,0.050
233,-0.220,0.065
234,-0.205,0.050
235,-0.210,0.050
236,-0.210,0.050
237,-0.210,0.035
238,-0.205,0.030
239,-0.215,0.020
240,-0.215,0.035
241,-0.210,0.015
242,-0.205,0.025
243,-0.200,0.040
244,-0.190,0.030
245,-0.180,0.035
246,-0.175,0.050
247,-0.170,0.035
248,-0.175,0.035
249,-0.170,0.025
250,-0.175,0.030
251,-0.175,0.020
252,-0.155,0.010
253,-0.160,0.010
254,-0.155,0.000
255,-0.145,0.005
256,-0.130,0.010
257,-0.115,0.020
258,-0.105,0.020
259,-0.095,0.015
260,-0.080,0.010
261,-0.085,-0.010
262,-0.075,-0.015
263,-0.075,-0.010
264,-0.080,-0.025
265,-0.070,-0.025
266,-0.060,-0.025
267,-0.045,-0.015
268,-0.050,-0.010
269,-0.010,-0.010
270,-0.010,0.000
271,0.005,-0.010
272,0.010,-0.010
273,0.010,-0.020
274,0.015,-0.030
275,0.030,-0.050
276,0.040,-0.055
277,0.040,-0.060
278,0.060,-0.055
279,0.075,-0.045
280,0.095,-0.050
281,0.110,-0.050
282,0.125,-0.050
283,0.150,-0.070
284,0.155,-0.060
285,0.180,-0.075
286,0.170,-0.070
287,0.185,-0.090
288,0.190,-0.085
289,0.210,-0.100
290,0.210,-0.095
291,0.220,-0.090
292,0.235,-0.085
293,0.250,-0.085
294,0.270,-0.090
295,0.280,-0.080
296,0.285,-0.080
297,0.280,-0.090
298,0.295,-0.095
299,0.280,-0.115
300,0.295,-0.115
301,0.290,-0.110
302,0.300,-0.095
303,0.305,-0.085
304,0.320,-0.065
305,0.325,-0.065
306,0.325,-0.065
307,0.325,-0.060
308,0.315,-0.075
309,0.320,-0.070
310,0.305,-0.080
311,0.290,-0.070
312,0.280,-0.070
313,0.255,-0.055
314,0.240,-0.035
315,0.235,-0.015
316,0.210,-0.005
317,0.190,0.010
318,0.185,0.020
319,0.165,0.020
320,0.130,0.035
321,0.115,0.045
322,0.095,0.055
323,0.070,0.045
324,0.045,0.045
325,0.020,0.065
326,0.005,0.075
327,-0.020,0.095
328,-0.025,0.090
329,-0.030,0.105
330,-0.040,0.120
331,-0.055,0.115
332,-0.065,0.125
333,-0.075,0.115
334,-0.095,0.120
335,-0.125,0.115
336,-0.130,0.120
337,-0.145,0.115
338,-0.140,0.130
339,-0.150,0.140
340,-0.150,0.145
341,-0.145,0.145
342,-0.140,0.150
343,-0.145,0.145
344,-0.150,0.155
345,-0.160,0.150
346,-0.165,0.135
347,-0.180,0.135
348,-0.180,0.140
349,-0.180,0.135
350,-0.175,0.140
351,-0.165,0.140
352,-0.170,0.155
353,-0.170,0.155
354,-0.145,0.155
355,-0.155,0.155
356,-0.155,0.155
357,-0.155,0.140
358,-0.180,0.145
359,-0.165,0.130
360,-0.185,0.135
361,-0.190,0.135
362,-0.175,0.150
363,-0.175,0.145
364,-0.160,0.135
365,-0.160,0.150
366,-0.160,0.155
367,-0.160,0.155
368,-0.160,0.150
369,-0.170,0.140
370,-0.175,0.135
371,-0.185,0.115
372,-0.190,0.105
373,-0.190,0.110
374,-0.190,0.125
375,-0.175,0.140
376,-0.185,0.135
377,-0.170,0.135
378,-0.160,0.145
379,-0.160,0.135
380,-0.175,0.150
381,-0.175,0.130
382,-0.180,0.140
383,-0.195,0.130
384,-0.200,0.115
385,-0.210,0.125
386,-0.220,0.115
387,-0.215,0.125
388,-0.210,0.135
389,-0.210,0.135
390,-0.210,0.125
391,-0.215,0.130
392,-0.215,0.145
393,-0.210,0.130
394,-0.220,0.115
395,-0.225,0.110
396,-0.225,0.105
397,-0.230,0.110
398,-0.225,0.115
399,-0.230,0.120
400,-0.235,0.120
401,-0.220,0.135
402,-0.205,0.140
403,-0.220,0.135
404,-0.220,0.125
405,-0.215,0.120
406,-0.220,0.115
407,-0.230,0.090
408,-0.240,0.095
409,-0.245,0.100
410,-0.235,0.105
411,-0.225,0.110
412,-0.230,0.120
413,-0.220,0.110
414,-0.210,0.120
415,-0.210,0.115
416,-0.225,0.120
417,-0.235,0.110
418,-0.230,0.105
419,-0.225,0.090
420,-0.245,0.090
421,-0.250,0.095
422,-0.235,0.105
423,-0.230,0.105
424,-0.230,0.120
425,-0.225,0.110
426,-0.225,0.115
427,-0.220,0.115
428,-0.220,0.115
429,-0.220,0.120
430,-0.240,0.110
431,-0.230,0.100
432,-0.240,0.095
433,-0.240,0.095
434,-0.240,0.095
435,-0.235,0.115
436,-0.230,0.115
437,-0.215,0.115
438,-0.210,0.105
439,-0.205,0.115
440,-0.210,0.115
441,-0.210,0.110
442,-0.215,0.105
443,-0.215,0.105
444,-0.230,0.090
445,-0.230,0.110
446,-0.235,0.100
447,-0.230,0.125
448,-0.220,0.125
449,-0.220,0.155
450,-0.210,0.165
451,-0.205,0.160
452,-0.210,0.175
453,-0.200,0.170
454,-0.200,0.170
455,-0.190,0.175
456,-0.190,0.175
457,-0.190,0.175
458,-0.180,0.185
459,-0.180,0.185
460,-0.165,0.180
461,-0.150,0.175
462,-0.135,0.170
463,-0.140,0.170
464,-0.105,0.150
465,-0.100,0.135
466,-0.080,0.135
467,-0.070,0.125
468,-0.045,0.100
469,-0.050,0.110
470,-0.045,0.095
471,-0.055,0.095
472,-0.070,0.105
473,-0.070,0.105
474,-0.085,0.115
475,-0.095,0.095
476,-0.095,0.100
477,-0.105,0.105
478,-0.100,0.100
479,-0.100,0.105
480,-0.140,0.110
481,-0.150,0.095
482,-0.170,0.085
483,-0.190,0.090
484,-0.190,0.095
485,-0.215,0.100
486,-0.215,0.095
487,-0.220,0.090
488,-0.240,0.095
489,-0.240,0.090
490,-0.245,0.080
491,-0.255,0.070
492,-0.260,0.075
493,-0.270,0.075
494,-0.260,0.095
495,-0.265,0.085
496,-0.270,0.090
497,-0.275,0.120
498,-0.275,0.115
499,-0.270,0.105
500,-0.270,0.095
501,-0.280,0.095
502,-0.275,0.080
503,-0.280,0.075
504,-0.275,0.080
505,-0.270,0.095
506,-0.260,0.095
507,-0.255,0.110
508,-0.255,0.110
509,-0.245,0.120
510,-0.250,0.125
511,-0.245,0.125
512,-0.250,0.140
513,-0.255,0.145
514,-0.270,0.170
515,-0.305,0.205
516,-0.335,0.220
517,-0.385,0.235
518,-0.460,0.215
519,-0.500,0.205
520,-0.495,0.145
521,-0.380,0.075
522,-0.145,0.015
523,0.215,-0.040
524,0.630,-0.075
525,1.050,-0.105
526,1.395,-0.100
527,1.585,-0.075
528,1.540,-0.060
529,1.215,-0.050
530,0.685,-0.015
531,0.140,0.065
532,-0.295,0.190
533,-0.520,0.355
534,-0.590,0.535
535,-0.565,0.690
536,-0.530,0.815
537,-0.530,0.880
538,-0.585,0.920
539,-0.665,0.945
540,-0.795,0.960
541,-0.925,0.990
542,-1.025,1.000
543,-1.065,0.990
544,-1.060,0.970
545,-1.015,0.925
546,-0.930,0.860
547,-0.845,0.775
548,-0.760,0.675
549,-0.665,0.560
550,-0.590,0.425
551,-0.500,0.315
552,-0.435,0.240
553,-0.385,0.175
554,-0.345,0.140
555,-0.310,0.135
556,-0.285,0.130
557,-0.265,0.125
558,-0.240,0.120
559,-0.230,0.115
560,-0.235,0.100
561,-0.225,0.085
562,-0.215,0.075
563,-0.220,0.060
564,-0.225,0.045
565,-0.225,0.050
566,-0.210,0.040
567,-0.215,0.060
568,-0.190,0.050
569,-0.185,0.050
570,-0.175,0.060
571,-0.170,0.055
572,-0.175,0.055
573,-0.175,0.045
574,-0.170,0.030
575,-0.185,0.020
576,-0.185,0.025
577,-0.195,0.030
578,-0.190,0.025
579,-0.190,0.035
580,-0.170,0.030
581,-0.165,0.040
582,-0.150,0.040
583,-0.160,0.035
584,-0.150,0.040
585,-0.140,0.025
586,-0.160,0.025
587,-0.160,0.010
588,-0.155,0.000
589,-0.150,-0.015
590,-0.160,0.000
591,-0.150,-0.005
592,-0.125,0.005
593,-0.120,0.020
594,-0.105,0.025
595,-0.085,0.025
596,-0.085,0.005
597,-0.070,0.000
598,-0.080,-0.010
599,-0.085,-0.010
600,-0.085,-0.020
601,-0.105,-0.010
602,-0.085,-0.005
603,-0.080,-0.020
604,-0.060,-0.005
605,-0.045,-0.015
606,-0.030,0.000
607,-0.015,0.000
608,-0.020,-0.010
609,-0.010,-0.005
610,-0.025,-0.020
611,-0.020,-0.045
612,-0.025,-0.055
613,-0.005,-0.045
614,0.000,-0.055
615,0.020,-0.040
616,0.030,-0.045
617,0.045,-0.040
618,0.055,-0.025
619,0.070,-0.030
620,0.090,-0.040
621,0.095,-0.055
622,0.095,-0.075
623,0.110,-0.090
624,0.120,-0.070
625,0.130,-0.090
626,0.135,-0.080
627,0.150,-0.075
628,0.160,-0.080
629,0.175,-0.090
630,0.205,-0.090
631,0.220,-0.090
632,0.230,-0.100
633,0.240,-0.120
634,0.240,-0.120
635,0.240,-0.120
636,0.245,-0.120
637,0.245,-0.130
638,0.245,-0.115
639,0.270,-0.120
640,0.300,-0.110
641,0.300,-0.120
642,0.305,-0.115
643,0.315,-0.120
644,0.310,-0.120
645,0.320,-0.135
646,0.320,-0.140
647,0.330,-0.140
648,0.330,-0.150
649,0.335,-0.145
650,0.340,-0.130
651,0.335,-0.120
652,0.345,-0.115
653,0.355,-0.110
654,0.355,-0.105
655,0.345,-0.095
656,0.345,-0.095
657,0.340,-0.100
658,0.315,-0.090
659,0.300,-0.110
660,0.265,-0.105
661,0.245,-0.095
662,0.235,-0.080
663,0.215,-0.060
664,0.195,-0.040
665,0.200,-0.035
666,0.190,-0.020
667,0.170,-0.010
668,0.155,-0.005
669,0.120,0.005
670,0.100,0.005
671,0.065,0.010
672,0.040,0.010
673,0.010,0.020
674,-0.010,0.040
675,-0.015,0.055
676,-0.020,0.060
677,-0.035,0.070
678,-0.030,0.090
679,-0.040,0.090
680,-0.080,0.080
681,-0.080,0.090
682,-0.110,0.085
683,-0.130,0.080
684,-0.145,0.085
685,-0.165,0.100
686,-0.155,0.100
687,-0.155,0.120
688,-0.145,0.145
689,-0.165,0.120
690,-0.160,0.130
691,-0.160,0.125
692,-0.155,0.130
693,-0.155,0.120
694,-0.175,0.115
695,-0.175,0.120
696,-0.175,0.110
697,-0.180,0.110
698,-0.175,0.120
699,-0.180,0.140
700,-0.185,0.135
701,-0.180,0.150
702,-0.160,0.145
703,-0.160,0.140
704,-0.160,0.135
705,-0.165,0.125
706,-0.160,0.120
707,-0.190,0.115
708,-0.185,0.125
709,-0.185,0.110
710,-0.175,0.120
711,-0.165,0.125
712,-0.160,0.135
713,-0.150,0.135
714,-0.145,0.140
715,-0.160,0.130
716,-0.160,0.130
717,-0.160,0.130
718,-0.165,0.110
719,-0.180,0.100
720,-0.170,0.095
721,-0.175,0.115
722,-0.190,0.095
723,-0.185,0.110
724,-0.195,0.110
725,-0.195,0.110
726,-0.185,0.115
727,-0.185,0.115
728,-0.165,0.100
729,-0.160,0.105
730,-0.150,0.095
731,-0.165,0.100
732,-0.180,0.095
733,-0.205,0.085
734,-0.210,0.085
735,-0.200,0.095
736,-0.200,0.105
737,-0.190,0.115
738,-0.165,0.120
739,-0.170,0.120
740,-0.170,0.120
741,-0.180,0.115
742,-0.205,0.090
743,-0.220,0.090
744,-0.225,0.085
745,-0.240,0.090
746,-0.210,0.080
747,-0.205,0.100
748,-0.195,0.100
749,-0.200,0.105
750,-0.195,0.110
751,-0.205,0.115
752,-0.210,0.105
753,-0.225,0.085
754,-0.225,0.085
755,-0.220,0.070
756,-0.230,0.080
757,-0.220,0.080
758,-0.205,0.085
759,-0.200,0.085
760,-0.190,0.085
761,-0.205,0.100
762,-0.215,0.100
763,-0.210,0.095
764,-0.215,0.100
765,-0.230,0.095
766,-0.225,0.095
767,-0.225,0.085
768,-0.220,0.075
769,-0.215,0.085
770,-0.215,0.095
771,-0.225,0.100
772,-0.220,0.100
773,-0.210,0.115
774,-0.215,0.130
775,-0.215,0.135
776,-0.210,0.155
777,-0.210,0.145
778,-0.215,0.160
779,-0.215,0.150
780,-0.210,0.150
781,-0.195,0.140
782,-0.190,0.145
783,-0.155,0.145
784,-0.130,0.140
785,-0.125,0.145
786,-0.105,0.145
787,-0.105,0.145
788,-0.120,0.140
789,-0.105,0.125
790,-0.115,0.120
791,-0.085,0.110
792,-0.055,0.095
793,-0.035,0.095
794,-0.030,0.095
795,-0.035,0.100
796,-0.025,0.100
797,-0.040,0.095
798,-0.050,0.085
799,-0.055,0.090
800,-0.075,0.080
801,-0.090,0.075
802,-0.100,0.085
803,-0.135,0.075
804,-0.130,0.070
805,-0.165,0.070
806,-0.175,0.070
807,-0.190,0.075
808,-0.210,0.065
809,-0.235,0.070
810,-0.235,0.075
811,-0.255,0.080
812,-0.245,0.080
813,-0.245,0.055
814,-0.255,0.050
815,-0.255,0.055
816,-0.270,0.045
817,-0.275,0.060
818,-0.270,0.055
819,-0.270,0.060
820,-0.250,0.065
821,-0.255,0.070
822,-0.245,0.085
823,-0.240,0.070
824,-0.240,0.080
825,-0.250,0.070
826,-0.250,0.070
827,-0.245,0.060
828,-0.245,0.065
829,-0.260,0.070
830,-0.255,0.070
831,-0.260,0.085
832,-0.260,0.090
833,-0.260,0.105
834,-0.245,0.125
835,-0.240,0.150
836,-0.245,0.180
837,-0.280,0.195
838,-0.350,0.195
839,-0.435,0.175
840,-0.470,0.125
841,-0.435,0.070
842,-0.285,0.010
843,0.030,-0.060
844,0.435,-0.085
845,0.870,-0.075
846,1.270,-0.015
847,1.515,0.020
848,1.520,0.055
849,1.205,0.050
850,0.665,0.065
851,0.075,0.105
852,-0.380,0.195
853,-0.625,0.340
854,-0.695,0.490
855,-0.680,0.645
856,-0.615,0.760
857,-0.610,0.840
858,-0.635,0.910
859,-0.715,0.945
860,-0.820,0.975
861,-0.900,0.990
862,-0.960,1.000
863,-0.975,0.995
864,-0.970,0.955
865,-0.945,0.895
866,-0.900,0.845
867,-0.825,0.785
868,-0.745,0.700
869,-0.660,0.610
870,-0.555,0.495
871,-0.480,0.375
872,-0.400,0.270
873,-0.340,0.190
874,-0.305,0.135
875,-0.275,0.115
876,-0.265,0.100
877,-0.270,0.095
878,-0.240,0.100
879,-0.225,0.090
880,-0.215,0.090
881,-0.200,0.075
882,-0.190,0.080
883,-0.180,0.070
884,-0.185,0.055
885,-0.165,0.050
886,-0.175,0.045
887,-0.180,0.045
888,-0.185,0.035
889,-0.180,0.025
890,-0.180,0.035
891,-0.170,0.035
892,-0.165,0.035
893,-0.160,0.035
894,-0.145,0.040
895,-0.135,0.050
896,-0.140,0.045
897,-0.140,0.020
898,-0.140,0.015
899,-0.135,0.010
900,-0.145,0.010
901,-0.150,0.000
902,-0.140,-0.005
903,-0.130,0.005
904,-0.115,0.020
905,-0.110,0.010
906,-0.100,0.030
907,-0.095,0.020
908,-0.095,0.015
909,-0.100,0.005
910,-0.105,-0.005
911,-0.100,-0.005
912,-0.100,-0.020
913,-0.105,-0.020
914,-0.095,-0.010
915,-0.085,-0.010
916,-0.090,0.005
917,-0.080,0.010
918,-0.080,0.005
919,-0.055,-0.005
920,-0.050,0.000
921,-0.040,-0.010
922,-0.035,-0.010
923,-0.045,-0.015
924,-0.050,-0.030
925,-0.050,-0.035
926,-0.050,-0.035
927,-0.020,-0.040
928,-0.015,-0.020
929,-0.005,-0.015
930,0.000,-0.015
931,0.015,-0.020
932,0.000,-0.025
933,0.005,-0.045
934,0.010,-0.045
935,0.035,-0.055
936,0.035,-0.060
937,0.025,-0.060
938,0.035,-0.065
939,0.040,-0.070
940,0.065,-0.050
941,0.060,-0.060
942,0.075,-0.060
943,0.085,-0.070
944,0.085,-0.085
945,0.100,-0.100
946,0.105,-0.105
947,0.105,-0.110
948,0.105,-0.125
949,0.125,-0.120
950,0.115,-0.115
951,0.120,-0.125
952,0.150,-0.105
953,0.160,-0.110
954,0.175,-0.110
955,0.180,-0.120
956,0.200,-0.110
957,0.200,-0.120
958,0.195,-0.130
959,0.200,-0.145
960,0.200,-0.145
961,0.205,-0.155
962,0.210,-0.150
963,0.230,-0.155
964,0.240,-0.140
965,0.255,-0.145
966,0.260,-0.145
967,0.265,-0.125
968,0.275,-0.135
969,0.280,-0.135
970,0.285,-0.140
971,0.295,-0.145
972,0.295,-0.150
973,0.290,-0.145
974,0.285,-0.130
975,0.285,-0.125
976,0.280,-0.110
977,0.280,-0.100
978,0.280,-0.080
979,0.275,-0.080
980,0.255,-0.060
981,0.245,-0.060
982,0.225,-0.045
983,0.195,-0.055
984,0.175,-0.045
985,0.155,-0.030
986,0.145,-0.020
987,0.120,0.000
988,0.110,0.015
989,0.090,0.015
990,0.080,0.040
991,0.055,0.055
992,0.020,0.070
993,0.030,0.070
994,0.005,0.065
995,-0.015,0.070
996,-0.040,0.075
997,-0.055,0.070
998,-0.075,0.075
999,-0.100,0.095
1000,-0.115,0.110
1001,-0.105,0.105
1002,-0.115,0.110
1003,-0.120,0.120
1004,-0.135,0.115
1005,-0.140,0.105
1006,-0.145,0.100
1007,-0.150,0.095
1008,-0.155,0.090
1009,-0.150,0.100
1010,-0.155,0.100
1011,-0.150,0.105
1012,-0.145,0.115
1013,-0.140,0.105
1014,-0.125,0.115
1015,-0.135,0.120
1016,-0.140,0.110
1017,-0.130,0.110
1018,-0.140,0.100
1019,-0.140,0.090
1020,-0.145,0.095
1021,-0.145,0.095
1022,-0.145,0.100
1023,-0.130,0.100
1024,-0.125,0.095
1025,-0.110,0.095
1026,-0.110,0.085
1027,-0.110,0.090
1028,-0.110,0.095
1029,-0.115,0.100
1030,-0.125,0.080
1031,-0.125,0.070
1032,-0.130,0.075
1033,-0.140,0.070
1034,-0.130,0.075
1035,-0.125,0.085
1036,-0.125,0.075
1037,-0.115,0.095
1038,-0.105,0.075
1039,-0.105,0.075
1040,-0.115,0.070
1041,-0.125,0.075
1042,-0.120,0.055
1043,-0.150,0.050
1044,-0.150,0.050
1045,-0.165,0.065
1046,-0.160,0.060
1047,-0.145,0.065
1048,-0.140,0.075
1049,-0.140,0.075
1050,-0.135,0.070
1051,-0.140,0.075
1052,-0.155,0.075
1053,-0.165,0.060
1054,-0.170,0.060
1055,-0.190,0.050
1056,-0.190,0.045
1057,-0.195,0.060
1058,-0.190,0.070
1059,-0.185,0.065
1060,-0.185,0.075
1061,-0.185,0.080
1062,-0.185,0.075
1063,-0.180,0.085
1064,-0.195,0.070
1065,-0.190,0.060
1066,-0.200,0.050
1067,-0.205,0.050
1068,-0.220,0.065
1069,-0.215,0.055
1070,-0.215,0.075
1071,-0.215,0.075
1072,-0.210,0.080
1073,-0.210,0.070
1074,-0.215,0.070
1075,-0.200,0.065
1076,-0.210,0.070
1077,-0.215,0.055
1078,-0.215,0.055
1079,-0.225,0.060
1080,-0.240,0.055
1081,-0.235,0.065
1082,-0.235,0.060
1083,-0.240,0.065
1084,-0.230,0.065
1085,-0.220,0.075
1086,-0.215,0.065
1087,-0.230,0.055
1088,-0.210,0.065
1089,-0.210,0.060
1090,-0.220,0.065
1091,-0.240,0.065
1092,-0.230,0.080
1093,-0.225,0.080
1094,-0.220,0.100
1095,-0.210,0.125
1096,-0.205,0.135
1097,-0.180,0.155
1098,-0.170,0.170
1099,-0.170,0.165
1100,-0.180,0.145
1101,-0.180,0.155
1102,-0.165,0.130
1103,-0.160,0.125
1104,-0.150,0.100
1105,-0.140,0.095
1106,-0.125,0.095
1107,-0.100,0.090
1108,-0.075,0.090
1109,-0.050,0.085
1110,-0.025,0.085
1111,-0.030,0.080
1112,-0.020,0.080
1113,-0.050,0.070
1114,-0.065,0.050
1115,-0.085,0.035
1116,-0.090,0.030
1117,-0.115,0.050
1118,-0.130,0.065
1119,-0.145,0.075
1120,-0.145,0.070
1121,-0.155,0.065
1122,-0.165,0.050
1123,-0.190,0.050
1124,-0.200,0.035
1125,-0.220,0.025
1126,-0.245,0.020
1127,-0.260,0.020
1128,-0.255,0.010
1129,-0.260,0.030
1130,-0.255,0.030
1131,-0.255,0.025
1132,-0.250,0.030
1133,-0.250,0.040
1134,-0.245,0.040
1135,-0.255,0.045
1136,-0.255,0.040
1137,-0.260,0.040
1138,-0.265,0.030
1139,-0.275,0.020
1140,-0.275,0.035
1141,-0.270,0.035
1142,-0.275,0.040
1143,-0.270,0.065
1144,-0.265,0.050
1145,-0.255,0.075
1146,-0.250,0.055
1147,-0.265,0.060
1148,-0.260,0.050
1149,-0.270,0.060
1150,-0.270,0.065
1151,-0.285,0.075
1152,-0.295,0.115
1153,-0.310,0.145
1154,-0.330,0.195
1155,-0.365,0.220
1156,-0.425,0.225
1157,-0.495,0.205
1158,-0.520,0.160
1159,-0.490,0.105
1160,-0.325,0.045
1161,-0.060,-0.020
1162,0.285,-0.080
1163,0.680,-0.110
1164,1.075,-0.125
1165,1.395,-0.130
1166,1.535,-0.105
1167,1.450,-0.100
1168,1.135,-0.090
1169,0.650,-0.050
1170,0.130,0.025
1171,-0.240,0.165
1172,-0.445,0.350
1173,-0.525,0.515
1174,-0.525,0.665
1175,-0.530,0.790
1176,-0.575,0.865
1177,-0.655,0.915
1178,-0.785,0.955
1179,-0.890,0.980
1180,-0.995,1.010
1181,-1.045,0.990
1182,-1.050,0.955
1183,-1.040,0.890
1184,-0.985,0.805
1185,-0.910,0.710
1186,-0.825,0.600
1187,-0.735,0.490
1188,-0.635,0.380
1189,-0.550,0.285
1190,-0.470,0.220
1191,-0.410,0.170
1192,-0.355,0.150
1193,-0.325,0.140
1194,-0.305,0.115
1195,-0.300,0.115
1196,-0.290,0.110
1197,-0.280,0.085
1198,-0.285,0.075
1199,-0.285,0.055
1200,-0.270,0.055
1201,-0.270,0.040
1202,-0.260,0.055
1203,-0.260,0.050
1204,-0.250,0.055
1205,-0.230,0.055
1206,-0.230,0.040
1207,-0.220,0.045
1208,-0.215,0.035
1209,-0.220,0.025
1210,-0.220,0.030
1211,-0.220,0.030
1212,-0.235,0.015
1213,-0.235,0.020
1214,-0.235,0.035
1215,-0.220,0.035
1216,-0.200,0.050
1217,-0.195,0.045
1218,-0.190,0.035
1219,-0.185,0.035
1220,-0.185,0.030
1221,-0.180,0.025
1222,-0.180,0.020
1223,-0.200,0.015
1224,-0.190,0.005
1225,-0.190,0.010
1226,-0.190,0.015
1227,-0.165,0.020
1228,-0.155,0.025
1229,-0.150,0.030
1230,-0.135,0.020
1231,-0.145,0.020
1232,-0.140,0.010
1233,-0.140,0.005
1234,-0.130,-0.005
1235,-0.125,-0.005
1236,-0.125,-0.010
1237,-0.115,-0.010
1238,-0.105,0.000
1239,-0.105,0.000
1240,-0.095,0.000
1241,-0.070,0.005
1242,-0.070,-0.005
1243,-0.060,0.000
1244,-0.055,-0.010
1245,-0.045,-0.015
1246,-0.045,-0.020
1247,-0.040,-0.040
1248,-0.040,-0.040
1249,-0.030,-0.035
1250,-0.015,-0.040
1251,-0.005,-0.030
1252,0.010,-0.025
1253,0.015,-0.025
1254,0.035,-0.035
1255,0.035,-0.040
1256,0.045,-0.035
1257,0.065,-0.060
1258,0.055,-0.070
1259,0.070,-0.060
1260,0.075,-0.080
1261,0.095,-0.070
1262,0.115,-0.080
1263,0.125,-0.070
1264,0.150,-0.085
1265,0.160,-0.070
1266,0.180,-0.080
1267,0.190,-0.080
1268,0.195,-0.090
1269,0.215,-0.100
1270,0.200,-0.110
1271,0.215,-0.120
1272,0.225,-0.115
1273,0.240,-0.125
1274,0.245,-0.115
1275,0.260,-0.115
1276,0.260,-0.105
1277,0.285,-0.110
1278,0.290,-0.110
1279,0.300,-0.125
1280,0.310,-0.125
1281,0.315,-0.130
1282,0.315,-0.125
1283,0.310,-0.130
1284,0.325,-0.130
1285,0.315,-0.135
1286,0.310,-0.115
1287,0.330,-0.120
1288,0.335,-0.115
1289,0.350,-0.100
1290,0.355,-0.100
1291,0.355,-0.090
1292,0.350,-0.090
1293,0.340,-0.095
1294,0.330,-0.090
1295,0.310,-0.095
1296,0.295,-0.080
1297,0.280,-0.075
1298,0.275,-0.060
1299,0.255,-0.055
1300,0.245,-0.025
1301,0.245,-0.010
1302,0.230,-0.010
1303,0.210,-0.005
1304,0.185,-0.005
1305,0.160,0.000
1306,0.130,0.010
1307,0.110,0.015
1308,0.085,0.025
1309,0.060,0.025
1310,0.045,0.040
1311,0.040,0.060
1312,0.025,0.080
1313,0.010,0.080
1314,0.005,0.095
1315,-0.015,0.090
1316,-0.030,0.095
1317,-0.045,0.100
1318,-0.070,0.095
1319,-0.090,0.080
1320,-0.105,0.100
1321,-0.115,0.095
1322,-0.130,0.095
1323,-0.130,0.120
1324,-0.140,0.120
1325,-0.150,0.125
1326,-0.150,0.125
1327,-0.140,0.125
1328,-0.135,0.120
1329,-0.145,0.115
1330,-0.155,0.125
1331,-0.155,0.110
1332,-0.170,0.115
1333,-0.185,0.120
1334,-0.175,0.120
1335,-0.180,0.125
1336,-0.185,0.125
1337,-0.160,0.145
1338,-0.150,0.145
1339,-0.160,0.140
1340,-0.155,0.145
1341,-0.150,0.135
1342,-0.165,0.130
1343,-0.165,0.115
1344,-0.165,0.125
1345,-0.175,0.130
1346,-0.175,0.140
1347,-0.165,0.150
1348,-0.170,0.145
1349,-0.165,0.150
1350,-0.155,0.145
1351,-0.140,0.140
1352,-0.140,0.145
1353,-0.140,0.135
1354,-0.155,0.135
1355,-0.140,0.125
1356,-0.150,0.130
1357,-0.160,0.125
1358,-0.165,0.140
1359,-0.150,0.140
1360,-0.150,0.150
1361,-0.140,0.140
1362,-0.140,0.140
1363,-0.145,0.145
1364,-0.160,0.135
1365,-0.165,0.135
1366,-0.165,0.120
1367,-0.160,0.125
1368,-0.170,0.115
1369,-0.160,0.125
1370,-0.170,0.130
1371,-0.165,0.130
1372,-0.175,0.135
1373,-0.160,0.140
1374,-0.160,0.135
1375,-0.175,0.140
1376,-0.165,0.135
1377,-0.165,0.135
1378,-0.170,0.115
1379,-0.185,0.110
1380,-0.195,0.100
1381,-0.200,0.100
1382,-0.195,0.125
1383,-0.195,0.130
1384,-0.195,0.130
1385,-0.185,0.135
1386,-0.185,0.125
1387,-0.180,0.140
1388,-0.180,0.130
1389,-0.185,0.120
1390,-0.195,0.105
1391,-0.205,0.110
1392,-0.205,0.100
1393,-0.215,0.105
1394,-0.215,0.105
1395,-0.215,0.120
1396,-0.220,0.125
1397,-0.200,0.140
1398,-0.195,0.125
1399,-0.195,0.115
1400,-0.195,0.125
1401,-0.195,0.120
1402,-0.205,0.115
1403,-0.210,0.115
1404,-0.220,0.115
1405,-0.220,0.110
1406,-0.225,0.120
1407,-0.225,0.120
1408,-0.230,0.120
1409,-0.215,0.130
1410,-0.210,0.135
1411,-0.205,0.125
1412,-0.215,0.130
1413,-0.210,0.115
1414,-0.215,0.110
1415,-0.225,0.115
1416,-0.235,0.110
1417,-0.230,0.110
1418,-0.230,0.105
1419,-0.220,0.105
1420,-0.220,0.120
1421,-0.210,0.125
1422,-0.200,0.110
1423,-0.205,0.135
1424,-0.190,0.120
1425,-0.220,0.110
1426,-0.210,0.110
1427,-0.215,0.105
1428,-0.215,0.120
1429,-0.220,0.125
1430,-0.220,0.140
1431,-0.215,0.145
1432,-0.200,0.170
1433,-0.190,0.180
1434,-0.180,0.195
1435,-0.175,0.195
1436,-0.175,0.205
1437,-0.170,0.205
1438,-0.160,0.210
1439,-0.160,0.205
1440,-0.160,0.200
1441,-0.155,0.190
1442,-0.150,0.190
1443,-0.140,0.200
1444,-0.125,0.180
1445,-0.115,0.180
1446,-0.095,0.175
1447,-0.075,0.170
1448,-0.055,0.145
1449,-0.045,0.135
1450,-0.030,0.115
1451,-0.030,0.125
1452,-0.035,0.115
1453,-0.050,0.115
1454,-0.050,0.125
1455,-0.060,0.110
1456,-0.065,0.105
1457,-0.060,0.115
1458,-0.070,0.105
1459,-0.085,0.120
1460,-0.085,0.125
1461,-0.105,0.120
1462,-0.120,0.115
1463,-0.150,0.100
1464,-0.175,0.090
1465,-0.180,0.095
1466,-0.210,0.090
1467,-0.225,0.100
1468,-0.230,0.105
1469,-0.245,0.105
1470,-0.225,0.105
1471,-0.230,0.100
1472,-0.230,0.095
1473,-0.235,0.105
1474,-0.240,0.090
1475,-0.245,0.080
1476,-0.250,0.090
1477,-0.250,0.085
1478,-0.250,0.100
1479,-0.245,0.110
1480,-0.255,0.110
1481,-0.240,0.115
1482,-0.235,0.120
1483,-0.235,0.115
1484,-0.230,0.105
1485,-0.245,0.105
1486,-0.250,0.100
1487,-0.245,0.090
1488,-0.255,0.095
1489,-0.255,0.090
1490,-0.260,0.105
1491,-0.245,0.105
1492,-0.240,0.120
1493,-0.235,0.135
1494,-0.235,0.140
1495,-0.235,0.145
1496,-0.235,0.165
1497,-0.250,0.195
1498,-0.280,0.230
1499,-0.325,0.240
1500,-0.375,0.250
1501,-0.430,0.245
1502,-0.495,0.235
1503,-0.525,0.210
1504,-0.490,0.165
1505,-0.360,0.130
1506,-0.135,0.060
1507,0.160,0.010
1508,0.515,-0.025
1509,0.890,-0.060
1510,1.220,-0.060
1511,1.465,-0.075
1512,1.545,-0.065
1513,1.430,-0.070
1514,1.090,-0.050
1515,0.620,-0.005
1516,0.160,0.060
1517,-0.195,0.185
1518,-0.380,0.345
1519,-0.450,0.510
1520,-0.445,0.660
1521,-0.425,0.775
1522,-0.440,0.855
1523,-0.520,0.905
1524,-0.630,0.945
1525,-0.765,0.980
1526,-0.885,1.010
1527,-0.995,1.035
1528,-1.035,1.050
1529,-1.055,1.035
1530,-1.035,0.990
1531,-1.005,0.935
1532,-0.940,0.840
1533,-0.870,0.770
1534,-0.790,0.665
1535,-0.700,0.555
1536,-0.620,0.455
1537,-0.535,0.365
1538,-0.455,0.295
1539,-0.395,0.240
1540,-0.340,0.200
1541,-0.305,0.185
1542,-0.270,0.180
1543,-0.270,0.165
1544,-0.255,0.165
1545,-0.250,0.150
1546,-0.240,0.135
1547,-0.245,0.120
1548,-0.245,0.110
1549,-0.250,0.110
1550,-0.240,0.110
1551,-0.235,0.115
1552,-0.225,0.110
1553,-0.215,0.120
1554,-0.205,0.115
1555,-0.205,0.100
1556,-0.185,0.100
1557,-0.205,0.095
1558,-0.205,0.085
1559,-0.205,0.070
1560,-0.215,0.055
1561,-0.220,0.075
1562,-0.210,0.075
1563,-0.190,0.085
1564,-0.170,0.085
1565,-0.155,0.095
1566,-0.135,0.085
1567,-0.150,0.090
1568,-0.145,0.075
1569,-0.140,0.065
1570,-0.135,0.065
1571,-0.145,0.055
1572,-0.145,0.060
1573,-0.145,0.060
1574,-0.135,0.055
1575,-0.145,0.060
1576,-0.135,0.060
1577,-0.125,0.070
1578,-0.120,0.060
1579,-0.120,0.050
1580,-0.115,0.050
1581,-0.105,0.045
1582,-0.100,0.035
1583,-0.100,0.025
1584,-0.090,0.030
1585,-0.075,0.040
1586,-0.070,0.035
1587,-0.075,0.040
1588,-0.065,0.045
1589,-0.045,0.050
1590,-0.040,0.040
1591,-0.040,0.035
1592,-0.035,0.030
1593,-0.035,0.025
1594,-0.030,0.015
1595,-0.025,0.010
1596,-0.015,0.010
1597,-0.005,0.015
1598,0.005,0.005
1599,0.005,0.005
1600,0.030,0.005
1601,0.060,0.010
1602,0.070,0.005
1603,0.075,0.005
1604,0.095,0.000
1605,0.095,-0.015
1606,0.100,-0.035
1607,0.120,-0.040
1608,0.110,-0.055
1609,0.125,-0.055
1610,0.140,-0.060
1611,0.165,-0.040
1612,0.175,-0.055
1613,0.195,-0.065
1614,0.210,-0.065
1615,0.220,-0.065
1616,0.230,-0.075
1617,0.210,-0.075
1618,0.225,-0.085
1619,0.250,-0.100
1620,0.260,-0.100
1621,0.260,-0.100
1622,0.275,-0.090
1623,0.285,-0.095
1624,0.300,-0.100
1625,0.310,-0.090
1626,0.320,-0.090
1627,0.325,-0.085
1628,0.330,-0.090
1629,0.345,-0.105
1630,0.355,-0.115
1631,0.365,-0.120
1632,0.365,-0.110
1633,0.370,-0.110
1634,0.390,-0.110
1635,0.410,-0.105
1636,0.405,-0.095
1637,0.405,-0.090
1638,0.425,-0.075
1639,0.400,-0.070
1640,0.395,-0.070
1641,0.375,-0.075
1642,0.355,-0.075
1643,0.320,-0.060
1644,0.285,-0.060
1645,0.270,-0.045
1646,0.255,-0.040
1647,0.255,-0.010
1648,0.240,-0.010
1649,0.240,0.010
1650,0.230,0.005
1651,0.210,0.020
1652,0.170,0.025
1653,0.140,0.035
1654,0.110,0.035
1655,0.075,0.040
1656,0.045,0.055
1657,0.025,0.065
1658,0.005,0.080
1659,0.010,0.095
1660,-0.005,0.100
1661,0.000,0.120
1662,0.005,0.110
1663,-0.015,0.120
1664,-0.040,0.120
1665,-0.065,0.115
1666,-0.080,0.110
1667,-0.095,0.110
1668,-0.095,0.120
1669,-0.095,0.120
1670,-0.095,0.130
1671,-0.100,0.140
1672,-0.100,0.160
1673,-0.105,0.160
1674,-0.110,0.160
1675,-0.130,0.175
1676,-0.150,0.175
1677,-0.160,0.160
1678,-0.155,0.155
1679,-0.165,0.165
1680,-0.180,0.160
1681,-0.170,0.155
1682,-0.170,0.155
1683,-0.150,0.165
1684,-0.155,0.175
1685,-0.125,0.190
1686,-0.115,0.190
1687,-0.120,0.180
1688,-0.110,0.175
1689,-0.125,0.170
1690,-0.130,0.155
1691,-0.160,0.155
1692,-0.155,0.155
1693,-0.170,0.170
1694,-0.155,0.165
1695,-0.155,0.170
1696,-0.145,0.170
1697,-0.130,0.185
1698,-0.125,0.185
1699,-0.130,0.185
1700,-0.120,0.190
1701,-0.145,0.170
1702,-0.160,0.170
1703,-0.155,0.150
1704,-0.160,0.150
1705,-0.160,0.150
1706,-0.160,0.150
1707,-0.150,0.150
1708,-0.145,0.160
1709,-0.150,0.175
1710,-0.150,0.170
1711,-0.150,0.165
1712,-0.150,0.160
1713,-0.155,0.160
1714,-0.165,0.140
1715,-0.170,0.145
1716,-0.175,0.135
1717,-0.180,0.140
1718,-0.185,0.140
1719,-0.195,0.150
1720,-0.185,0.145
1721,-0.180,0.165
1722,-0.180,0.165
1723,-0.180,0.160
1724,-0.175,0.155
1725,-0.175,0.145
1726,-0.180,0.130
1727,-0.185,0.140
1728,-0.195,0.130
1729,-0.185,0.130
1730,-0.185,0.150
1731,-0.195,0.145
1732,-0.175,0.150
1733,-0.180,0.155
1734,-0.170,0.155
1735,-0.190,0.150
1736,-0.190,0.155
1737,-0.180,0.150
1738,-0.195,0.145
1739,-0.220,0.145
1740,-0.220,0.145
1741,-0.230,0.130
1742,-0.235,0.140
1743,-0.225,0.150
1744,-0.220,0.145
1745,-0.215,0.155
1746,-0.215,0.155
1747,-0.210,0.150
1748,-0.200,0.140
1749,-0.205,0.140
1750,-0.195,0.125
1751,-0.195,0.125
1752,-0.185,0.125
1753,-0.185,0.125
1754,-0.200,0.140
1755,-0.195,0.160
1756,-0.205,0.175
1757,-0.200,0.190
1758,-0.190,0.195
1759,-0.195,0.190
1760,-0.200,0.210
1761,-0.195,0.205
1762,-0.185,0.200
1763,-0.180,0.205
1764,-0.160,0.205
1765,-0.135,0.200
1766,-0.135,0.195
1767,-0.120,0.180
1768,-0.115,0.195
1769,-0.120,0.195
1770,-0.115,0.205
1771,-0.110,0.190
1772,-0.110,0.195
1773,-0.090,0.180
1774,-0.075,0.155
1775,-0.055,0.145
1776,-0.055,0.140
1777,-0.040,0.155
1778,-0.040,0.150
1779,-0.030,0.150
1780,-0.020,0.155
1781,-0.020,0.155
1782,-0.035,0.145
1783,-0.060,0.135
1784,-0.075,0.135
1785,-0.085,0.145
1786,-0.105,0.135
1787,-0.120,0.135
1788,-0.150,0.125
1789,-0.175,0.135
1790,-0.185,0.130
1791,-0.205,0.130
1792,-0.225,0.130
1793,-0.230,0.140
1794,-0.230,0.140
1795,-0.215,0.135
1796,-0.215,0.135
1797,-0.205,0.120
1798,-0.210,0.120
1799,-0.225,0.110
1800,-0.240,0.115
1801,-0.265,0.120
1802,-0.265,0.115
1803,-0.265,0.125
1804,-0.260,0.140
1805,-0.245,0.140
1806,-0.220,0.140
1807,-0.225,0.150
1808,-0.225,0.150
1809,-0.235,0.135
1810,-0.255,0.130
1811,-0.265,0.125
1812,-0.270,0.130
1813,-0.270,0.125
1814,-0.255,0.135
1815,-0.245,0.145
1816,-0.235,0.145
1817,-0.220,0.155
1818,-0.215,0.170
1819,-0.230,0.185
1820,-0.220,0.210
1821,-0.250,0.240
1822,-0.290,0.245
1823,-0.355,0.240
1824,-0.435,0.235
1825,-0.480,0.205
1826,-0.470,0.155
1827,-0.325,0.080
1828,-0.080,0.030
1829,0.285,-0.005
1830,0.700,-0.030
1831,1.095,-0.005
1832,1.415,0.035
1833,1.570,0.065
1834,1.480,0.090
1835,1.125,0.095
1836,0.560,0.095
1837,0.010,0.165
1838,-0.415,0.270
1839,-0.625,0.400
1840,-0.660,0.565
1841,-0.615,0.710
1842,-0.565,0.820
1843,-0.575,0.900
1844,-0.605,0.955
1845,-0.700,0.990
1846,-0.820,1.015
1847,-0.910,1.030
1848,-0.970,1.035
1849,-0.995,1.025
1850,-0.995,0.990
1851,-0.955,0.930
1852,-0.880,0.880
1853,-0.785,0.815
1854,-0.685,0.715
1855,-0.585,0.595
1856,-0.500,0.490
1857,-0.430,0.375
1858,-0.375,0.270
1859,-0.320,0.195
1860,-0.295,0.160
1861,-0.265,0.150
1862,-0.245,0.165
1863,-0.230,0.170
1864,-0.210,0.175
1865,-0.205,0.160
1866,-0.190,0.150
1867,-0.180,0.155
1868,-0.185,0.140
1869,-0.190,0.105
1870,-0.195,0.090
1871,-0.200,0.090
1872,-0.195,0.090
1873,-0.180,0.100
1874,-0.165,0.105
1875,-0.150,0.110
1876,-0.120,0.105
1877,-0.125,0.105
1878,-0.110,0.110
1879,-0.120,0.115
1880,-0.135,0.110
1881,-0.145,0.090
1882,-0.155,0.080
1883,-0.170,0.070
1884,-0.165,0.055
1885,-0.145,0.065
1886,-0.120,0.065
1887,-0.095,0.075
1888,-0.080,0.085
1889,-0.075,0.085
1890,-0.065,0.105
1891,-0.080,0.095
1892,-0.090,0.090
1893,-0.110,0.070
1894,-0.115,0.070
1895,-0.120,0.060
1896,-0.120,0.055
1897,-0.100,0.065
1898,-0.085,0.075
1899,-0.075,0.080
1900,-0.050,0.075
1901,-0.025,0.085
1902,-0.010,0.085
1903,-0.010,0.080
1904,-0.015,0.070
1905,-0.025,0.055
1906,-0.020,0.050
1907,-0.030,0.040
1908,-0.025,0.035
1909,-0.010,0.040
1910,-0.005,0.035
1911,-0.005,0.035
1912,0.005,0.035
1913,0.020,0.055
1914,0.050,0.045
1915,0.065,0.040
1916,0.090,0.025
1917,0.095,0.025
1918,0.085,0.005
1919,0.075,-0.005
1920,0.065,-0.005
1921,0.070,-0.015
1922,0.075,-0.005
1923,0.080,-0.005
1924,0.100,-0.005
1925,0.110,0.000
1926,0.140,-0.005
1927,0.150,-0.010
1928,0.165,-0.025
1929,0.175,-0.030
1930,0.185,-0.045
1931,0.190,-0.055
1932,0.195,-0.060
1933,0.200,-0.070
1934,0.205,-0.075
1935,0.215,-0.070
1936,0.230,-0.060
1937,0.245,-0.055
1938,0.265,-0.045
1939,0.280,-0.060
1940,0.285,-0.055
1941,0.285,-0.075
1942,0.285,-0.085
1943,0.295,-0.095
1944,0.305,-0.110
1945,0.305,-0.090
1946,0.330,-0.090
1947,0.335,-0.085
1948,0.360,-0.085
1949,0.355,-0.065
1950,0.375,-0.060
1951,0.380,-0.060
1952,0.380,-0.065
1953,0.370,-0.065
1954,0.355,-0.060
1955,0.340,-0.065
1956,0.320,-0.055
1957,0.320,-0.045
1958,0.290,-0.040
1959,0.300,-0.010
1960,0.290,-0.005
1961,0.275,0.005
1962,0.265,0.025
1963,0.250,0.035
1964,0.235,0.030
1965,0.200,0.045
1966,0.175,0.045
1967,0.165,0.055
1968,0.135,0.065
1969,0.115,0.075
1970,0.095,0.095
1971,0.065,0.105
1972,0.050,0.110
1973,0.030,0.125
1974,0.030,0.135
1975,0.010,0.135
1976,-0.005,0.140
1977,-0.005,0.145
1978,-0.025,0.145
1979,-0.050,0.150
1980,-0.060,0.135
1981,-0.065,0.155
1982,-0.080,0.150
1983,-0.085,0.175
1984,-0.090,0.185
1985,-0.090,0.185
1986,-0.100,0.180
1987,-0.095,0.180
1988,-0.100,0.190
1989,-0.105,0.180
1990,-0.115,0.175
1991,-0.115,0.165
1992,-0.125,0.155
1993,-0.125,0.160
1994,-0.115,0.165
1995,-0.130,0.180
1996,-0.125,0.190
1997,-0.110,0.190
1998,-0.110,0.180
1999,-0.105,0.180
2000,-0.100,0.185
2001,-0.105,0.180
2002,-0.100,0.170
2003,-0.100,0.165
2004,-0.110,0.160
2005,-0.105,0.155
2006,-0.105,0.160
2007,-0.095,0.160
2008,-0.105,0.170
2009,-0.100,0.170
2010,-0.095,0.165
2011,-0.090,0.170
2012,-0.090,0.160
2013,-0.075,0.160
2014,-0.080,0.145
2015,-0.080,0.145
2016,-0.095,0.135
2017,-0.100,0.130
2018,-0.100,0.130
2019,-0.105,0.145
2020,-0.105,0.145
2021,-0.095,0.165
2022,-0.095,0.170
2023,-0.095,0.155
2024,-0.110,0.140
2025,-0.110,0.145
2026,-0.130,0.140
2027,-0.140,0.140
2028,-0.150,0.145
2029,-0.150,0.155
2030,-0.140,0.145
2031,-0.145,0.140
2032,-0.135,0.155
2033,-0.140,0.160
2034,-0.135,0.170
2035,-0.135,0.155
2036,-0.150,0.150
2037,-0.155,0.140
2038,-0.165,0.145
2039,-0.155,0.125
2040,-0.170,0.140
2041,-0.170,0.140
2042,-0.180,0.140
2043,-0.175,0.140
2044,-0.195,0.140
2045,-0.175,0.140
2046,-0.160,0.150
2047,-0.155,0.145
2048,-0.150,0.150
2049,-0.155,0.150
2050,-0.160,0.135
2051,-0.170,0.120
2052,-0.180,0.115
2053,-0.175,0.125
2054,-0.180,0.135
2055,-0.180,0.135
2056,-0.180,0.135
2057,-0.175,0.150
2058,-0.170,0.150
2059,-0.170,0.150
2060,-0.170,0.140
2061,-0.170,0.140
2062,-0.175,0.150
2063,-0.180,0.165
2064,-0.175,0.170
2065,-0.185,0.170
2066,-0.175,0.190
2067,-0.160,0.215
2068,-0.155,0.220
2069,-0.135,0.235
2070,-0.125,0.225
2071,-0.120,0.220
2072,-0.115,0.210
2073,-0.115,0.195
2074,-0.115,0.175
2075,-0.115,0.155
2076,-0.095,0.150
2077,-0.080,0.140
2078,-0.060,0.130
2079,-0.045,0.140
2080,-0.020,0.140
2081,-0.010,0.140
2082,0.000,0.150
2083,-0.015,0.135
2084,-0.020,0.120
2085,-0.035,0.100
2086,-0.055,0.100
2087,-0.075,0.085
2088,-0.090,0.090
2089,-0.100,0.095
2090,-0.105,0.105
2091,-0.115,0.115
2092,-0.120,0.115
2093,-0.135,0.125
2094,-0.145,0.115
2095,-0.170,0.090
2096,-0.185,0.095
2097,-0.210,0.095
2098,-0.225,0.085
2099,-0.235,0.075
2100,-0.240,0.075
2101,-0.245,0.090
2102,-0.240,0.085
2103,-0.235,0.095
2104,-0.240,0.100
2105,-0.240,0.110
2106,-0.235,0.095
2107,-0.240,0.095
2108,-0.250,0.085
2109,-0.260,0.080
2110,-0.260,0.080
2111,-0.265,0.080
2112,-0.270,0.075
2113,-0.265,0.075
2114,-0.270,0.070
2115,-0.260,0.085
2116,-0.265,0.105
2117,-0.250,0.090
2118,-0.240,0.095
2119,-0.250,0.100
2120,-0.250,0.090
2121,-0.250,0.090
2122,-0.260,0.085
2123,-0.265,0.085
2124,-0.270,0.080
2125,-0.270,0.080
2126,-0.275,0.085
2127,-0.265,0.090
2128,-0.255,0.105
2129,-0.250,0.115
2130,-0.250,0.115
2131,-0.265,0.105
2132,-0.245,0.105
2133,-0.245,0.105
2134,-0.250,0.095
2135,-0.275,0.090
2136,-0.265,0.090
2137,-0.275,0.085
2138,-0.270,0.100
2139,-0.260,0.105
2140,-0.255,0.100
2141,-0.250,0.105
2142,-0.260,0.105
2143,-0.250,0.105
2144,-0.250,0.110
2145,-0.255,0.095
2146,-0.260,0.095
2147,-0.265,0.085
2148,-0.265,0.080
2149,-0.275,0.085
2150,-0.275,0.095
2151,-0.275,0.095
2152,-0.270,0.095
2153,-0.260,0.100
2154,-0.255,0.110
2155,-0.250,0.110
2156,-0.250,0.120
2157,-0.265,0.100
2158,-0.260,0.100
2159,-0.275,0.085
2160,-0.270,0.085
2161,-0.260,0.095
2162,-0.270,0.095
2163,-0.255,0.115
2164,-0.260,0.110
2165,-0.255,0.110
2166,-0.240,0.100
2167,-0.245,0.110
2168,-0.240,0.110
2169,-0.245,0.095
2170,-0.250,0.110
2171,-0.255,0.090
2172,-0.255,0.090
2173,-0.250,0.090
2174,-0.260,0.100
2175,-0.260,0.100
2176,-0.260,0.100
2177,-0.255,0.115
2178,-0.245,0.125
2179,-0.250,0.105
2180,-0.245,0.105
2181,-0.245,0.105
2182,-0.245,0.110
2183,-0.250,0.100
2184,-0.255,0.090
2185,-0.255,0.085
2186,-0.260,0.095
2187,-0.265,0.100
2188,-0.260,0.110
2189,-0.250,0.130
2190,-0.230,0.115
2191,-0.230,0.110
2192,-0.225,0.095
2193,-0.245,0.105
2194,-0.240,0.090
2195,-0.245,0.095
2196,-0.240,0.100
2197,-0.245,0.090
2198,-0.240,0.080
2199,-0.240,0.090
2200,-0.230,0.100
2201,-0.225,0.105
2202,-0.225,0.105
2203,-0.220,0.105
2204,-0.215,0.095
2205,-0.220,0.090
2206,-0.210,0.090
2207,-0.220,0.095
2208,-0.225,0.085
2209,-0.225,0.085
2210,-0.210,0.080
2211,-0.210,0.085
2212,-0.215,0.095
2213,-0.200,0.110
2214,-0.195,0.120
2215,-0.190,0.110
2216,-0.190,0.115
2217,-0.190,0.095
2218,-0.195,0.095
2219,-0.215,0.085
2220,-0.205,0.090
2221,-0.205,0.095
2222,-0.205,0.090
2223,-0.195,0.095
2224,-0.200,0.110
2225,-0.185,0.115
2226,-0.190,0.115
2227,-0.195,0.115
2228,-0.180,0.120
2229,-0.180,0.100
2230,-0.175,0.090
2231,-0.180,0.090
2232,-0.200,0.090
2233,-0.190,0.095
2234,-0.195,0.085
2235,-0.190,0.100
2236,-0.175,0.115
2237,-0.165,0.115
2238,-0.165,0.110
2239,-0.165,0.120
2240,-0.170,0.110
2241,-0.170,0.105
2242,-0.175,0.105
2243,-0.180,0.085
2244,-0.180,0.090
2245,-0.180,0.100
2246,-0.190,0.095
2247,-0.170,0.095
2248,-0.185,0.105
2249,-0.180,0.100
2250,-0.180,0.110
2251,-0.185,0.110
2252,-0.180,0.125
2253,-0.165,0.105
2254,-0.180,0.105
2255,-0.180,0.100
2256,-0.175,0.085
2257,-0.180,0.095
2258,-0.185,0.090
2259,-0.185,0.095
2260,-0.170,0.095
2261,-0.165,0.100
2262,-0.160,0.095
2263,-0.165,0.115
2264,-0.150,0.095
2265,-0.170,0.090
2266,-0.185,0.095
2267,-0.185,0.085
2268,-0.180,0.080
2269,-0.175,0.085
2270,-0.175,0.100
2271,-0.165,0.090
2272,-0.165,0.100
2273,-0.155,0.105
2274,-0.140,0.105
2275,-0.155,0.100
2276,-0.155,0.100
2277,-0.150,0.100
2278,-0.155,0.100
2279,-0.155,0.080
2280,-0.160,0.080
2281,-0.170,0.085
2282,-0.170,0.085
2283,-0.165,0.095
2284,-0.160,0.105
2285,-0.160,0.100
2286,-0.145,0.120
2287,-0.145,0.120
2288,-0.145,0.120
2289,-0.155,0.100
2290,-0.155,0.090
2291,-0.155,0.085
2292,-0.170,0.080
2293,-0.160,0.090
2294,-0.170,0.100
2295,-0.170,0.095
2296,-0.150,0.100
2297,-0.160,0.110
2298,-0.155,0.115
2299,-0.150,0.120
2300,-0.140,0.110
2301,-0.145,0.110
2302,-0.140,0.100
2303,-0.140,0.095
2304,-0.155,0.095
2305,-0.160,0.100
2306,-0.155,0.090
2307,-0.155,0.100
2308,-0.150,0.105
2309,-0.140,0.110
2310,-0.135,0.110
2311,-0.120,0.115
2312,-0.130,0.110
2313,-0.140,0.090
2314,-0.135,0.085
2315,-0.155,0.085
2316,-0.150,0.085
2317,-0.150,0.095
2318,-0.140,0.085
2319,-0.150,0.085
2320,-0.135,0.100
2321,-0.135,0.095
2322,-0.115,0.105
2323,-0.115,0.110
2324,-0.120,0.105
2325,-0.115,0.105
2326,-0.115,0.095
2327,-0.130,0.095
2328,-0.125,0.085
2329,-0.125,0.085
2330,-0.125,0.085
2331,-0.125,0.100
2332,-0.130,0.115
2333,-0.125,0.115
2334,-0.105,0.125
2335,-0.105,0.120
2336,-0.120,0.125
2337,-0.110,0.100
2338,-0.115,0.100
2339,-0.125,0.090
2340,-0.135,0.090
2341,-0.130,0.095
2342,-0.125,0.090
2343,-0.130,0.095
2344,-0.125,0.100
2345,-0.125,0.110
2346,-0.100,0.110
2347,-0.110,0.110
2348,-0.110,0.110
2349,-0.110,0.110
2350,-0.110,0.100
2351,-0.115,0.095
2352,-0.120,0.090
2353,-0.125,0.090
2354,-0.140,0.095
2355,-0.115,0.100
2356,-0.115,0.100
2357,-0.120,0.115
2358,-0.110,0.100
2359,-0.110,0.115
2360,-0.100,0.095
2361,-0.115,0.105
2362,-0.120,0.100
2363,-0.125,0.100
2364,-0.120,0.095
2365,-0.120,0.085
2366,-0.120,0.085
2367,-0.110,0.105
2368,-0.105,0.105
2369,-0.105,0.100
2370,-0.100,0.110
2371,-0.095,0.105
2372,-0.095,0.100
2373,-0.090,0.110
2374,-0.095,0.095
2375,-0.095,0.085
2376,-0.105,0.075
2377,-0.110,0.085
2378,-0.100,0.080
2379,-0.110,0.090
2380,-0.100,0.095
2381,-0.100,0.110
2382,-0.085,0.125
2383,-0.085,0.125
2384,-0.085,0.130
2385,-0.075,0.125
2386,-0.080,0.140
2387,-0.080,0.140
2388,-0.075,0.160
2389,-0.065,0.175
2390,-0.060,0.195
2391,-0.040,0.210
2392,-0.040,0.200
2393,-0.035,0.195
2394,-0.010,0.200
2395,-0.005,0.180
2396,-0.005,0.170
2397,0.005,0.135
2398,0.015,0.130
2399,0.035,0.120
2400,0.045,0.110
2401,0.050,0.115
2402,0.090,0.115
2403,0.100,0.110
2404,0.100,0.110
2405,0.105,0.115
2406,0.105,0.120
2407,0.100,0.095
2408,0.085,0.110
2409,0.065,0.080
2410,0.040,0.090
2411,0.030,0.090
2412,0.025,0.080
2413,-0.005,0.095
2414,-0.020,0.090
2415,-0.025,0.090
2416,-0.030,0.090
2417,-0.055,0.090
2418,-0.060,0.085
2419,-0.085,0.095
2420,-0.085,0.085
2421,-0.090,0.085
2422,-0.095,0.085
2423,-0.115,0.065
2424,-0.115,0.075
2425,-0.125,0.060
2426,-0.120,0.075
2427,-0.115,0.085
2428,-0.110,0.085
2429,-0.120,0.095
2430,-0.110,0.095
2431,-0.125,0.090
2432,-0.125,0.085
2433,-0.110,0.080
2434,-0.110,0.085
2435,-0.125,0.075
2436,-0.125,0.085
2437,-0.120,0.075
2438,-0.125,0.080
2439,-0.125,0.085
2440,-0.115,0.085
2441,-0.120,0.100
2442,-0.100,0.120
2443,-0.105,0.120
2444,-0.110,0.145
2445,-0.120,0.160
2446,-0.145,0.180
2447,-0.190,0.200
2448,-0.230,0.205
2449,-0.300,0.195
2450,-0.365,0.185
2451,-0.380,0.170
2452,-0.315,0.150
2453,-0.150,0.105
2454,0.120,0.055
2455,0.455,0.020
2456,0.825,-0.020
2457,1.200,-0.065
2458,1.520,-0.105
2459,1.755,-0.150
2460,1.845,-0.195
2461,1.755,-0.220
2462,1.455,-0.260
2463,1.030,-0.260
2464,0.600,-0.250
2465,0.270,-0.215
2466,0.085,-0.180
2467,0.020,-0.125
2468,0.020,-0.075
2469,0.075,-0.045
2470,0.100,-0.015
2471,0.110,-0.030
2472,0.080,-0.015
2473,0.030,0.015
2474,-0.015,0.055
2475,-0.070,0.085
2476,-0.105,0.125
2477,-0.115,0.145
2478,-0.100,0.150
2479,-0.110,0.155
2480,-0.105,0.145
2481,-0.110,0.135
2482,-0.115,0.125
2483,-0.130,0.120
2484,-0.140,0.125
2485,-0.150,0.120
2486,-0.155,0.155
2487,-0.160,0.150
2488,-0.155,0.160
2489,-0.155,0.170
2490,-0.145,0.175
2491,-0.145,0.160
2492,-0.150,0.165
2493,-0.160,0.155
2494,-0.170,0.155
2495,-0.165,0.155
2496,-0.175,0.150
2497,-0.180,0.155
2498,-0.180,0.145
2499,-0.180,0.165
2500,-0.165,0.170
2501,-0.155,0.170
2502,-0.145,0.185
2503,-0.145,0.175
2504,-0.135,0.170
2505,-0.135,0.175
2506,-0.150,0.175
2507,-0.155,0.160
2508,-0.165,0.155
2509,-0.160,0.150
2510,-0.155,0.160
2511,-0.150,0.165
2512,-0.145,0.175
2513,-0.135,0.185
2514,-0.140,0.190
2515,-0.135,0.185
2516,-0.140,0.175
2517,-0.130,0.185
2518,-0.130,0.165
2519,-0.135,0.160
2520,-0.135,0.155
2521,-0.135,0.155
2522,-0.140,0.175
2523,-0.145,0.180
2524,-0.140,0.185
2525,-0.125,0.195
2526,-0.115,0.195
2527,-0.110,0.195
2528,-0.120,0.195
2529,-0.125,0.185
2530,-0.125,0.190
2531,-0.130,0.175
2532,-0.130,0.180
2533,-0.115,0.180
2534,-0.105,0.185
2535,-0.100,0.190
2536,-0.100,0.205
2537,-0.095,0.205
2538,-0.080,0.210
2539,-0.070,0.195
2540,-0.075,0.210
2541,-0.070,0.205
2542,-0.080,0.185
2543,-0.070,0.185
2544,-0.085,0.175
2545,-0.075,0.190
2546,-0.075,0.190
2547,-0.075,0.200
2548,-0.055,0.210
2549,-0.060,0.210
2550,-0.045,0.220
2551,-0.035,0.220
2552,-0.030,0.220
2553,-0.035,0.215
2554,-0.045,0.210
2555,-0.040,0.200
2556,-0.040,0.195
2557,-0.055,0.195
2558,-0.055,0.220
2559,-0.055,0.215
2560,-0.050,0.225
2561,-0.040,0.235
2562,-0.030,0.230
2563,-0.010,0.225
2564,-0.010,0.215
2565,-0.010,0.205
2566,-0.015,0.215
2567,-0.010,0.205
2568,-0.020,0.200
2569,-0.015,0.205
2570,-0.010,0.200
2571,-0.005,0.210
2572,0.015,0.210
2573,0.035,0.215
2574,0.045,0.220
2575,0.065,0.205
2576,0.070,0.205
2577,0.085,0.200
2578,0.090,0.195
2579,0.110,0.175
2580,0.115,0.180
2581,0.105,0.170
2582,0.120,0.165
2583,0.130,0.170
2584,0.140,0.165
2585,0.165,0.175
2586,0.185,0.170
2587,0.200,0.165
2588,0.210,0.155
2589,0.220,0.150
2590,0.230,0.135
2591,0.255,0.125
2592,0.255,0.120
2593,0.275,0.120
2594,0.285,0.120
2595,0.295,0.125
2596,0.300,0.135
2597,0.325,0.125
2598,0.330,0.135
2599,0.345,0.120
2600,0.340,0.120
2601,0.335,0.105
2602,0.330,0.095
2603,0.310,0.090
2604,0.295,0.090
2605,0.285,0.095
2606,0.280,0.100
2607,0.280,0.100
2608,0.285,0.095
2609,0.290,0.115
2610,0.290,0.120
2611,0.270,0.115
2612,0.255,0.130
2613,0.240,0.115
2614,0.220,0.120
2615,0.195,0.100
2616,0.180,0.100
2617,0.145,0.110
2618,0.145,0.110
2619,0.130,0.110
2620,0.140,0.125
2621,0.145,0.130
2622,0.125,0.145
2623,0.125,0.140
2624,0.115,0.150
2625,0.120,0.140
2626,0.110,0.150
2627,0.085,0.125
2628,0.080,0.115
2629,0.055,0.140
2630,0.045,0.140
2631,0.045,0.145
2632,0.040,0.170
2633,0.050,0.175
2634,0.055,0.185
2635,0.040,0.175
2636,0.035,0.170
2637,0.035,0.165
2638,0.020,0.160
2639,0.010,0.150
2640,-0.005,0.145
2641,-0.015,0.150
2642,-0.010,0.155
2643,-0.005,0.165
2644,0.005,0.165
2645,0.010,0.165
2646,0.035,0.175
2647,0.035,0.165
2648,0.015,0.175
2649,0.000,0.160
2650,0.010,0.170
2651,0.000,0.150
2652,-0.015,0.145
2653,-0.020,0.140
2654,-0.025,0.150
2655,-0.020,0.155
2656,-0.005,0.160
2657,0.000,0.165
2658,-0.005,0.170
2659,-0.005,0.170
2660,-0.010,0.165
2661,-0.035,0.155
2662,-0.020,0.145
2663,-0.020,0.140
2664,-0.025,0.135
2665,-0.035,0.145
2666,-0.035,0.140
2667,-0.040,0.145
2668,-0.030,0.140
2669,-0.035,0.170
2670,-0.015,0.155
2671,-0.035,0.160
2672,-0.040,0.160
2673,-0.055,0.150
2674,-0.085,0.150
2675,-0.075,0.140
2676,-0.065,0.125
2677,-0.065,0.125
2678,-0.055,0.125
2679,-0.055,0.135
2680,-0.065,0.145
2681,-0.065,0.150
2682,-0.065,0.160
2683,-0.080,0.150
2684,-0.100,0.155
2685,-0.095,0.135
2686,-0.100,0.120
2687,-0.100,0.115
2688,-0.090,0.100
2689,-0.095,0.105
2690,-0.085,0.115
2691,-0.090,0.130
2692,-0.100,0.120
2693,-0.090,0.125
2694,-0.095,0.140
2695,-0.100,0.155
2696,-0.085,0.140
2697,-0.095,0.130
2698,-0.090,0.135
2699,-0.095,0.140
2700,-0.095,0.135
2701,-0.120,0.130
2702,-0.100,0.145
2703,-0.105,0.125
2704,-0.105,0.145
2705,-0.105,0.135
2706,-0.110,0.150
2707,-0.105,0.135
2708,-0.120,0.150
2709,-0.110,0.145
2710,-0.110,0.160
2711,-0.110,0.155
2712,-0.105,0.175
2713,-0.115,0.185
2714,-0.125,0.195
2715,-0.125,0.195
2716,-0.100,0.210
2717,-0.095,0.220
2718,-0.070,0.225
2719,-0.045,0.220
2720,-0.030,0.220
2721,-0.005,0.195
2722,-0.015,0.185
2723,-0.025,0.180
2724,-0.030,0.175
2725,-0.035,0.160
2726,-0.020,0.155
2727,0.005,0.160
2728,0.025,0.165
2729,0.060,0.165
2730,0.075,0.165
2731,0.090,0.155
2732,0.085,0.165
2733,0.060,0.145
2734,0.035,0.125
2735,0.010,0.110
2736,-0.010,0.100
2737,-0.025,0.105
2738,-0.040,0.140
2739,-0.045,0.145
2740,-0.035,0.160
2741,-0.045,0.155
2742,-0.050,0.150
2743,-0.060,0.140
2744,-0.085,0.135
2745,-0.100,0.115
2746,-0.135,0.110
2747,-0.145,0.115
2748,-0.155,0.115
2749,-0.170,0.110
2750,-0.180,0.110
2751,-0.180,0.130
2752,-0.180,0.125
2753,-0.170,0.125
2754,-0.175,0.125
2755,-0.165,0.135
2756,-0.175,0.145
2757,-0.165,0.135
2758,-0.180,0.130
2759,-0.185,0.120
2760,-0.200,0.110
2761,-0.205,0.110
2762,-0.210,0.120
2763,-0.215,0.130
2764,-0.205,0.140
2765,-0.185,0.135
2766,-0.180,0.145
2767,-0.165,0.155
2768,-0.160,0.140
2769,-0.160,0.130
2770,-0.170,0.120
2771,-0.190,0.125
2772,-0.185,0.125
2773,-0.205,0.135
2774,-0.190,0.145
2775,-0.195,0.185
2776,-0.200,0.230
2777,-0.220,0.255
2778,-0.260,0.260
2779,-0.335,0.255
2780,-0.405,0.235
2781,-0.450,0.200
2782,-0.400,0.130
2783,-0.260,0.070
2784,-0.020,-0.015
2785,0.320,-0.050
2786,0.715,-0.055
2787,1.130,-0.040
2788,1.455,0.015
2789,1.640,0.065
2790,1.600,0.090
2791,1.290,0.100
2792,0.775,0.095
2793,0.215,0.135
2794,-0.235,0.225
2795,-0.490,0.375
2796,-0.575,0.525
2797,-0.565,0.670
2798,-0.525,0.770
2799,-0.510,0.865
2800,-0.535,0.945
2801,-0.605,0.995
2802,-0.685,1.030
2803,-0.790,1.055
2804,-0.865,1.080
2805,-0.920,1.075
2806,-0.935,1.055
2807,-0.930,1.010
2808,-0.900,0.945
2809,-0.850,0.880
2810,-0.770,0.805
2811,-0.680,0.720
2812,-0.575,0.620
2813,-0.475,0.515
2814,-0.400,0.415
2815,-0.325,0.320
2816,-0.290,0.265
2817,-0.230,0.220
2818,-0.205,0.190
2819,-0.200,0.180
2820,-0.190,0.175
2821,-0.190,0.165
2822,-0.200,0.165
2823,-0.185,0.155
2824,-0.180,0.150
2825,-0.165,0.140
2826,-0.145,0.150
2827,-0.135,0.140
2828,-0.130,0.145
2829,-0.120,0.120
2830,-0.130,0.120
2831,-0.130,0.115
2832,-0.125,0.095
2833,-0.130,0.105
2834,-0.125,0.105
2835,-0.110,0.110
2836,-0.095,0.120
2837,-0.090,0.120
2838,-0.090,0.125
2839,-0.080,0.105
2840,-0.085,0.095
2841,-0.080,0.085
2842,-0.080,0.085
2843,-0.095,0.080
2844,-0.085,0.070
2845,-0.095,0.080
2846,-0.085,0.075
2847,-0.085,0.080
2848,-0.075,0.090
2849,-0.050,0.100
2850,-0.040,0.100
2851,-0.045,0.100
2852,-0.030,0.090
2853,-0.030,0.080
2854,-0.035,0.080
2855,-0.055,0.070
2856,-0.080,0.050
2857,-0.060,0.060
2858,-0.045,0.065
2859,-0.030,0.065
2860,-0.020,0.055
2861,-0.005,0.065
2862,0.020,0.065
2863,0.025,0.065
2864,0.045,0.065
2865,0.040,0.060
2866,0.050,0.040
2867,0.055,0.035
2868,0.050,0.025
2869,0.040,0.040
2870,0.060,0.035
2871,0.050,0.035
2872,0.070,0.035
2873,0.100,0.035
2874,0.125,0.035
2875,0.135,0.030
2876,0.145,0.025
2877,0.170,0.015
2878,0.160,-0.005
2879,0.160,-0.015
2880,0.160,-0.010
2881,0.150,-0.035
2882,0.175,-0.035
2883,0.185,-0.045
2884,0.215,-0.040
2885,0.220,-0.040
2886,0.250,-0.040
2887,0.270,-0.035
2888,0.290,-0.040
2889,0.300,-0.040
2890,0.315,-0.065
2891,0.325,-0.080
2892,0.320,-0.080
2893,0.300,-0.080
2894,0.315,-0.085
2895,0.320,-0.065
2896,0.330,-0.075
2897,0.350,-0.070
2898,0.360,-0.050
2899,0.365,-0.055
2900,0.365,-0.075
2901,0.375,-0.080
2902,0.370,-0.085
2903,0.385,-0.110
2904,0.375,-0.110
2905,0.380,-0.120
2906,0.400,-0.105
2907,0.390,-0.090
2908,0.400,-0.065
2909,0.400,-0.060
2910,0.385,-0.035
2911,0.385,-0.045
2912,0.370,-0.045
2913,0.360,-0.030
2914,0.350,-0.045
2915,0.335,-0.040
2916,0.320,-0.030
2917,0.300,-0.010
2918,0.285,-0.005
2919,0.270,0.015
2920,0.245,0.015
2921,0.235,0.045
2922,0.210,0.045
2923,0.200,0.075
2924,0.175,0.085
2925,0.155,0.095
2926,0.115,0.090
2927,0.095,0.100
2928,0.070,0.085
2929,0.055,0.110
2930,0.050,0.135
2931,0.040,0.125
2932,0.030,0.150
2933,0.010,0.160
2934,0.000,0.170
2935,-0.020,0.180
2936,-0.040,0.185
2937,-0.045,0.165
2938,-0.050,0.165
2939,-0.060,0.175
2940,-0.075,0.170
2941,-0.105,0.175
2942,-0.120,0.185
2943,-0.125,0.195
2944,-0.105,0.205
2945,-0.100,0.210
2946,-0.080,0.230
2947,-0.065,0.230
2948,-0.075,0.225
2949,-0.090,0.215
2950,-0.110,0.210
2951,-0.120,0.190
2952,-0.130,0.180
2953,-0.130,0.190
2954,-0.130,0.190
2955,-0.120,0.190
2956,-0.115,0.205
2957,-0.110,0.215
2958,-0.105,0.215
2959,-0.085,0.220
2960,-0.080,0.215
2961,-0.075,0.205
2962,-0.080,0.195
2963,-0.090,0.190
2964,-0.090,0.180
2965,-0.105,0.180
2966,-0.095,0.195
2967,-0.100,0.190
2968,-0.095,0.180
2969,-0.080,0.195
2970,-0.080,0.200
2971,-0.080,0.200
2972,-0.080,0.200
2973,-0.080,0.185
2974,-0.085,0.185
2975,-0.085,0.170
2976,-0.095,0.165
2977,-0.095,0.170
2978,-0.105,0.175
2979,-0.105,0.170
2980,-0.100,0.185
2981,-0.095,0.190
2982,-0.090,0.195
2983,-0.080,0.180
2984,-0.095,0.170
2985,-0.095,0.170
2986,-0.100,0.180
2987,-0.110,0.170
2988,-0.110,0.155
2989,-0.115,0.165
2990,-0.130,0.165
2991,-0.130,0.180
2992,-0.115,0.180
2993,-0.120,0.180
2994,-0.120,0.200
2995,-0.105,0.185
2996,-0.115,0.185
2997,-0.130,0.185
2998,-0.130,0.185
2999,-0.140,0.170
3000,-0.130,0.165
3001,-0.135,0.160
3002,-0.140,0.150
3003,-0.145,0.170
3004,-0.135,0.165
3005,-0.140,0.185
3006,-0.130,0.185
3007,-0.130,0.185
3008,-0.140,0.175
3009,-0.145,0.175
3010,-0.150,0.160
3011,-0.150,0.170
3012,-0.145,0.160
3013,-0.165,0.170
3014,-0.155,0.180
3015,-0.145,0.200
3016,-0.145,0.205
3017,-0.130,0.230
3018,-0.115,0.240
3019,-0.105,0.240
3020,-0.095,0.250
3021,-0.085,0.245
3022,-0.080,0.235
3023,-0.080,0.220
3024,-0.085,0.195
3025,-0.080,0.205
3026,-0.070,0.205
3027,-0.055,0.210
3028,-0.035,0.200
3029,-0.015,0.200
3030,0.005,0.205
3031,0.025,0.185
3032,0.035,0.185
3033,0.035,0.180
3034,0.035,0.170
3035,0.010,0.140
3036,-0.005,0.130
3037,-0.020,0.115
3038,-0.025,0.130
3039,-0.035,0.135
3040,-0.040,0.150
3041,-0.050,0.160
3042,-0.060,0.165
3043,-0.085,0.150
3044,-0.105,0.150
3045,-0.120,0.125
3046,-0.140,0.130
3047,-0.170,0.110
3048,-0.180,0.115
3049,-0.195,0.120
3050,-0.200,0.115
3051,-0.200,0.125
3052,-0.200,0.135
3053,-0.205,0.140
3054,-0.190,0.140
3055,-0.195,0.130
3056,-0.200,0.130
3057,-0.210,0.120
3058,-0.215,0.120
3059,-0.210,0.105
3060,-0.225,0.110
3061,-0.230,0.120
3062,-0.225,0.120
3063,-0.235,0.130
3064,-0.220,0.115
3065,-0.225,0.135
3066,-0.210,0.140
3067,-0.210,0.130
3068,-0.200,0.130
3069,-0.210,0.135
3070,-0.220,0.140
3071,-0.215,0.125
3072,-0.220,0.145
3073,-0.225,0.150
3074,-0.225,0.175
3075,-0.240,0.215
3076,-0.265,0.240
3077,-0.295,0.265
3078,-0.360,0.260
3079,-0.430,0.255
3080,-0.460,0.210
3081,-0.410,0.145
3082,-0.230,0.060
3083,0.040,-0.005
3084,0.425,-0.050
3085,0.835,-0.070
3086,1.230,-0.050
3087,1.495,-0.015
3088,1.540,0.010
3089,1.315,0.030
3090,0.835,0.060
3091,0.310,0.130
3092,-0.130,0.255
3093,-0.390,0.395
3094,-0.500,0.565
3095,-0.515,0.720
3096,-0.510,0.835
3097,-0.545,0.910
3098,-0.610,0.970
3099,-0.700,1.015
3100,-0.810,1.065
3101,-0.895,1.080
3102,-0.945,1.080
3103,-0.945,1.050
3104,-0.930,0.980
3105,-0.870,0.875
3106,-0.825,0.785
3107,-0.745,0.675
3108,-0.655,0.575
3109,-0.555,0.460
3110,-0.465,0.370
3111,-0.410,0.275
3112,-0.335,0.240
3113,-0.295,0.200
3114,-0.260,0.195
3115,-0.235,0.170
3116,-0.230,0.160
3117,-0.220,0.150
3118,-0.225,0.130
3119,-0.205,0.125
3120,-0.210,0.125
3121,-0.205,0.110
3122,-0.190,0.105
3123,-0.195,0.105
3124,-0.180,0.105
3125,-0.175,0.100
3126,-0.165,0.095
3127,-0.155,0.110
3128,-0.155,0.100
3129,-0.155,0.090
3130,-0.165,0.090
3131,-0.150,0.070
3132,-0.155,0.065
3133,-0.170,0.070
3134,-0.160,0.055
3135,-0.160,0.065
3136,-0.140,0.065
3137,-0.120,0.075
3138,-0.125,0.080
3139,-0.125,0.070
3140,-0.130,0.065
3141,-0.110,0.055
3142,-0.115,0.055
3143,-0.110,0.050
3144,-0.110,0.040
3145,-0.115,0.040
3146,-0.130,0.035
3147,-0.120,0.040
3148,-0.105,0.050
3149,-0.070,0.045
3150,-0.065,0.055
3151,-0.055,0.045
3152,-0.065,0.045
3153,-0.060,0.050
3154,-0.050,0.030
3155,-0.050,0.035
3156,-0.045,0.025
3157,-0.040,0.020
3158,-0.045,0.015
3159,-0.030,0.020
3160,-0.020,0.025
3161,-0.010,0.035
3162,0.005,0.040
3163,0.015,0.025
3164,0.035,0.025
3165,0.030,0.015
3166,0.035,0.010
3167,0.030,0.010
3168,0.040,-0.005
3169,0.050,-0.020
3170,0.060,-0.025
3171,0.055,-0.005
3172,0.085,-0.010
3173,0.095,-0.015
3174,0.110,-0.010
3175,0.125,-0.030
3176,0.115,-0.025
3177,0.135,-0.025
3178,0.140,-0.035
3179,0.140,-0.055
3180,0.150,-0.065
3181,0.160,-0.070
3182,0.165,-0.070
3183,0.185,-0.060
3184,0.200,-0.065
3185,0.215,-0.060
3186,0.235,-0.060
3187,0.250,-0.060
3188,0.260,-0.075
3189,0.265,-0.080
3190,0.275,-0.075
3191,0.275,-0.080
3192,0.265,-0.085
3193,0.255,-0.105
3194,0.280,-0.095
3195,0.290,-0.085
3196,0.300,-0.090
3197,0.310,-0.080
3198,0.320,-0.080
3199,0.345,-0.090
3200,0.355,-0.070
3201,0.355,-0.075
3202,0.350,-0.070
3203,0.370,-0.090
3204,0.365,-0.085
3205,0.355,-0.075
3206,0.350,-0.075
3207,0.365,-0.055
3208,0.365,-0.050
3209,0.370,-0.045
3210,0.375,-0.025
3211,0.360,-0.020
3212,0.340,-0.020
3213,0.325,-0.005
3214,0.325,-0.015
3215,0.295,0.005
3216,0.275,0.010
3217,0.245,0.005
3218,0.225,0.025
3219,0.220,0.045
3220,0.190,0.065
3221,0.175,0.080
3222,0.155,0.085
3223,0.140,0.085
3224,0.110,0.100
3225,0.090,0.105
3226,0.070,0.095
3227,0.055,0.090
3228,0.025,0.090
3229,0.000,0.100
3230,-0.020,0.095
3231,-0.025,0.110
3232,-0.045,0.120
3233,-0.050,0.125
3234,-0.060,0.130
3235,-0.065,0.130
3236,-0.065,0.130
3237,-0.065,0.140
3238,-0.080,0.130
3239,-0.090,0.125
3240,-0.100,0.125
3241,-0.110,0.120
3242,-0.115,0.125
3243,-0.105,0.135
3244,-0.105,0.135
3245,-0.105,0.140
3246,-0.095,0.140
3247,-0.090,0.150
3248,-0.080,0.155
3249,-0.090,0.155
3250,-0.095,0.145
3251,-0.105,0.135
3252,-0.110,0.130
3253,-0.120,0.125
3254,-0.115,0.130
3255,-0.105,0.130
3256,-0.110,0.140
3257,-0.090,0.150
3258,-0.090,0.155
3259,-0.080,0.155
3260,-0.080,0.145
3261,-0.065,0.140
3262,-0.085,0.140
3263,-0.075,0.130
3264,-0.080,0.120
3265,-0.080,0.115
3266,-0.090,0.120
3267,-0.085,0.115
3268,-0.070,0.115
3269,-0.080,0.125
3270,-0.060,0.140
3271,-0.060,0.140
3272,-0.055,0.135
3273,-0.070,0.145
3274,-0.070,0.130
3275,-0.075,0.125
3276,-0.075,0.120
3277,-0.090,0.100
3278,-0.090,0.105
3279,-0.100,0.115
3280,-0.080,0.120
3281,-0.095,0.130
3282,-0.075,0.135
3283,-0.085,0.140
3284,-0.105,0.130
3285,-0.100,0.125
3286,-0.085,0.110
3287,-0.105,0.110
3288,-0.115,0.105
3289,-0.115,0.100
3290,-0.120,0.110
3291,-0.120,0.120
3292,-0.120,0.125
3293,-0.115,0.140
3294,-0.110,0.130
3295,-0.120,0.130
3296,-0.115,0.120
3297,-0.120,0.110
3298,-0.125,0.115
3299,-0.135,0.105
3300,-0.140,0.105
3301,-0.155,0.095
3302,-0.160,0.105
3303,-0.150,0.110
3304,-0.155,0.115
3305,-0.145,0.120
3306,-0.150,0.130
3307,-0.140,0.120
3308,-0.150,0.105
3309,-0.145,0.120
3310,-0.145,0.100
3311,-0.160,0.110
3312,-0.165,0.100
3313,-0.165,0.105
3314,-0.155,0.105
3315,-0.165,0.120
3316,-0.160,0.125
3317,-0.145,0.130
3318,-0.150,0.140
3319,-0.140,0.130
3320,-0.145,0.140
3321,-0.160,0.135
3322,-0.165,0.115
3323,-0.160,0.105
3324,-0.165,0.125
3325,-0.175,0.115
3326,-0.170,0.105
3327,-0.160,0.115
3328,-0.170,0.115
3329,-0.155,0.135
3330,-0.155,0.135
3331,-0.140,0.130
3332,-0.150,0.130
3333,-0.145,0.115
3334,-0.145,0.120
3335,-0.145,0.115
3336,-0.165,0.115
3337,-0.160,0.120
3338,-0.165,0.115
3339,-0.155,0.130
3340,-0.165,0.140
3341,-0.155,0.155
3342,-0.145,0.155
3343,-0.135,0.180
3344,-0.135,0.190
3345,-0.130,0.195
3346,-0.115,0.190
3347,-0.115,0.205
3348,-0.120,0.210
3349,-0.115,0.210
3350,-0.105,0.205
3351,-0.100,0.205
3352,-0.090,0.205
3353,-0.080,0.200
3354,-0.065,0.205
3355,-0.055,0.205
3356,-0.050,0.195
3357,-0.040,0.170
3358,-0.025,0.155
3359,-0.015,0.150
3360,0.005,0.140
3361,0.020,0.140
3362,0.020,0.145
3363,0.035,0.140
3364,0.025,0.140
3365,0.015,0.135
3366,0.010,0.140
3367,0.010,0.135
3368,-0.010,0.125
3369,-0.020,0.130
3370,-0.030,0.125
3371,-0.050,0.125
3372,-0.050,0.125
3373,-0.065,0.115
3374,-0.095,0.115
3375,-0.115,0.115
3376,-0.120,0.115
3377,-0.135,0.125
3378,-0.150,0.135
3379,-0.150,0.115
3380,-0.150,0.115
3381,-0.165,0.115
3382,-0.180,0.110
3383,-0.205,0.095
3384,-0.190,0.105
3385,-0.205,0.095
3386,-0.210,0.095
3387,-0.215,0.110
3388,-0.210,0.110
3389,-0.195,0.115
3390,-0.200,0.130
3391,-0.190,0.120
3392,-0.190,0.120
3393,-0.185,0.120
3394,-0.210,0.120
3395,-0.200,0.100
3396,-0.205,0.100
3397,-0.205,0.100
3398,-0.210,0.110
3399,-0.210,0.120
3400,-0.200,0.130
3401,-0.200,0.135
3402,-0.195,0.155
3403,-0.180,0.165
3404,-0.195,0.180
3405,-0.195,0.210
3406,-0.215,0.235
3407,-0.240,0.265
3408,-0.295,0.270
3409,-0.355,0.260
3410,-0.430,0.245
3411,-0.460,0.220
3412,-0.425,0.185
3413,-0.295,0.125
3414,-0.045,0.080
3415,0.290,0.035
3416,0.680,0.000
3417,1.070,-0.015
3418,1.390,-0.035
3419,1.590,-0.045
3420,1.605,-0.045
3421,1.380,-0.040
3422,0.960,-0.010
3423,0.450,0.045
3424,0.010,0.160
3425,-0.280,0.330
3426,-0.410,0.520
3427,-0.440,0.685
3428,-0.430,0.830
3429,-0.440,0.905
3430,-0.495,0.965
3431,-0.595,1.015
3432,-0.730,1.045
3433,-0.855,1.060
3434,-0.950,1.070
3435,-1.000,1.070
3436,-1.000,1.035
3437,-0.965,0.975
3438,-0.915,0.900
3439,-0.820,0.815
3440,-0.735,0.705
3441,-0.640,0.600
3442,-0.535,0.480
3443,-0.470,0.375
3444,-0.390,0.300
3445,-0.350,0.245
3446,-0.305,0.220
3447,-0.270,0.205
3448,-0.245,0.205
3449,-0.225,0.205
3450,-0.215,0.195
3451,-0.210,0.195
3452,-0.210,0.190
3453,-0.195,0.170
3454,-0.185,0.150
3455,-0.195,0.140
3456,-0.185,0.130
3457,-0.195,0.125
3458,-0.185,0.130
3459,-0.175,0.140
3460,-0.170,0.135
3461,-0.160,0.140
3462,-0.160,0.135
3463,-0.140,0.145
3464,-0.145,0.125
3465,-0.140,0.130
3466,-0.145,0.120
3467,-0.155,0.095
3468,-0.145,0.095
3469,-0.160,0.110
3470,-0.170,0.090
3471,-0.155,0.095
3472,-0.140,0.105
3473,-0.135,0.110
3474,-0.135,0.110
3475,-0.120,0.115
3476,-0.110,0.120
3477,-0.115,0.115
3478,-0.125,0.110
3479,-0.110,0.105
3480,-0.120,0.090
3481,-0.120,0.080
3482,-0.110,0.095
3483,-0.110,0.090
3484,-0.100,0.100
3485,-0.090,0.110
3486,-0.085,0.110
3487,-0.065,0.095
3488,-0.070,0.105
3489,-0.070,0.090
3490,-0.075,0.080
3491,-0.080,0.075
3492,-0.075,0.075
3493,-0.060,0.075
3494,-0.050,0.065
3495,-0.040,0.080
3496,-0.035,0.085
3497,-0.020,0.080
3498,-0.015,0.085
3499,0.005,0.090
3500,0.015,0.085
3501,0.025,0.070
3502,0.015,0.070
3503,0.025,0.060
3504,0.030,0.045
3505,0.030,0.040
3506,0.035,0.040
3507,0.050,0.060
3508,0.055,0.055
3509,0.065,0.050
3510,0.085,0.060
3511,0.110,0.050
3512,0.115,0.050
3513,0.125,0.030
3514,0.130,0.040
3515,0.130,0.025
3516,0.135,0.000
3517,0.140,0.015
3518,0.155,-0.005
3519,0.170,0.000
3520,0.185,0.005
3521,0.200,0.010
3522,0.225,0.000
3523,0.235,-0.005
3524,0.245,0.000
3525,0.265,-0.015
3526,0.265,-0.020
3527,0.265,-0.040
3528,0.280,-0.035
3529,0.285,-0.045
3530,0.300,-0.050
3531,0.320,-0.045
3532,0.335,-0.050
3533,0.350,-0.035
3534,0.350,-0.025
3535,0.370,-0.025
3536,0.380,-0.035
3537,0.385,-0.040
3538,0.385,-0.035
3539,0.390,-0.050
3540,0.380,-0.040
3541,0.390,-0.050
3542,0.395,-0.035
3543,0.400,-0.030
3544,0.405,-0.015
3545,0.415,-0.030
3546,0.430,-0.020
3547,0.435,-0.030
3548,0.430,-0.015
3549,0.425,-0.020
3550,0.425,-0.015
3551,0.410,-0.020
3552,0.395,-0.015
3553,0.380,-0.010
3554,0.370,0.005
3555,0.360,0.010
3556,0.340,0.025
3557,0.340,0.025
3558,0.325,0.055
3559,0.305,0.065
3560,0.290,0.070
3561,0.265,0.065
3562,0.250,0.065
3563,0.225,0.070
3564,0.185,0.075
3565,0.170,0.085
3566,0.140,0.090
3567,0.110,0.110
3568,0.105,0.125
3569,0.085,0.130
3570,0.090,0.165
3571,0.090,0.160
3572,0.075,0.160
3573,0.060,0.165
3574,0.035,0.155
3575,0.025,0.170
3576,0.005,0.160
3577,-0.020,0.165
3578,-0.025,0.175
3579,-0.035,0.175
3580,-0.040,0.185
3581,-0.035,0.205
3582,-0.030,0.210
3583,-0.035,0.205
3584,-0.035,0.205
3585,-0.040,0.200
3586,-0.055,0.195
3587,-0.060,0.195
3588,-0.075,0.190
3589,-0.095,0.190
3590,-0.095,0.195
3591,-0.100,0.190
3592,-0.095,0.200
3593,-0.090,0.205
3594,-0.070,0.225
3595,-0.065,0.220
3596,-0.070,0.210
3597,-0.070,0.215
3598,-0.075,0.205
3599,-0.080,0.190
3600,-0.095,0.185
3601,-0.100,0.200
3602,-0.095,0.180
3603,-0.090,0.185
3604,-0.095,0.190
3605,-0.095,0.200
3606,-0.075,0.220
3607,-0.075,0.215
3608,-0.080,0.205
3609,-0.060,0.200
3610,-0.065,0.205
3611,-0.070,0.195
3612,-0.075,0.190
3613,-0.095,0.190
3614,-0.085,0.185
3615,-0.080,0.180
3616,-0.085,0.190
3617,-0.085,0.200
3618,-0.085,0.200
3619,-0.080,0.205
3620,-0.085,0.200
3621,-0.090,0.190
3622,-0.100,0.190
3623,-0.095,0.180
3624,-0.115,0.170
3625,-0.125,0.170
3626,-0.120,0.170
3627,-0.125,0.180
3628,-0.120,0.185
3629,-0.120,0.185
3630,-0.125,0.195
3631,-0.110,0.190
3632,-0.110,0.190
3633,-0.110,0.185
3634,-0.120,0.185
3635,-0.130,0.170
3636,-0.140,0.165
3637,-0.155,0.165
3638,-0.165,0.160
3639,-0.150,0.165
3640,-0.135,0.165
3641,-0.140,0.180
3642,-0.125,0.175
3643,-0.130,0.185
3644,-0.140,0.180
3645,-0.145,0.170
3646,-0.160,0.180
3647,-0.175,0.165
3648,-0.175,0.160
3649,-0.160,0.165
3650,-0.150,0.160
3651,-0.145,0.160
3652,-0.140,0.170
3653,-0.140,0.180
3654,-0.135,0.195
3655,-0.135,0.185
3656,-0.125,0.175
3657,-0.145,0.175
3658,-0.165,0.165
3659,-0.180,0.160
3660,-0.195,0.155
3661,-0.195,0.155
3662,-0.180,0.135
3663,-0.185,0.155
3664,-0.175,0.165
3665,-0.185,0.170
3666,-0.170,0.170
3667,-0.175,0.165
3668,-0.180,0.170
3669,-0.165,0.165
3670,-0.165,0.170
3671,-0.165,0.170
3672,-0.165,0.170
3673,-0.175,0.170
3674,-0.175,0.160
3675,-0.175,0.165
3676,-0.165,0.175
3677,-0.165,0.195
3678,-0.175,0.210
3679,-0.165,0.215
3680,-0.160,0.235
3681,-0.135,0.230
3682,-0.145,0.245
3683,-0.130,0.240
3684,-0.130,0.235
3685,-0.140,0.240
3686,-0.130,0.225
3687,-0.130,0.235
3688,-0.130,0.235
3689,-0.115,0.230
3690,-0.075,0.230
3691,-0.060,0.235
3692,-0.040,0.220
3693,-0.020,0.210
3694,-0.010,0.185
3695,-0.005,0.170
3696,-0.005,0.175
3697,-0.020,0.165
3698,-0.015,0.165
3699,-0.020,0.175
3700,-0.015,0.175
3701,-0.005,0.165
3702,-0.010,0.180
3703,-0.005,0.185
3704,-0.025,0.205
3705,-0.045,0.190
3706,-0.075,0.200
3707,-0.090,0.175
3708,-0.120,0.165
3709,-0.125,0.155
3710,-0.140,0.150
3711,-0.170,0.155
3712,-0.175,0.160
3713,-0.185,0.165
3714,-0.180,0.165
3715,-0.175,0.165
3716,-0.175,0.160
3717,-0.180,0.155
3718,-0.190,0.140
3719,-0.210,0.140
3720,-0.215,0.130
3721,-0.215,0.130
3722,-0.225,0.135
3723,-0.220,0.135
3724,-0.215,0.155
3725,-0.205,0.155
3726,-0.200,0.160
3727,-0.210,0.160
3728,-0.210,0.155
3729,-0.220,0.165
3730,-0.240,0.160
3731,-0.230,0.140
3732,-0.235,0.140
3733,-0.220,0.130
3734,-0.225,0.140
3735,-0.205,0.165
3736,-0.195,0.165
3737,-0.185,0.175
3738,-0.190,0.205
3739,-0.190,0.225
3740,-0.200,0.260
3741,-0.220,0.280
3742,-0.255,0.300
3743,-0.315,0.305
3744,-0.370,0.290
3745,-0.435,0.245
3746,-0.455,0.215
3747,-0.395,0.150
3748,-0.215,0.095
3749,0.055,0.030
3750,0.415,0.000
3751,0.820,-0.020
3752,1.180,-0.010
3753,1.460,0.030
3754,1.575,0.045
3755,1.465,0.075
3756,1.105,0.075
3757,0.580,0.090
3758,0.075,0.155
3759,-0.315,0.270
3760,-0.510,0.435
3761,-0.550,0.595
3762,-0.515,0.750
3763,-0.490,0.855
3764,-0.500,0.945
3765,-0.560,0.995
3766,-0.655,1.015
3767,-0.770,1.050
3768,-0.870,1.060
3769,-0.940,1.080
3770,-0.970,1.075
3771,-0.975,1.030
3772,-0.930,0.995
3773,-0.875,0.940
3774,-0.810,0.890
3775,-0.730,0.810
3776,-0.650,0.715
3777,-0.575,0.605
3778,-0.495,0.490
3779,-0.425,0.380
3780,-0.360,0.300
3781,-0.325,0.245
3782,-0.280,0.210
3783,-0.245,0.215
3784,-0.230,0.210
3785,-0.210,0.205
3786,-0.205,0.215
3787,-0.195,0.195
3788,-0.190,0.190
3789,-0.180,0.170
3790,-0.180,0.160
3791,-0.180,0.150
3792,-0.175,0.140
3793,-0.175,0.120
3794,-0.180,0.130
3795,-0.170,0.115
3796,-0.165,0.125
3797,-0.140,0.140
3798,-0.125,0.155
3799,-0.130,0.150
3800,-0.125,0.135
3801,-0.115,0.135
3802,-0.120,0.120
3803,-0.130,0.115
3804,-0.125,0.095
3805,-0.140,0.105
3806,-0.140,0.105
3807,-0.135,0.100
3808,-0.135,0.115
3809,-0.130,0.110
3810,-0.110,0.115
3811,-0.105,0.125
3812,-0.095,0.115
3813,-0.075,0.120
3814,-0.070,0.110
3815,-0.080,0.105
3816,-0.075,0.090
3817,-0.085,0.095
3818,-0.070,0.085
3819,-0.080,0.075
3820,-0.070,0.095
3821,-0.075,0.115
3822,-0.075,0.100
3823,-0.060,0.095
3824,-0.050,0.090
3825,-0.030,0.100
3826,-0.030,0.075
3827,-0.025,0.075
3828,-0.015,0.070
3829,-0.010,0.070
3830,-0.005,0.070
3831,-0.005,0.070
3832,0.005,0.070
3833,0.015,0.070
3834,0.030,0.090
3835,0.050,0.080
3836,0.055,0.065
3837,0.065,0.070
3838,0.065,0.055
3839,0.060,0.040
3840,0.050,0.045
3841,0.055,0.035
3842,0.065,0.030
3843,0.080,0.025
3844,0.090,0.030
3845,0.100,0.015
3846,0.115,0.025
3847,0.145,0.035
3848,0.150,0.020
3849,0.175,0.030
3850,0.175,0.000
3851,0.180,0.000
3852,0.180,-0.005
3853,0.185,-0.010
3854,0.190,-0.020
3855,0.195,-0.025
3856,0.210,-0.020
3857,0.215,-0.020
3858,0.240,-0.020
3859,0.255,-0.030
3860,0.265,-0.025
3861,0.290,-0.045
3862,0.295,-0.050
3863,0.295,-0.055
3864,0.315,-0.070
3865,0.325,-0.065
3866,0.335,-0.070
3867,0.330,-0.070
3868,0.320,-0.060
3869,0.320,-0.055
3870,0.335,-0.060
3871,0.350,-0.050
3872,0.360,-0.050
3873,0.385,-0.045
3874,0.395,-0.070
3875,0.420,-0.065
3876,0.415,-0.075
3877,0.410,-0.075
3878,0.410,-0.070
3879,0.395,-0.080
3880,0.395,-0.055
3881,0.385,-0.045
3882,0.385,-0.035
3883,0.400,-0.030
3884,0.395,-0.020
3885,0.375,-0.010
3886,0.355,-0.005
3887,0.330,-0.010
3888,0.320,0.000
3889,0.295,0.000
3890,0.270,0.010
3891,0.255,0.025
3892,0.240,0.040
3893,0.215,0.065
3894,0.210,0.085
3895,0.195,0.095
3896,0.165,0.115
3897,0.140,0.115
3898,0.125,0.115
3899,0.085,0.100
3900,0.065,0.130
3901,0.050,0.135
3902,0.020,0.135
3903,0.000,0.145
3904,-0.010,0.155
3905,-0.015,0.165
3906,-0.025,0.175
3907,-0.025,0.185
3908,-0.035,0.180
3909,-0.050,0.190
3910,-0.060,0.190
3911,-0.065,0.180
3912,-0.080,0.170
3913,-0.100,0.175
3914,-0.090,0.185
3915,-0.105,0.185
3916,-0.105,0.185
3917,-0.100,0.205
3918,-0.090,0.210
3919,-0.080,0.215
3920,-0.090,0.220
3921,-0.100,0.220
3922,-0.095,0.215
3923,-0.090,0.205
3924,-0.090,0.185
3925,-0.080,0.180
3926,-0.095,0.185
3927,-0.095,0.195
3928,-0.090,0.195
3929,-0.085,0.195
3930,-0.085,0.210
3931,-0.065,0.205
3932,-0.060,0.200
3933,-0.050,0.205
3934,-0.055,0.195
3935,-0.045,0.200
3936,-0.055,0.180
3937,-0.060,0.185
3938,-0.070,0.170
3939,-0.080,0.185
3940,-0.070,0.180
3941,-0.060,0.185
3942,-0.060,0.190
3943,-0.065,0.190
3944,-0.060,0.200
3945,-0.065,0.200
3946,-0.070,0.185
3947,-0.080,0.180
3948,-0.075,0.155
3949,-0.075,0.170
3950,-0.105,0.170
3951,-0.105,0.180
3952,-0.090,0.185
3953,-0.085,0.190
3954,-0.090,0.190
3955,-0.095,0.195
3956,-0.090,0.195
3957,-0.100,0.195
3958,-0.110,0.185
3959,-0.100,0.180
3960,-0.115,0.175
3961,-0.110,0.165
3962,-0.115,0.165
3963,-0.120,0.175
3964,-0.120,0.170
3965,-0.115,0.185
3966,-0.105,0.185
3967,-0.110,0.180
3968,-0.105,0.180
3969,-0.105,0.190
3970,-0.110,0.185
3971,-0.120,0.175
3972,-0.130,0.175
3973,-0.140,0.165
3974,-0.135,0.175
3975,-0.145,0.170
3976,-0.140,0.165
3977,-0.140,0.180
3978,-0.130,0.185
3979,-0.125,0.195
3980,-0.120,0.190
3981,-0.115,0.200
3982,-0.110,0.205
3983,-0.120,0.200
3984,-0.110,0.220
3985,-0.115,0.215
3986,-0.120,0.230
3987,-0.100,0.240
3988,-0.095,0.245
3989,-0.075,0.245
3990,-0.065,0.240
3991,-0.050,0.245
3992,-0.045,0.245
3993,-0.040,0.235
3994,-0.040,0.235
3995,-0.035,0.210
3996,-0.025,0.210
3997,-0.010,0.195
3998,0.010,0.190
3999,0.025,0.185
4000,0.035,0.185
4001,0.045,0.195
4002,0.050,0.190
4003,0.045,0.200
4004,0.040,0.185
4005,0.025,0.180
4006,0.015,0.160
4007,-0.005,0.170
4008,-0.020,0.170
4009,-0.050,0.165
4010,-0.065,0.155
4011,-0.095,0.170
4012,-0.110,0.165
4013,-0.120,0.155
4014,-0.125,0.165
4015,-0.135,0.180
4016,-0.145,0.170
4017,-0.160,0.160
4018,-0.180,0.160
4019,-0.185,0.160
4020,-0.205,0.140
4021,-0.205,0.140
4022,-0.205,0.140
4023,-0.205,0.135
4024,-0.215,0.160
4025,-0.210,0.160
4026,-0.195,0.160
4027,-0.190,0.160
4028,-0.200,0.165
4029,-0.195,0.155
4030,-0.200,0.160
4031,-0.210,0.150
4032,-0.220,0.150
4033,-0.230,0.155
4034,-0.240,0.150
4035,-0.230,0.165
4036,-0.225,0.165
4037,-0.210,0.185
4038,-0.215,0.180
4039,-0.210,0.185
4040,-0.215,0.185
4041,-0.210,0.195
4042,-0.200,0.205
4043,-0.210,0.210
4044,-0.220,0.230
4045,-0.240,0.255
4046,-0.280,0.290
4047,-0.325,0.300
4048,-0.380,0.295
4049,-0.450,0.265
4050,-0.445,0.220
4051,-0.375,0.155
4052,-0.175,0.085
4053,0.125,0.015
4054,0.515,-0.020
4055,0.925,-0.010
4056,1.290,0.000
4057,1.520,0.050
4058,1.525,0.060
4059,1.235,0.080
4060,0.740,0.115
4061,0.200,0.165
4062,-0.230,0.290
4063,-0.480,0.445
4064,-0.555,0.615
4065,-0.550,0.765
4066,-0.520,0.860
4067,-0.530,0.940
4068,-0.585,0.975
4069,-0.680,1.020
4070,-0.800,1.050
4071,-0.895,1.090
4072,-0.960,1.100
4073,-0.965,1.105
4074,-0.960,1.050
4075,-0.915,0.985
4076,-0.855,0.895
4077,-0.785,0.800
4078,-0.690,0.695
4079,-0.600,0.580
4080,-0.520,0.470
4081,-0.455,0.380
4082,-0.385,0.310
4083,-0.330,0.260
4084,-0.290,0.230
4085,-0.265,0.230
4086,-0.245,0.205
4087,-0.220,0.205
4088,-0.210,0.205
4089,-0.215,0.200
4090,-0.215,0.185
4091,-0.210,0.165
4092,-0.195,0.155
4093,-0.190,0.135
4094,-0.190,0.140
4095,-0.195,0.135
4096,-0.190,0.130
4097,-0.175,0.130
4098,-0.155,0.140
4099,-0.145,0.135
4100,-0.145,0.140
4101,-0.150,0.125
4102,-0.140,0.130
4103,-0.145,0.100
4104,-0.155,0.095
4105,-0.165,0.105
4106,-0.165,0.115
4107,-0.165,0.105
4108,-0.150,0.115
4109,-0.150,0.120
4110,-0.140,0.125
4111,-0.130,0.135
4112,-0.120,0.125
4113,-0.120,0.115
4114,-0.120,0.105
4115,-0.130,0.105
4116,-0.120,0.090
4117,-0.120,0.085
4118,-0.120,0.090
4119,-0.120,0.095
4120,-0.105,0.090
4121,-0.100,0.095
4122,-0.095,0.100
4123,-0.075,0.095
4124,-0.065,0.095
4125,-0.060,0.095
4126,-0.055,0.075
4127,-0.065,0.075
4128,-0.060,0.065
4129,-0.060,0.070
4130,-0.070,0.065
4131,-0.055,0.060
4132,-0.040,0.065
4133,-0.030,0.070
4134,-0.035,0.075
4135,0.005,0.070
4136,0.000,0.065
4137,-0.005,0.060
4138,0.005,0.040
4139,0.010,0.040
4140,0.020,0.035
4141,0.025,0.035
4142,0.030,0.025
4143,0.030,0.035
4144,0.040,0.025
4145,0.055,0.030
4146,0.070,0.040
4147,0.095,0.035
4148,0.100,0.030
4149,0.105,0.020
4150,0.115,0.015
4151,0.115,0.005
4152,0.120,-0.015
4153,0.130,-0.020
4154,0.130,-0.025
4155,0.140,-0.025
4156,0.150,-0.020
4157,0.175,-0.010
4158,0.175,-0.015
4159,0.190,-0.005
4160,0.210,-0.020
4161,0.235,-0.020
4162,0.235,-0.035
4163,0.245,-0.050
4164,0.240,-0.065
4165,0.235,-0.060
4166,0.255,-0.055
4167,0.260,-0.040
4168,0.265,-0.030
4169,0.280,-0.045
4170,0.295,-0.035
4171,0.305,-0.030
4172,0.310,-0.035
4173,0.320,-0.040
4174,0.325,-0.045
4175,0.320,-0.045
4176,0.325,-0.050
4177,0.330,-0.035
4178,0.335,-0.035
4179,0.345,-0.025
4180,0.355,-0.020
4181,0.360,0.000
4182,0.350,0.005
4183,0.355,0.010
4184,0.340,0.025
4185,0.335,0.030
4186,0.320,0.025
4187,0.300,0.030
4188,0.280,0.030
4189,0.255,0.055
4190,0.245,0.050
4191,0.230,0.070
4192,0.215,0.090
4193,0.195,0.095
4194,0.170,0.115
4195,0.165,0.110
4196,0.135,0.130
4197,0.115,0.130
4198,0.095,0.140
4199,0.080,0.140
4200,0.045,0.145
4201,0.005,0.150
4202,0.005,0.150
4203,-0.025,0.160
4204,-0.030,0.150
4205,-0.040,0.180
4206,-0.050,0.195
4207,-0.060,0.190
4208,-0.060,0.205
4209,-0.075,0.200
4210,-0.075,0.210
4211,-0.080,0.195
4212,-0.105,0.185
4213,-0.115,0.200
4214,-0.125,0.185
4215,-0.125,0.190
4216,-0.130,0.200
4217,-0.125,0.215
4218,-0.120,0.215
4219,-0.115,0.220
4220,-0.125,0.210
4221,-0.115,0.215
4222,-0.100,0.195
4223,-0.120,0.195
4224,-0.120,0.190
4225,-0.125,0.190
4226,-0.125,0.190
4227,-0.120,0.185
4228,-0.125,0.205
4229,-0.100,0.210
4230,-0.095,0.205
4231,-0.090,0.215
4232,-0.085,0.215
4233,-0.085,0.200
4234,-0.090,0.215
4235,-0.095,0.200
4236,-0.100,0.185
4237,-0.090,0.185
4238,-0.090,0.185
4239,-0.080,0.185
4240,-0.080,0.205
4241,-0.080,0.210
4242,-0.085,0.210
4243,-0.080,0.200
4244,-0.085,0.190
4245,-0.095,0.200
4246,-0.085,0.205
4247,-0.095,0.190
4248,-0.090,0.180
4249,-0.100,0.165
4250,-0.105,0.180
4251,-0.100,0.175
4252,-0.105,0.180
4253,-0.105,0.195
4254,-0.105,0.200
4255,-0.095,0.205
4256,-0.095,0.210
4257,-0.095,0.185
4258,-0.100,0.195
4259,-0.100,0.190
4260,-0.115,0.185
4261,-0.120,0.180
4262,-0.130,0.175
4263,-0.130,0.190
4264,-0.130,0.195
4265,-0.115,0.200
4266,-0.125,0.205
4267,-0.125,0.200
4268,-0.120,0.195
4269,-0.125,0.195
4270,-0.125,0.195
4271,-0.145,0.190
4272,-0.135,0.180
4273,-0.145,0.180
4274,-0.150,0.175
4275,-0.145,0.190
4276,-0.150,0.195
4277,-0.155,0.210
4278,-0.135,0.215
4279,-0.130,0.210
4280,-0.135,0.210
4281,-0.135,0.210
4282,-0.135,0.185
4283,-0.140,0.190
4284,-0.140,0.190
4285,-0.165,0.195
4286,-0.170,0.185
4287,-0.160,0.185
4288,-0.160,0.185
4289,-0.170,0.190
4290,-0.165,0.205
4291,-0.150,0.195
4292,-0.155,0.205
4293,-0.155,0.200
4294,-0.150,0.185
4295,-0.160,0.185
4296,-0.165,0.180
4297,-0.180,0.165
4298,-0.170,0.165
4299,-0.180,0.165
4300,-0.170,0.175
4301,-0.165,0.185
4302,-0.165,0.190
4303,-0.160,0.195
4304,-0.170,0.200
4305,-0.155,0.200
4306,-0.150,0.200
4307,-0.170,0.185
4308,-0.160,0.185
4309,-0.180,0.190
4310,-0.180,0.185
4311,-0.180,0.180
4312,-0.180,0.190
4313,-0.165,0.200
4314,-0.160,0.215
4315,-0.150,0.215
4316,-0.150,0.225
4317,-0.140,0.240
4318,-0.140,0.250
4319,-0.135,0.255
4320,-0.130,0.265
4321,-0.130,0.255
4322,-0.130,0.270
4323,-0.125,0.265
4324,-0.115,0.265
4325,-0.095,0.255
4326,-0.080,0.250
4327,-0.060,0.240
4328,-0.060,0.215
4329,-0.040,0.220
4330,-0.010,0.200
4331,0.005,0.190
4332,0.020,0.175
4333,0.025,0.170
4334,0.015,0.160
4335,0.010,0.165
4336,-0.005,0.160
4337,-0.020,0.165
4338,-0.020,0.180
4339,-0.040,0.175
4340,-0.040,0.185
4341,-0.050,0.190
4342,-0.060,0.170
4343,-0.085,0.170
4344,-0.110,0.150
4345,-0.145,0.140
4346,-0.170,0.140
4347,-0.185,0.155
4348,-0.190,0.155
4349,-0.195,0.160
4350,-0.180,0.165
4351,-0.180,0.170
4352,-0.190,0.165
4353,-0.185,0.170
4354,-0.185,0.150
4355,-0.200,0.150
4356,-0.210,0.140
4357,-0.225,0.145
4358,-0.235,0.145
4359,-0.225,0.155
4360,-0.235,0.165
4361,-0.220,0.165
4362,-0.210,0.175
4363,-0.205,0.180
4364,-0.210,0.195
4365,-0.200,0.170
4366,-0.205,0.180
4367,-0.210,0.165
4368,-0.205,0.170
4369,-0.210,0.175
4370,-0.210,0.185
4371,-0.220,0.225
4372,-0.230,0.255
4373,-0.250,0.310
4374,-0.285,0.335
4375,-0.345,0.330
4376,-0.415,0.315
4377,-0.460,0.280
4378,-0.430,0.210
4379,-0.325,0.145
4380,-0.080,0.085
4381,0.250,0.025
4382,0.650,0.005
4383,1.060,-0.005
4384,1.395,0.000
4385,1.580,0.015
4386,1.560,0.025
4387,1.295,0.035
4388,0.825,0.065
4389,0.300,0.145
4390,-0.105,0.285
4391,-0.355,0.455
4392,-0.445,0.620
4393,-0.450,0.780
4394,-0.455,0.885
4395,-0.470,0.965
4396,-0.540,1.025
4397,-0.625,1.065
4398,-0.765,1.090
4399,-0.870,1.120
4400,-0.955,1.115
4401,-0.990,1.100
4402,-0.995,1.030
4403,-0.965,0.960
4404,-0.915,0.870
4405,-0.845,0.795
4406,-0.750,0.690
4407,-0.655,0.590
4408,-0.565,0.495
4409,-0.470,0.420
4410,-0.390,0.360
4411,-0.325,0.310
4412,-0.285,0.275
4413,-0.260,0.260
4414,-0.245,0.235
4415,-0.245,0.220
4416,-0.230,0.205
4417,-0.235,0.190
4418,-0.230,0.205
4419,-0.225,0.200
4420,-0.220,0.200
4421,-0.200,0.190
4422,-0.200,0.195
4423,-0.185,0.195
4424,-0.170,0.190
4425,-0.175,0.180
4426,-0.170,0.155
4427,-0.175,0.165
4428,-0.175,0.155
4429,-0.185,0.150
4430,-0.185,0.140
4431,-0.190,0.145
4432,-0.175,0.155
4433,-0.170,0.160
4434,-0.165,0.165
4435,-0.150,0.170
4436,-0.145,0.165
4437,-0.145,0.160
4438,-0.150,0.155
4439,-0.145,0.150
4440,-0.155,0.145
4441,-0.145,0.140
4442,-0.145,0.140
4443,-0.160,0.145
4444,-0.150,0.155
4445,-0.145,0.155
4446,-0.135,0.155
4447,-0.120,0.155
4448,-0.115,0.155
4449,-0.120,0.160
4450,-0.115,0.150
4451,-0.100,0.150
4452,-0.100,0.140
4453,-0.105,0.140
4454,-0.115,0.125
4455,-0.110,0.135
4456,-0.105,0.135
4457,-0.075,0.140
4458,-0.075,0.130
4459,-0.055,0.135
4460,-0.040,0.135
4461,-0.045,0.130
4462,-0.040,0.125
4463,-0.035,0.120
4464,-0.025,0.105
4465,-0.035,0.105
4466,-0.035,0.100
4467,-0.020,0.115
4468,-0.005,0.110
4469,0.000,0.110
4470,0.010,0.110
4471,0.030,0.130
4472,0.050,0.125
4473,0.040,0.115
4474,0.065,0.105
4475,0.055,0.100
4476,0.070,0.085
4477,0.060,0.075
4478,0.060,0.080
4479,0.075,0.085
4480,0.070,0.085
4481,0.080,0.080
4482,0.095,0.065
4483,0.125,0.085
4484,0.135,0.065
4485,0.170,0.060
4486,0.180,0.045
4487,0.195,0.040
4488,0.200,0.035
4489,0.200,0.015
4490,0.205,0.020
4491,0.220,0.000
4492,0.230,0.010
4493,0.250,0.015
4494,0.270,0.030
4495,0.280,0.015
4496,0.300,0.015
4497,0.305,0.005
4498,0.305,0.015
4499,0.315,-0.010
4500,0.320,-0.005
4501,0.325,-0.025
4502,0.345,-0.020
4503,0.360,-0.030
4504,0.370,-0.010
4505,0.375,-0.005
4506,0.385,0.010
4507,0.385,0.010
4508,0.390,0.010
4509,0.390,-0.005
4510,0.400,-0.020
4511,0.410,-0.010
4512,0.410,-0.010
4513,0.420,-0.020
4514,0.410,0.000
4515,0.415,0.000
4516,0.395,0.005
4517,0.395,0.015
4518,0.385,0.030
4519,0.395,0.045
4520,0.380,0.035
4521,0.375,0.045
4522,0.380,0.045
4523,0.355,0.050
4524,0.320,0.060
4525,0.290,0.075
4526,0.250,0.080
4527,0.230,0.080
4528,0.210,0.090
4529,0.200,0.095
4530,0.190,0.115
4531,0.200,0.135
4532,0.170,0.135
4533,0.155,0.155
4534,0.135,0.145
4535,0.095,0.155
4536,0.095,0.155
4537,0.060,0.150
4538,0.040,0.165
4539,0.015,0.175
4540,0.005,0.185
4541,-0.015,0.205
4542,-0.035,0.210
4543,-0.045,0.220
4544,-0.055,0.220
4545,-0.070,0.235
4546,-0.080,0.215
4547,-0.095,0.225
4548,-0.100,0.215
4549,-0.105,0.225
4550,-0.120,0.230
4551,-0.110,0.225
4552,-0.110,0.225
4553,-0.110,0.245
4554,-0.120,0.255
4555,-0.120,0.245
4556,-0.120,0.255
4557,-0.120,0.250
4558,-0.120,0.245
4559,-0.130,0.240
4560,-0.125,0.235
4561,-0.125,0.235
4562,-0.125,0.235
4563,-0.130,0.235
4564,-0.145,0.245
4565,-0.150,0.255
4566,-0.140,0.255
4567,-0.125,0.250
4568,-0.130,0.250
4569,-0.125,0.255
4570,-0.130,0.255
4571,-0.125,0.240
4572,-0.135,0.225
4573,-0.130,0.225
4574,-0.125,0.230
4575,-0.120,0.230
4576,-0.125,0.240
4577,-0.125,0.240
4578,-0.130,0.245
4579,-0.130,0.245
4580,-0.130,0.240
4581,-0.135,0.235
4582,-0.140,0.240
4583,-0.145,0.225
4584,-0.145,0.230
4585,-0.150,0.225
4586,-0.155,0.220
4587,-0.165,0.225
4588,-0.175,0.225
4589,-0.165,0.215
4590,-0.150,0.230
4591,-0.125,0.235
4592,-0.120,0.235
4593,-0.120,0.240
4594,-0.120,0.230
4595,-0.135,0.225
4596,-0.145,0.215
4597,-0.180,0.215
4598,-0.180,0.210
4599,-0.195,0.205
4600,-0.195,0.210
4601,-0.190,0.220
4602,-0.185,0.220
4603,-0.185,0.225
4604,-0.170,0.230
4605,-0.170,0.225
4606,-0.170,0.225
4607,-0.185,0.230
4608,-0.185,0.220
4609,-0.180,0.200
4610,-0.190,0.190
4611,-0.185,0.200
4612,-0.185,0.200
4613,-0.175,0.205
4614,-0.185,0.220
4615,-0.190,0.215
4616,-0.180,0.220
4617,-0.195,0.220
4618,-0.195,0.220
4619,-0.200,0.210
4620,-0.205,0.210
4621,-0.210,0.185
4622,-0.230,0.195
4623,-0.230,0.195
4624,-0.245,0.200
4625,-0.235,0.195
4626,-0.220,0.210
4627,-0.205,0.200
4628,-0.195,0.205
4629,-0.185,0.205
4630,-0.185,0.210
4631,-0.195,0.205
4632,-0.200,0.200
4633,-0.215,0.185
4634,-0.210,0.205
4635,-0.215,0.195
4636,-0.200,0.190
4637,-0.205,0.210
4638,-0.210,0.235
4639,-0.210,0.235
4640,-0.210,0.230
4641,-0.240,0.235
4642,-0.230,0.230
4643,-0.215,0.225
4644,-0.200,0.220
4645,-0.180,0.240
4646,-0.160,0.260
4647,-0.145,0.260
4648,-0.145,0.280
4649,-0.155,0.285
4650,-0.140,0.285
4651,-0.130,0.305
4652,-0.120,0.280
4653,-0.120,0.270
4654,-0.115,0.265
4655,-0.120,0.245
4656,-0.120,0.250
4657,-0.125,0.230
4658,-0.100,0.225
4659,-0.075,0.225
4660,-0.060,0.215
4661,-0.035,0.210
4662,-0.020,0.210
4663,-0.005,0.225
4664,0.005,0.215
4665,-0.020,0.205
4666,-0.035,0.200
4667,-0.045,0.180
4668,-0.065,0.185
4669,-0.090,0.195
4670,-0.120,0.185
4671,-0.125,0.210
4672,-0.160,0.195
4673,-0.170,0.205
4674,-0.180,0.190
4675,-0.175,0.190
4676,-0.185,0.180
4677,-0.190,0.195
4678,-0.200,0.180
4679,-0.215,0.180
4680,-0.235,0.175
4681,-0.240,0.175
4682,-0.235,0.170
4683,-0.230,0.170
4684,-0.230,0.175
4685,-0.220,0.180
4686,-0.230,0.190
4687,-0.235,0.205
4688,-0.235,0.200
4689,-0.240,0.190
4690,-0.260,0.185
4691,-0.255,0.175
4692,-0.250,0.170
4693,-0.250,0.165
4694,-0.255,0.175
4695,-0.255,0.170
4696,-0.255,0.180
4697,-0.250,0.195
4698,-0.255,0.200
4699,-0.245,0.215
4700,-0.250,0.220
4701,-0.260,0.215
4702,-0.260,0.225
4703,-0.250,0.220
4704,-0.255,0.225
4705,-0.245,0.250
4706,-0.270,0.270
4707,-0.300,0.310
4708,-0.340,0.320
4709,-0.380,0.315
4710,-0.435,0.295
4711,-0.485,0.270
4712,-0.470,0.225
4713,-0.360,0.150
4714,-0.135,0.090
4715,0.165,0.030
4716,0.535,0.010
4717,0.910,0.010
4718,1.245,0.030
4719,1.480,0.085
4720,1.545,0.135
4721,1.380,0.140
4722,0.995,0.170
4723,0.470,0.185
4724,-0.045,0.255
4725,-0.395,0.370
4726,-0.580,0.510
4727,-0.595,0.640
4728,-0.575,0.765
4729,-0.540,0.850
4730,-0.540,0.920
4731,-0.580,0.965
4732,-0.675,1.015
4733,-0.765,1.060
4734,-0.875,1.085
4735,-0.950,1.120
4736,-0.995,1.125
4737,-1.000,1.105
4738,-0.985,1.065
4739,-0.970,1.000
4740,-0.945,0.940
4741,-0.900,0.875
4742,-0.825,0.800
4743,-0.750,0.730
4744,-0.655,0.655
4745,-0.560,0.550
4746,-0.470,0.450
4747,-0.405,0.380
4748,-0.345,0.305
4749,-0.330,0.270
4750,-0.305,0.245
4751,-0.295,0.230
4752,-0.285,0.225
4753,-0.285,0.215
4754,-0.270,0.215
4755,-0.260,0.185
4756,-0.260,0.190
4757,-0.240,0.190
4758,-0.225,0.195
4759,-0.205,0.200
4760,-0.190,0.195
4761,-0.180,0.175
4762,-0.175,0.165
4763,-0.185,0.155
4764,-0.195,0.145
4765,-0.200,0.145
4766,-0.215,0.140
4767,-0.215,0.140
4768,-0.225,0.145
4769,-0.205,0.140
4770,-0.210,0.140
4771,-0.180,0.160
4772,-0.165,0.160
4773,-0.155,0.165
4774,-0.145,0.145
4775,-0.150,0.135
4776,-0.155,0.120
4777,-0.150,0.120
4778,-0.165,0.115
4779,-0.155,0.115
4780,-0.160,0.110
4781,-0.150,0.105
4782,-0.155,0.120
4783,-0.170,0.125
4784,-0.165,0.110
4785,-0.160,0.125
4786,-0.145,0.110
4787,-0.125,0.100
4788,-0.110,0.100
4789,-0.090,0.085
4790,-0.080,0.085
4791,-0.085,0.085
4792,-0.085,0.090
4793,-0.090,0.095
4794,-0.090,0.095
4795,-0.095,0.100
4796,-0.095,0.095
4797,-0.090,0.100
4798,-0.080,0.085
4799,-0.085,0.075
4800,-0.080,0.065
4801,-0.070,0.060
4802,-0.050,0.065
4803,-0.030,0.075
4804,-0.020,0.075
4805,-0.005,0.080
4806,0.000,0.085
4807,0.000,0.090
4808,0.020,0.075
4809,0.010,0.075
4810,0.030,0.050
4811,0.030,0.040
4812,0.035,0.025
4813,0.030,0.035
4814,0.050,0.030
4815,0.050,0.025
4816,0.070,0.025
4817,0.090,0.030
4818,0.105,0.035
4819,0.115,0.030
4820,0.130,0.010
4821,0.125,0.005
4822,0.140,0.005
4823,0.135,-0.015
4824,0.150,-0.005
4825,0.155,-0.015
4826,0.155,-0.020
4827,0.175,-0.020
4828,0.180,-0.020
4829,0.195,-0.025
4830,0.215,-0.035
4831,0.245,-0.025
4832,0.260,-0.030
4833,0.270,-0.025
4834,0.280,-0.045
4835,0.290,-0.035
4836,0.290,-0.045
4837,0.280,-0.060
4838,0.280,-0.060
4839,0.275,-0.050
4840,0.295,-0.070
4841,0.295,-0.045
4842,0.300,-0.055
4843,0.325,-0.050
4844,0.345,-0.050
4845,0.355,-0.035
4846,0.355,-0.045
4847,0.370,-0.045
4848,0.345,-0.045
4849,0.350,-0.045
4850,0.320,-0.050
4851,0.335,-0.035
4852,0.330,-0.030
4853,0.325,0.010
4854,0.310,0.005
4855,0.300,0.035
4856,0.275,0.030
4857,0.255,0.035
4858,0.230,0.055
4859,0.205,0.065
4860,0.185,0.065
4861,0.170,0.075
4862,0.135,0.085
4863,0.105,0.095
4864,0.090,0.125
4865,0.075,0.135
4866,0.050,0.150
4867,0.035,0.175
4868,0.030,0.180
4869,0.000,0.185
4870,-0.015,0.195
4871,-0.030,0.190
4872,-0.055,0.180
4873,-0.070,0.195
4874,-0.085,0.195
4875,-0.090,0.205
4876,-0.110,0.215
4877,-0.115,0.220
4878,-0.110,0.240
4879,-0.115,0.235
4880,-0.120,0.235
4881,-0.130,0.230
4882,-0.125,0.225
4883,-0.130,0.235
4884,-0.140,0.230
4885,-0.145,0.215
4886,-0.155,0.225
4887,-0.165,0.200
4888,-0.160,0.220
4889,-0.150,0.215
4890,-0.145,0.240
4891,-0.145,0.255
4892,-0.120,0.245
4893,-0.125,0.235
4894,-0.130,0.240
4895,-0.135,0.220
4896,-0.125,0.220
4897,-0.130,0.205
4898,-0.140,0.205
4899,-0.145,0.210
4900,-0.130,0.215
4901,-0.140,0.210
4902,-0.125,0.200
4903,-0.110,0.230
4904,-0.105,0.220
4905,-0.105,0.215
4906,-0.105,0.200
4907,-0.110,0.195
4908,-0.125,0.210
4909,-0.130,0.190
4910,-0.135,0.185
4911,-0.135,0.190
4912,-0.140,0.190
4913,-0.135,0.195
4914,-0.135,0.200
4915,-0.135,0.205
4916,-0.135,0.210
4917,-0.145,0.210
4918,-0.135,0.200
4919,-0.140,0.195
4920,-0.150,0.180
4921,-0.160,0.185
4922,-0.175,0.175
4923,-0.170,0.170
4924,-0.175,0.185
4925,-0.170,0.195
4926,-0.170,0.200
4927,-0.165,0.200
4928,-0.175,0.200
4929,-0.185,0.190
4930,-0.170,0.200
4931,-0.190,0.185
4932,-0.190,0.170
4933,-0.195,0.175
4934,-0.200,0.165
4935,-0.205,0.165
4936,-0.215,0.180
4937,-0.215,0.185
4938,-0.205,0.190
4939,-0.205,0.195
4940,-0.200,0.195
4941,-0.200,0.190
4942,-0.200,0.190
4943,-0.210,0.180
4944,-0.215,0.175
4945,-0.215,0.170
4946,-0.230,0.170
4947,-0.215,0.180
4948,-0.245,0.175
4949,-0.230,0.180
4950,-0.225,0.190
4951,-0.210,0.200
4952,-0.215,0.200
4953,-0.220,0.195
4954,-0.225,0.195
4955,-0.230,0.205
4956,-0.230,0.205
4957,-0.240,0.205
4958,-0.245,0.205
4959,-0.225,0.220
4960,-0.220,0.235
4961,-0.215,0.260
4962,-0.215,0.280
4963,-0.195,0.280
4964,-0.175,0.275
4965,-0.165,0.265
4966,-0.165,0.255
4967,-0.160,0.245
4968,-0.165,0.230
4969,-0.155,0.220
4970,-0.160,0.205
4971,-0.150,0.205
4972,-0.120,0.210
4973,-0.095,0.210
4974,-0.075,0.205
4975,-0.045,0.210
4976,-0.035,0.200
4977,-0.030,0.200
4978,-0.045,0.180
4979,-0.055,0.170
4980,-0.065,0.160
4981,-0.085,0.150
4982,-0.100,0.145
4983,-0.105,0.145
4984,-0.115,0.165
4985,-0.125,0.165
4986,-0.130,0.175
4987,-0.135,0.175
4988,-0.140,0.170
4989,-0.175,0.155
4990,-0.175,0.135
4991,-0.215,0.125
4992,-0.240,0.125
4993,-0.260,0.120
4994,-0.270,0.125
4995,-0.275,0.130
4996,-0.280,0.135
4997,-0.285,0.135
4998,-0.270,0.140
4999,-0.265,0.150
5000,-0.265,0.145
5001,-0.265,0.145
5002,-0.270,0.140
5003,-0.275,0.130
5004,-0.270,0.135
5005,-0.280,0.125
5006,-0.285,0.125
5007,-0.290,0.125
5008,-0.295,0.130
5009,-0.295,0.140
5010,-0.285,0.155
5011,-0.270,0.160
5012,-0.270,0.150
5013,-0.255,0.140
5014,-0.265,0.145
5015,-0.285,0.140
5016,-0.280,0.130
5017,-0.285,0.130
5018,-0.290,0.135
5019,-0.295,0.170
5020,-0.285,0.190
5021,-0.290,0.220
5022,-0.300,0.265
5023,-0.315,0.320
5024,-0.360,0.315
5025,-0.440,0.310
5026,-0.510,0.280
5027,-0.540,0.220
5028,-0.485,0.150
5029,-0.345,0.075
5030,-0.085,0.020
5031,0.280,-0.020
5032,0.685,-0.035
5033,1.080,-0.030
5034,1.370,-0.010
5035,1.490,-0.005
5036,1.415,0.000
5037,1.065,0.015
5038,0.575,0.055
5039,0.085,0.140
5040,-0.260,0.285
5041,-0.455,0.465
5042,-0.525,0.625
5043,-0.535,0.770
5044,-0.540,0.880
5045,-0.565,0.955
5046,-0.650,1.000
5047,-0.755,1.050
5048,-0.875,1.070
5049,-0.960,1.090
5050,-1.020,1.075
5051,-1.045,1.025
5052,-1.025,0.960
5053,-0.990,0.865
5054,-0.925,0.765
5055,-0.855,0.670
5056,-0.755,0.565
5057,-0.660,0.465
5058,-0.565,0.385
5059,-0.485,0.305
5060,-0.420,0.265
5061,-0.375,0.210
5062,-0.340,0.185
5063,-0.330,0.180
5064,-0.325,0.170
5065,-0.325,0.150
5066,-0.320,0.140
5067,-0.315,0.150
5068,-0.300,0.145
5069,-0.280,0.130
5070,-0.280,0.135
5071,-0.270,0.140
5072,-0.255,0.135
5073,-0.250,0.125
5074,-0.245,0.120
5075,-0.250,0.115
5076,-0.245,0.110
5077,-0.250,0.105
5078,-0.250,0.105
5079,-0.245,0.100
5080,-0.240,0.100
5081,-0.250,0.105
5082,-0.230,0.110
5083,-0.220,0.115
5084,-0.230,0.110
5085,-0.220,0.110
5086,-0.215,0.110
5087,-0.215,0.105
5088,-0.205,0.095
5089,-0.215,0.095
5090,-0.230,0.075
5091,-0.225,0.090
5092,-0.205,0.085
5093,-0.200,0.100
5094,-0.190,0.100
5095,-0.175,0.090
5096,-0.165,0.100
5097,-0.160,0.100
5098,-0.165,0.095
5099,-0.160,0.075
5100,-0.150,0.070
5101,-0.155,0.075
5102,-0.150,0.060
5103,-0.150,0.065
5104,-0.140,0.060
5105,-0.130,0.060
5106,-0.110,0.080
5107,-0.100,0.080
5108,-0.085,0.080
5109,-0.070,0.065
5110,-0.070,0.075
5111,-0.070,0.055
5112,-0.055,0.055
5113,-0.060,0.045
5114,-0.055,0.050
5115,-0.045,0.040
5116,-0.035,0.045
5117,-0.015,0.045
5118,-0.005,0.040
5119,0.005,0.050
5120,0.020,0.045
5121,0.035,0.035
5122,0.050,0.030
5123,0.065,0.025
5124,0.060,0.005
5125,0.075,0.000
5126,0.080,-0.010
5127,0.095,0.000
5128,0.110,-0.005
5129,0.125,-0.005
5130,0.145,0.010
5131,0.160,0.005
5132,0.175,0.000
5133,0.185,0.000
5134,0.200,-0.010
5135,0.200,-0.035
5136,0.215,-0.040
5137,0.225,-0.050
5138,0.230,-0.055
5139,0.240,-0.055
5140,0.255,-0.045
5141,0.270,-0.030
5142,0.275,-0.045
5143,0.295,-0.030
5144,0.295,-0.035
5145,0.300,-0.035
5146,0.300,-0.030
5147,0.295,-0.035
5148,0.305,-0.045
5149,0.320,-0.030
5150,0.315,-0.030
5151,0.330,-0.045
5152,0.320,-0.035
5153,0.320,-0.025
5154,0.330,-0.015
5155,0.320,-0.005
5156,0.320,0.005
5157,0.310,0.020
5158,0.285,0.015
5159,0.270,0.015
5160,0.255,0.025
5161,0.225,0.015
5162,0.210,0.025
5163,0.190,0.040
5164,0.170,0.055
5165,0.140,0.080
5166,0.120,0.080
5167,0.110,0.100
5168,0.080,0.110
5169,0.075,0.120
5170,0.045,0.125
5171,0.015,0.130
5172,-0.010,0.125
5173,-0.030,0.120
5174,-0.040,0.135
5175,-0.070,0.130
5176,-0.080,0.155
5177,-0.090,0.160
5178,-0.095,0.175
5179,-0.115,0.180
5180,-0.110,0.185
5181,-0.130,0.190
5182,-0.135,0.195
5183,-0.150,0.185
5184,-0.175,0.180
5185,-0.165,0.175
5186,-0.185,0.185
5187,-0.200,0.190
5188,-0.195,0.195
5189,-0.200,0.195
5190,-0.190,0.220
5191,-0.190,0.220
5192,-0.180,0.220
5193,-0.200,0.225
5194,-0.205,0.210
5195,-0.200,0.205
5196,-0.205,0.210
5197,-0.210,0.185
5198,-0.225,0.205
5199,-0.210,0.195
5200,-0.210,0.195
5201,-0.200,0.215
5202,-0.185,0.210
5203,-0.185,0.220
5204,-0.180,0.210
5205,-0.190,0.215
5206,-0.190,0.210
5207,-0.190,0.195
5208,-0.190,0.190
5209,-0.185,0.195
5210,-0.180,0.190
5211,-0.185,0.195
5212,-0.180,0.190
5213,-0.185,0.200
5214,-0.170,0.215
5215,-0.175,0.210
5216,-0.170,0.220
5217,-0.160,0.215
5218,-0.160,0.205
5219,-0.180,0.195
5220,-0.160,0.200
5221,-0.190,0.185
5222,-0.195,0.175
5223,-0.195,0.190
5224,-0.205,0.190
5225,-0.205,0.205
5226,-0.200,0.200
5227,-0.200,0.210
5228,-0.190,0.205
5229,-0.190,0.200
5230,-0.195,0.195
5231,-0.200,0.190
5232,-0.200,0.185
5233,-0.215,0.175
5234,-0.205,0.175
5235,-0.215,0.170
5236,-0.215,0.180
5237,-0.220,0.180
5238,-0.220,0.195
5239,-0.225,0.195
5240,-0.210,0.175
5241,-0.215,0.190
5242,-0.230,0.195
5243,-0.220,0.170
5244,-0.225,0.175
5245,-0.230,0.165
5246,-0.235,0.170
5247,-0.240,0.165
5248,-0.240,0.180
5249,-0.235,0.190
5250,-0.225,0.200
5251,-0.230,0.200
5252,-0.230,0.210
5253,-0.235,0.195
5254,-0.235,0.180
5255,-0.240,0.185
5256,-0.240,0.185
5257,-0.250,0.175
5258,-0.260,0.185
5259,-0.270,0.180
5260,-0.275,0.185
5261,-0.250,0.200
5262,-0.245,0.195
5263,-0.230,0.205
5264,-0.240,0.200
5265,-0.240,0.200
5266,-0.235,0.190
5267,-0.240,0.180
5268,-0.255,0.180
5269,-0.255,0.175
5270,-0.265,0.170
5271,-0.270,0.170
5272,-0.270,0.180
5273,-0.265,0.185
5274,-0.255,0.195
5275,-0.260,0.185
5276,-0.245,0.190
5277,-0.245,0.195
5278,-0.240,0.195
5279,-0.255,0.185
5280,-0.270,0.180
5281,-0.275,0.160
5282,-0.280,0.175
5283,-0.275,0.175
5284,-0.290,0.180
5285,-0.280,0.185
5286,-0.260,0.195
5287,-0.265,0.185
5288,-0.255,0.200
5289,-0.245,0.190
5290,-0.245,0.195
5291,-0.250,0.185
5292,-0.255,0.170
5293,-0.275,0.165
5294,-0.270,0.170
5295,-0.275,0.180
5296,-0.270,0.190
5297,-0.265,0.195
5298,-0.255,0.210
5299,-0.265,0.230
5300,-0.265,0.235
5301,-0.245,0.255
5302,-0.245,0.255
5303,-0.240,0.255
5304,-0.230,0.265
5305,-0.235,0.265
5306,-0.235,0.275
5307,-0.230,0.280
5308,-0.215,0.265
5309,-0.225,0.265
5310,-0.190,0.270
5311,-0.190,0.260
5312,-0.170,0.240
5313,-0.150,0.240
5314,-0.140,0.230
5315,-0.130,0.215
5316,-0.115,0.205
5317,-0.100,0.185
5318,-0.100,0.175
5319,-0.095,0.180
5320,-0.100,0.180
5321,-0.100,0.185
5322,-0.110,0.180
5323,-0.115,0.175
5324,-0.110,0.175
5325,-0.125,0.175
5326,-0.120,0.170
5327,-0.140,0.175
5328,-0.165,0.165
5329,-0.175,0.160
5330,-0.195,0.135
5331,-0.210,0.145
5332,-0.225,0.160
5333,-0.245,0.150
5334,-0.255,0.155
5335,-0.270,0.160
5336,-0.270,0.165
5337,-0.290,0.160
5338,-0.290,0.165
5339,-0.300,0.150
5340,-0.300,0.140
5341,-0.305,0.145
5342,-0.305,0.140
5343,-0.310,0.140
5344,-0.315,0.150
5345,-0.310,0.160
5346,-0.300,0.160
5347,-0.310,0.165
5348,-0.310,0.175
5349,-0.305,0.170
5350,-0.305,0.170
5351,-0.300,0.170
5352,-0.305,0.170
5353,-0.315,0.145
5354,-0.315,0.140
5355,-0.315,0.155
5356,-0.315,0.160
5357,-0.310,0.170
5358,-0.300,0.185
5359,-0.290,0.190
5360,-0.285,0.200
5361,-0.290,0.215
5362,-0.290,0.240
5363,-0.305,0.280
5364,-0.330,0.295
5365,-0.380,0.310
5366,-0.435,0.300
5367,-0.505,0.275
5368,-0.555,0.260
5369,-0.575,0.230
5370,-0.490,0.190
5371,-0.340,0.130
5372,-0.065,0.085
5373,0.260,0.040
5374,0.625,0.020
5375,0.970,-0.005
5376,1.275,-0.005
5377,1.465,-0.010
5378,1.460,-0.010
5379,1.235,0.000
5380,0.810,0.035
5381,0.315,0.105
5382,-0.105,0.245
5383,-0.370,0.425
5384,-0.490,0.600
5385,-0.510,0.760
5386,-0.505,0.880
5387,-0.515,0.950
5388,-0.575,0.995
5389,-0.680,1.020
5390,-0.805,1.055
5391,-0.925,1.060
5392,-1.015,1.090
5393,-1.070,1.075
5394,-1.080,1.040
5395,-1.055,0.995
5396,-1.015,0.920
5397,-0.945,0.835
5398,-0.855,0.735
5399,-0.775,0.625
5400,-0.700,0.520
5401,-0.610,0.415
5402,-0.545,0.355
5403,-0.480,0.290
5404,-0.430,0.255
5405,-0.380,0.230
5406,-0.360,0.250
5407,-0.340,0.245
5408,-0.315,0.225
5409,-0.310,0.220
5410,-0.305,0.200
5411,-0.295,0.185
5412,-0.310,0.175
5413,-0.300,0.170
5414,-0.305,0.150
5415,-0.295,0.150
5416,-0.290,0.155
5417,-0.290,0.145
5418,-0.270,0.145
5419,-0.265,0.160
5420,-0.260,0.155
5421,-0.260,0.150
5422,-0.250,0.140
5423,-0.245,0.140
5424,-0.260,0.125
5425,-0.265,0.130
5426,-0.270,0.130
5427,-0.260,0.125
5428,-0.255,0.125
5429,-0.260,0.145
5430,-0.250,0.145
5431,-0.235,0.145
5432,-0.225,0.140
5433,-0.220,0.135
5434,-0.215,0.130
5435,-0.220,0.115
5436,-0.220,0.120
5437,-0.235,0.120
5438,-0.230,0.110
5439,-0.225,0.120
5440,-0.225,0.125
5441,-0.225,0.110
5442,-0.220,0.115
5443,-0.200,0.125
5444,-0.190,0.120
5445,-0.180,0.120
5446,-0.180,0.115
5447,-0.170,0.105
5448,-0.175,0.090
5449,-0.180,0.090
5450,-0.175,0.080
5451,-0.175,0.090
5452,-0.160,0.100
5453,-0.160,0.100
5454,-0.150,0.095
5455,-0.135,0.095
5456,-0.125,0.110
5457,-0.125,0.090
5458,-0.125,0.080
5459,-0.130,0.070
5460,-0.115,0.065
5461,-0.120,0.075
5462,-0.115,0.080
5463,-0.105,0.070
5464,-0.100,0.075
5465,-0.080,0.070
5466,-0.060,0.065
5467,-0.060,0.070
5468,-0.045,0.075
5469,-0.025,0.070
5470,-0.020,0.055
5471,-0.020,0.050
5472,-0.025,0.045
5473,-0.015,0.035
5474,-0.005,0.040
5475,-0.010,0.025
5476,0.005,0.030
5477,0.010,0.040
5478,0.030,0.035
5479,0.045,0.030
5480,0.085,0.025
5481,0.085,0.020
5482,0.105,0.005
5483,0.115,0.005
5484,0.130,0.000
5485,0.135,-0.015
5486,0.140,-0.015
5487,0.165,-0.020
5488,0.165,-0.035
5489,0.180,-0.020
5490,0.190,0.005
5491,0.190,0.000
5492,0.225,-0.010
5493,0.225,-0.015
5494,0.230,-0.025
5495,0.250,-0.030
5496,0.250,-0.035
5497,0.250,-0.045
5498,0.250,-0.045
5499,0.265,-0.050
5500,0.270,-0.035
5501,0.280,-0.030
5502,0.300,-0.025
5503,0.310,-0.020
5504,0.320,-0.025
5505,0.325,-0.020
5506,0.330,-0.015
5507,0.325,-0.025
5508,0.325,-0.030
5509,0.305,-0.025
5510,0.295,-0.030
5511,0.290,-0.020
5512,0.275,-0.005
5513,0.270,0.005
5514,0.255,0.005
5515,0.255,0.040
5516,0.250,0.035
5517,0.225,0.040
5518,0.225,0.040
5519,0.205,0.030
5520,0.190,0.040
5521,0.170,0.055
5522,0.140,0.060
5523,0.125,0.075
5524,0.105,0.080
5525,0.080,0.095
5526,0.060,0.110
5527,0.045,0.120
5528,0.030,0.130
5529,0.000,0.130
5530,-0.015,0.135
5531,-0.035,0.135
5532,-0.035,0.140
5533,-0.050,0.130
5534,-0.070,0.150
5535,-0.095,0.150
5536,-0.105,0.160
5537,-0.125,0.170
5538,-0.135,0.170
5539,-0.155,0.180
5540,-0.140,0.190
5541,-0.150,0.195
5542,-0.150,0.185
5543,-0.155,0.175
5544,-0.165,0.190
5545,-0.170,0.175
5546,-0.190,0.185
5547,-0.205,0.185
5548,-0.220,0.205
5549,-0.230,0.195
5550,-0.230,0.210
5551,-0.225,0.215
5552,-0.215,0.235
5553,-0.205,0.215
5554,-0.200,0.220
5555,-0.210,0.205
5556,-0.215,0.200
5557,-0.230,0.190
5558,-0.235,0.195
5559,-0.235,0.195
5560,-0.245,0.190
5561,-0.235,0.205
5562,-0.215,0.205
5563,-0.220,0.220
5564,-0.220,0.225
5565,-0.215,0.235
5566,-0.220,0.215
5567,-0.235,0.200
5568,-0.240,0.195
5569,-0.235,0.190
5570,-0.235,0.195
5571,-0.225,0.195
5572,-0.225,0.195
5573,-0.220,0.210
5574,-0.205,0.205
5575,-0.205,0.215
5576,-0.210,0.215
5577,-0.205,0.200
5578,-0.225,0.210
5579,-0.230,0.200
5580,-0.255,0.185
5581,-0.240,0.185
5582,-0.245,0.175
5583,-0.240,0.175
5584,-0.230,0.170
5585,-0.210,0.195
5586,-0.205,0.195
5587,-0.190,0.205
5588,-0.190,0.200
5589,-0.200,0.185
5590,-0.210,0.200
5591,-0.230,0.185
5592,-0.240,0.195
5593,-0.240,0.175
5594,-0.255,0.170
5595,-0.255,0.175
5596,-0.260,0.180
5597,-0.255,0.180
5598,-0.260,0.180
5599,-0.255,0.195
5600,-0.245,0.195
5601,-0.250,0.190
5602,-0.240,0.195
5603,-0.250,0.180
5604,-0.250,0.185
5605,-0.275,0.170
5606,-0.270,0.165
5607,-0.280,0.165
5608,-0.290,0.165
5609,-0.275,0.175
5610,-0.275,0.180
5611,-0.270,0.190
5612,-0.265,0.195
5613,-0.260,0.185
5614,-0.245,0.180
5615,-0.250,0.175
5616,-0.260,0.170
5617,-0.265,0.150
5618,-0.285,0.150
5619,-0.295,0.155
5620,-0.295,0.170
5621,-0.285,0.170
5622,-0.285,0.170
5623,-0.270,0.180
5624,-0.265,0.180
5625,-0.270,0.185
5626,-0.265,0.180
5627,-0.280,0.170
5628,-0.280,0.180
5629,-0.290,0.160
5630,-0.290,0.160
5631,-0.300,0.160
5632,-0.300,0.165
5633,-0.295,0.175
5634,-0.300,0.195
5635,-0.290,0.190
5636,-0.280,0.195
5637,-0.275,0.195
5638,-0.275,0.190
5639,-0.270,0.175
5640,-0.270,0.180
5641,-0.300,0.165
5642,-0.315,0.155
5643,-0.315,0.165
5644,-0.320,0.165
5645,-0.310,0.165
5646,-0.305,0.175
5647,-0.300,0.180
5648,-0.275,0.175
5649,-0.285,0.175
5650,-0.285,0.170
5651,-0.280,0.185
5652,-0.300,0.180
5653,-0.305,0.165
5654,-0.305,0.155
5655,-0.300,0.145
5656,-0.300,0.160
5657,-0.290,0.175
5658,-0.290,0.180
5659,-0.300,0.190
5660,-0.280,0.200
5661,-0.295,0.185
5662,-0.290,0.195
5663,-0.295,0.205
5664,-0.305,0.200
5665,-0.300,0.205
5666,-0.300,0.210
5667,-0.305,0.225
5668,-0.290,0.230
5669,-0.265,0.235
5670,-0.255,0.235
5671,-0.230,0.235
5672,-0.220,0.230
5673,-0.210,0.215
5674,-0.220,0.200
5675,-0.225,0.195
5676,-0.215,0.190
5677,-0.195,0.180
5678,-0.190,0.165
5679,-0.150,0.180
5680,-0.125,0.175
5681,-0.115,0.175
5682,-0.110,0.185
5683,-0.120,0.180
5684,-0.125,0.170
5685,-0.135,0.170
5686,-0.150,0.160
5687,-0.160,0.145
5688,-0.165,0.145
5689,-0.185,0.155
5690,-0.195,0.155
5691,-0.205,0.150
5692,-0.220,0.150
5693,-0.245,0.145
5694,-0.260,0.155
5695,-0.280,0.140
5696,-0.285,0.145
5697,-0.305,0.145
5698,-0.305,0.150
5699,-0.305,0.145
5700,-0.290,0.125
5701,-0.305,0.110
5702,-0.325,0.135
5703,-0.335,0.130
5704,-0.330,0.140
5705,-0.355,0.135
5706,-0.355,0.140
5707,-0.350,0.150
5708,-0.340,0.160
5709,-0.335,0.165
5710,-0.335,0.165
5711,-0.325,0.160
5712,-0.330,0.150
5713,-0.340,0.140
5714,-0.330,0.145
5715,-0.335,0.140
5716,-0.340,0.140
5717,-0.335,0.155
5718,-0.330,0.155
5719,-0.325,0.165
5720,-0.330,0.160
5721,-0.345,0.165
5722,-0.355,0.175
5723,-0.345,0.175
5724,-0.355,0.175
5725,-0.340,0.205
5726,-0.340,0.240
5727,-0.335,0.265
5728,-0.365,0.280
5729,-0.420,0.270
5730,-0.485,0.265
5731,-0.535,0.230
5732,-0.545,0.185
5733,-0.465,0.115
5734,-0.285,0.045
5735,0.000,-0.025
5736,0.355,-0.045
5737,0.765,-0.045
5738,1.125,-0.015
5739,1.370,0.030
5740,1.450,0.070
5741,1.290,0.090
5742,0.890,0.110
5743,0.370,0.130
5744,-0.130,0.215
5745,-0.485,0.345
5746,-0.640,0.480
5747,-0.665,0.630
5748,-0.640,0.750
5749,-0.610,0.840
5750,-0.615,0.905
5751,-0.680,0.945
5752,-0.765,0.990
5753,-0.890,1.020
5754,-0.965,1.050
5755,-1.020,1.080
5756,-1.050,1.070
5757,-1.045,1.045
5758,-1.040,0.995
5759,-1.000,0.935
5760,-0.965,0.865
5761,-0.900,0.785
5762,-0.830,0.715
5763,-0.765,0.625
5764,-0.705,0.500
5765,-0.635,0.405
5766,-0.555,0.320
5767,-0.490,0.260
5768,-0.430,0.220
5769,-0.390,0.190
5770,-0.370,0.195
5771,-0.350,0.190
5772,-0.355,0.180
5773,-0.340,0.165
5774,-0.335,0.145
5775,-0.315,0.125
5776,-0.315,0.130
5777,-0.300,0.145
5778,-0.285,0.135
5779,-0.285,0.145
5780,-0.280,0.140
5781,-0.280,0.130
5782,-0.280,0.125
5783,-0.270,0.115
5784,-0.270,0.120
5785,-0.265,0.120
5786,-0.270,0.120
5787,-0.260,0.115
5788,-0.260,0.120
5789,-0.275,0.130
5790,-0.250,0.125
5791,-0.250,0.125
5792,-0.245,0.125
5793,-0.235,0.115
5794,-0.230,0.110
5795,-0.230,0.105
5796,-0.235,0.095
5797,-0.240,0.090
5798,-0.255,0.090
5799,-0.235,0.080
5800,-0.230,0.085
5801,-0.230,0.090
5802,-0.225,0.095
5803,-0.215,0.105
5804,-0.200,0.110
5805,-0.180,0.110
5806,-0.170,0.095
5807,-0.175,0.090
5808,-0.185,0.080
5809,-0.200,0.080
5810,-0.200,0.055
5811,-0.210,0.065
5812,-0.195,0.055
5813,-0.180,0.065
5814,-0.175,0.085
5815,-0.175,0.085
5816,-0.175,0.080
5817,-0.155,0.075
5818,-0.155,0.070
5819,-0.145,0.055
5820,-0.115,0.060
5821,-0.110,0.050
5822,-0.115,0.045
5823,-0.110,0.040
5824,-0.120,0.045
5825,-0.115,0.045
5826,-0.105,0.035
5827,-0.095,0.040
5828,-0.075,0.035
5829,-0.060,0.035
5830,-0.060,0.040
5831,-0.045,0.020
5832,-0.040,0.015
5833,-0.055,0.005
5834,-0.050,-0.005
5835,-0.035,0.005
5836,-0.020,0.000
5837,-0.005,0.010
5838,0.015,0.010
5839,0.030,0.010
5840,0.045,0.000
5841,0.050,-0.015
5842,0.045,-0.025
5843,0.040,-0.045
5844,0.050,-0.055
5845,0.055,-0.060
5846,0.065,-0.060
5847,0.090,-0.070
5848,0.080,-0.080
5849,0.100,-0.075
5850,0.105,-0.080
5851,0.120,-0.070
5852,0.125,-0.080
5853,0.150,-0.080
5854,0.165,-0.085
5855,0.175,-0.090
5856,0.195,-0.095
5857,0.190,-0.100
5858,0.175,-0.115
5859,0.170,-0.110
5860,0.185,-0.105
5861,0.195,-0.115
5862,0.210,-0.110
5863,0.230,-0.090
5864,0.255,-0.090
5865,0.275,-0.090
5866,0.275,-0.085
5867,0.280,-0.100
5868,0.270,-0.100
5869,0.255,-0.085
5870,0.235,-0.100
5871,0.230,-0.085
5872,0.225,-0.075
5873,0.215,-0.050
5874,0.225,-0.030
5875,0.215,-0.010
5876,0.215,0.010
5877,0.195,0.025
5878,0.170,0.025
5879,0.135,0.040
5880,0.110,0.030
5881,0.090,0.055
5882,0.065,0.040
5883,0.045,0.060
5884,0.020,0.085
5885,0.000,0.105
5886,-0.035,0.120
5887,-0.065,0.125
5888,-0.050,0.135
5889,-0.060,0.150
5890,-0.075,0.150
5891,-0.095,0.160
5892,-0.100,0.155
5893,-0.135,0.160
5894,-0.155,0.170
5895,-0.170,0.165
5896,-0.190,0.175
5897,-0.200,0.185
5898,-0.210,0.195
5899,-0.205,0.210
5900,-0.195,0.215
5901,-0.200,0.205
5902,-0.200,0.205
5903,-0.210,0.195
5904,-0.220,0.190
5905,-0.230,0.190
5906,-0.230,0.175
5907,-0.240,0.190
5908,-0.240,0.200
5909,-0.230,0.200
5910,-0.225,0.210
5911,-0.215,0.195
5912,-0.200,0.200
5913,-0.215,0.200
5914,-0.190,0.195
5915,-0.200,0.200
5916,-0.205,0.195
5917,-0.210,0.185
5918,-0.210,0.190
5919,-0.215,0.180
5920,-0.220,0.180
5921,-0.210,0.185
5922,-0.205,0.185
5923,-0.200,0.190
5924,-0.190,0.190
5925,-0.190,0.185
5926,-0.195,0.185
5927,-0.195,0.185
5928,-0.195,0.170
5929,-0.210,0.160
5930,-0.220,0.145
5931,-0.225,0.155
5932,-0.225,0.155
5933,-0.225,0.150
5934,-0.225,0.180
5935,-0.225,0.180
5936,-0.210,0.175
5937,-0.220,0.185
5938,-0.215,0.175
5939,-0.235,0.170
5940,-0.240,0.175
5941,-0.250,0.165
5942,-0.260,0.155
5943,-0.265,0.145
5944,-0.265,0.155
5945,-0.265,0.145
5946,-0.255,0.160
5947,-0.255,0.160
5948,-0.255,0.170
5949,-0.250,0.160
5950,-0.245,0.155
5951,-0.255,0.145
5952,-0.265,0.140
5953,-0.270,0.120
5954,-0.270,0.110
5955,-0.285,0.135
5956,-0.290,0.135
5957,-0.305,0.130
5958,-0.295,0.145
5959,-0.295,0.145
5960,-0.290,0.140
5961,-0.295,0.130
5962,-0.280,0.135
5963,-0.285,0.130
5964,-0.290,0.120
5965,-0.290,0.110
5966,-0.295,0.120
5967,-0.305,0.125
5968,-0.305,0.130
5969,-0.300,0.135
5970,-0.305,0.130
5971,-0.305,0.130
5972,-0.295,0.150
5973,-0.290,0.145
5974,-0.300,0.135
5975,-0.290,0.135
5976,-0.310,0.125
5977,-0.310,0.120
5978,-0.315,0.120
5979,-0.330,0.120
5980,-0.335,0.125
5981,-0.315,0.140
5982,-0.310,0.150
5983,-0.305,0.165
5984,-0.290,0.185
5985,-0.285,0.185
5986,-0.270,0.190
5987,-0.270,0.195
5988,-0.270,0.185
5989,-0.260,0.190
5990,-0.270,0.185
5991,-0.270,0.170
5992,-0.260,0.165
5993,-0.230,0.185
5994,-0.220,0.190
5995,-0.220,0.195
5996,-0.200,0.185
5997,-0.190,0.175
5998,-0.180,0.160
5999,-0.160,0.150
6000,-0.150,0.140
6001,-0.130,0.125
6002,-0.125,0.110
6003,-0.140,0.125
6004,-0.135,0.110
6005,-0.135,0.125
6006,-0.140,0.115
6007,-0.155,0.115
6008,-0.160,0.115
6009,-0.150,0.120
6010,-0.160,0.125
6011,-0.180,0.120
6012,-0.195,0.105
6013,-0.230,0.090
6014,-0.245,0.095
6015,-0.255,0.080
6016,-0.275,0.080
6017,-0.290,0.080
6018,-0.305,0.095
6019,-0.300,0.100
6020,-0.310,0.105
6021,-0.305,0.085
6022,-0.305,0.085
6023,-0.315,0.075
6024,-0.315,0.065
6025,-0.330,0.070
6026,-0.335,0.065
6027,-0.345,0.065
6028,-0.345,0.070
6029,-0.345,0.080
6030,-0.335,0.080
6031,-0.330,0.090
6032,-0.320,0.095
6033,-0.330,0.100
6034,-0.325,0.090
6035,-0.335,0.090
6036,-0.340,0.085
6037,-0.350,0.080
6038,-0.355,0.080
6039,-0.360,0.080
6040,-0.355,0.095
6041,-0.345,0.100
6042,-0.345,0.100
6043,-0.345,0.115
6044,-0.330,0.130
6045,-0.340,0.150
6046,-0.345,0.175
6047,-0.360,0.210
6048,-0.390,0.225
6049,-0.440,0.225
6050,-0.515,0.200
6051,-0.575,0.175
6052,-0.600,0.125
6053,-0.550,0.050
6054,-0.370,-0.010
6055,-0.085,-0.045
6056,0.285,-0.080
6057,0.690,-0.095
6058,1.065,-0.075
6059,1.355,-0.070
6060,1.445,-0.070
6061,1.280,-0.060
6062,0.885,-0.030
6063,0.380,0.040
6064,-0.085,0.175
6065,-0.400,0.335
6066,-0.555,0.520
6067,-0.590,0.670
6068,-0.595,0.795
6069,-0.600,0.865
6070,-0.655,0.920
6071,-0.745,0.950
6072,-0.860,0.990
6073,-0.970,1.005
6074,-1.050,1.000
6075,-1.095,0.980
6076,-1.095,0.920
6077,-1.075,0.850
6078,-1.030,0.760
6079,-0.945,0.675
6080,-0.865,0.580
6081,-0.760,0.480
6082,-0.670,0.375
6083,-0.580,0.300
6084,-0.520,0.215
6085,-0.460,0.155
6086,-0.440,0.125
6087,-0.420,0.115
6088,-0.400,0.100
6089,-0.375,0.110
6090,-0.360,0.100
6091,-0.360,0.095
6092,-0.335,0.095
6093,-0.315,0.090
6094,-0.315,0.075
6095,-0.320,0.075
6096,-0.320,0.050
6097,-0.315,0.040
6098,-0.325,0.035
6099,-0.325,0.035
6100,-0.325,0.040
6101,-0.315,0.035
6102,-0.305,0.050
6103,-0.290,0.050
6104,-0.280,0.060
6105,-0.285,0.055
6106,-0.290,0.050
6107,-0.285,0.035
6108,-0.275,0.025
6109,-0.275,0.025
6110,-0.285,0.015
6111,-0.290,0.020
6112,-0.275,0.030
6113,-0.295,0.030
6114,-0.275,0.040
6115,-0.270,0.040
6116,-0.255,0.030
6117,-0.240,0.025
6118,-0.240,0.025
6119,-0.230,0.015
6120,-0.240,0.010
6121,-0.235,0.005
6122,-0.245,0.000
6123,-0.245,0.005
6124,-0.245,0.010
6125,-0.230,0.000
6126,-0.220,0.010
6127,-0.205,0.010
6128,-0.190,0.020
6129,-0.185,0.000
6130,-0.185,0.010
6131,-0.180,-0.010
6132,-0.185,-0.005
6133,-0.175,-0.020
6134,-0.180,-0.015
6135,-0.170,-0.025
6136,-0.165,-0.020
6137,-0.145,-0.010
6138,-0.140,-0.010
6139,-0.125,-0.015
6140,-0.100,-0.005
6141,-0.090,-0.030
6142,-0.085,-0.015
6143,-0.085,-0.030
6144,-0.085,-0.040
6145,-0.070,-0.035
6146,-0.065,-0.050
6147,-0.065,-0.055
6148,-0.060,-0.065
6149,-0.040,-0.055
6150,-0.035,-0.050
6151,-0.015,-0.050
6152,0.020,-0.055
6153,0.020,-0.065
6154,0.040,-0.070
6155,0.040,-0.080
6156,0.050,-0.090
6157,0.060,-0.110
6158,0.065,-0.100
6159,0.080,-0.105
6160,0.085,-0.115
6161,0.110,-0.110
6162,0.115,-0.115
6163,0.125,-0.095
6164,0.145,-0.100
6165,0.150,-0.100
6166,0.170,-0.115
6167,0.160,-0.125
6168,0.180,-0.115
6169,0.170,-0.120
6170,0.175,-0.135
6171,0.175,-0.130
6172,0.190,-0.130
6173,0.200,-0.105
6174,0.215,-0.110
6175,0.225,-0.105
6176,0.235,-0.105
6177,0.245,-0.095
6178,0.260,-0.095
6179,0.250,-0.095
6180,0.240,-0.105
6181,0.245,-0.100
6182,0.235,-0.110
6183,0.230,-0.095
6184,0.225,-0.085
6185,0.220,-0.075
6186,0.210,-0.065
6187,0.200,-0.045
6188,0.200,-0.030
6189,0.180,-0.030
6190,0.160,-0.015
6191,0.125,-0.015
6192,0.115,-0.025
6193,0.085,-0.005
6194,0.065,-0.010
6195,0.045,0.005
6196,0.030,0.015
6197,0.015,0.035
6198,-0.005,0.035
6199,-0.035,0.060
6200,-0.055,0.075
6201,-0.065,0.085
6202,-0.085,0.080
6203,-0.100,0.080
6204,-0.120,0.080
6205,-0.130,0.070
6206,-0.145,0.060
6207,-0.170,0.075
6208,-0.185,0.085
6209,-0.200,0.090
6210,-0.210,0.100
6211,-0.210,0.120
6212,-0.215,0.115
6213,-0.215,0.130
6214,-0.220,0.120
6215,-0.230,0.120
6216,-0.235,0.110
6217,-0.250,0.105
6218,-0.250,0.110
6219,-0.265,0.100
6220,-0.265,0.100
6221,-0.260,0.105
6222,-0.275,0.110
6223,-0.265,0.125
6224,-0.260,0.120
6225,-0.255,0.125
6226,-0.250,0.125
6227,-0.255,0.120
6228,-0.270,0.115
6229,-0.265,0.110
6230,-0.260,0.095
6231,-0.270,0.110
6232,-0.265,0.110
6233,-0.260,0.105
6234,-0.265,0.115
6235,-0.260,0.125
6236,-0.255,0.125
6237,-0.235,0.125
6238,-0.235,0.125
6239,-0.235,0.120
6240,-0.245,0.105
6241,-0.240,0.105
6242,-0.240,0.085
6243,-0.245,0.095
6244,-0.245,0.100
6245,-0.235,0.100
6246,-0.235,0.115
6247,-0.230,0.120
6248,-0.220,0.125
6249,-0.215,0.105
6250,-0.220,0.115
6251,-0.230,0.115
6252,-0.230,0.105
6253,-0.240,0.090
6254,-0.245,0.085
6255,-0.260,0.095
6256,-0.245,0.090
6257,-0.240,0.085
6258,-0.245,0.105
6259,-0.235,0.105
6260,-0.240,0.100
6261,-0.230,0.100
6262,-0.245,0.110
6263,-0.245,0.095
6264,-0.255,0.090
6265,-0.265,0.085
6266,-0.270,0.080
6267,-0.265,0.085
6268,-0.275,0.085
6269,-0.285,0.105
6270,-0.280,0.100
6271,-0.280,0.110
6272,-0.275,0.105
6273,-0.255,0.095
6274,-0.265,0.110
6275,-0.260,0.100
6276,-0.275,0.090
6277,-0.275,0.080
6278,-0.285,0.090
6279,-0.295,0.080
6280,-0.290,0.085
6281,-0.300,0.090
6282,-0.295,0.095
6283,-0.295,0.090
6284,-0.275,0.100
6285,-0.285,0.100
6286,-0.285,0.090
6287,-0.285,0.100
6288,-0.305,0.070
6289,-0.310,0.060
6290,-0.300,0.070
6291,-0.310,0.070
6292,-0.310,0.080
6293,-0.310,0.090
6294,-0.310,0.100
6295,-0.300,0.095
6296,-0.310,0.100
6297,-0.315,0.095
6298,-0.310,0.090
6299,-0.300,0.090
6300,-0.305,0.075
6301,-0.310,0.085
6302,-0.315,0.065
6303,-0.315,0.080
6304,-0.315,0.075
6305,-0.320,0.065
6306,-0.310,0.085
6307,-0.310,0.065
6308,-0.305,0.090
6309,-0.300,0.100
6310,-0.300,0.080
6311,-0.300,0.085
6312,-0.305,0.075
6313,-0.310,0.075
6314,-0.310,0.060
6315,-0.320,0.065
6316,-0.315,0.070
6317,-0.315,0.080
6318,-0.325,0.075
6319,-0.315,0.085
6320,-0.305,0.090
6321,-0.300,0.085
6322,-0.305,0.090
6323,-0.300,0.070
6324,-0.305,0.070
6325,-0.310,0.075
6326,-0.320,0.060
6327,-0.315,0.065
6328,-0.305,0.065
6329,-0.300,0.075
6330,-0.300,0.075
6331,-0.295,0.080
6332,-0.290,0.095
6333,-0.285,0.090
6334,-0.295,0.090
6335,-0.295,0.085
6336,-0.305,0.085
6337,-0.305,0.060
6338,-0.310,0.065
6339,-0.320,0.060
6340,-0.315,0.080
6341,-0.310,0.090
6342,-0.300,0.110
6343,-0.300,0.120
6344,-0.280,0.130
6345,-0.270,0.145
6346,-0.260,0.155
6347,-0.250,0.160
6348,-0.255,0.160
6349,-0.250,0.145
6350,-0.255,0.135
6351,-0.250,0.130
6352,-0.235,0.115
6353,-0.230,0.120
6354,-0.230,0.120
6355,-0.215,0.110
6356,-0.180,0.105
6357,-0.160,0.100
6358,-0.145,0.105
6359,-0.130,0.075
6360,-0.135,0.080
6361,-0.125,0.060
6362,-0.120,0.065
6363,-0.135,0.060
6364,-0.145,0.045
6365,-0.150,0.060
6366,-0.160,0.065
6367,-0.175,0.085
6368,-0.175,0.095
6369,-0.180,0.085
6370,-0.205,0.090
6371,-0.215,0.070
6372,-0.240,0.055
6373,-0.260,0.040
6374,-0.290,0.045
6375,-0.295,0.030
6376,-0.310,0.045
6377,-0.310,0.060
6378,-0.330,0.060
6379,-0.325,0.055
6380,-0.315,0.055
6381,-0.310,0.055
6382,-0.315,0.055
6383,-0.315,0.055
6384,-0.320,0.045
6385,-0.330,0.025
6386,-0.345,0.030
6387,-0.345,0.030
6388,-0.335,0.035
6389,-0.335,0.050
6390,-0.330,0.055
6391,-0.335,0.055
6392,-0.315,0.075
6393,-0.305,0.080
6394,-0.315,0.075
6395,-0.310,0.085
6396,-0.320,0.070
6397,-0.320,0.080
6398,-0.335,0.095
6399,-0.335,0.095
6400,-0.335,0.130
6401,-0.350,0.185
6402,-0.365,0.205
6403,-0.395,0.230
6404,-0.455,0.235
6405,-0.505,0.195
6406,-0.570,0.160
6407,-0.550,0.100
6408,-0.440,0.015
6409,-0.215,-0.045
6410,0.095,-0.090
6411,0.485,-0.110
6412,0.880,-0.115
6413,1.235,-0.115
6414,1.465,-0.090
6415,1.510,-0.080
6416,1.325,-0.070
6417,0.905,-0.045
6418,0.405,0.035
6419,-0.050,0.155
6420,-0.365,0.315
6421,-0.515,0.475
6422,-0.545,0.630
6423,-0.545,0.735
6424,-0.540,0.825
6425,-0.565,0.880
6426,-0.655,0.915
6427,-0.765,0.940
6428,-0.890,0.995
6429,-0.985,0.990
6430,-1.065,0.975
6431,-1.105,0.935
6432,-1.100,0.875
6433,-1.085,0.805
6434,-1.020,0.720
6435,-0.955,0.625
6436,-0.865,0.535
6437,-0.780,0.435
6438,-0.695,0.355
6439,-0.590,0.265
6440,-0.515,0.215
6441,-0.445,0.165
6442,-0.415,0.150
6443,-0.395,0.130
6444,-0.370,0.110
6445,-0.360,0.100
6446,-0.360,0.075
6447,-0.355,0.070
6448,-0.350,0.080
6449,-0.350,0.080
6450,-0.330,0.070
6451,-0.330,0.080
6452,-0.305,0.065
6453,-0.300,0.065
6454,-0.290,0.060
6455,-0.290,0.055
6456,-0.290,0.045
6457,-0.295,0.040
6458,-0.300,0.030
6459,-0.300,0.030
6460,-0.300,0.040
6461,-0.290,0.055
6462,-0.285,0.050
6463,-0.275,0.055
6464,-0.265,0.045
6465,-0.250,0.040
6466,-0.255,0.040
6467,-0.260,0.035
6468,-0.255,0.020
6469,-0.265,0.020
6470,-0.260,0.020
6471,-0.265,0.015
6472,-0.265,0.020
6473,-0.255,0.030
6474,-0.250,0.030
6475,-0.250,0.035
6476,-0.230,0.040
6477,-0.225,0.025
6478,-0.225,0.040
6479,-0.220,0.025
6480,-0.230,0.020
6481,-0.230,0.005
6482,-0.230,0.005
6483,-0.240,0.015
6484,-0.225,0.000
6485,-0.220,0.005
6486,-0.210,0.020
6487,-0.210,0.035
6488,-0.195,0.020
6489,-0.175,0.015
6490,-0.175,0.010
6491,-0.165,0.005
6492,-0.170,-0.005
6493,-0.170,-0.015
6494,-0.170,-0.020
6495,-0.160,-0.020
6496,-0.165,-0.020
6497,-0.155,-0.005
6498,-0.125,-0.005
6499,-0.120,-0.010
6500,-0.115,-0.010
6501,-0.100,-0.010
6502,-0.090,-0.025
6503,-0.075,-0.035
6504,-0.075,-0.030
6505,-0.065,-0.035
6506,-0.065,-0.040
6507,-0.055,-0.055
6508,-0.050,-0.050
6509,-0.045,-0.045
6510,-0.035,-0.040
6511,-0.015,-0.045
6512,-0.005,-0.050
6513,0.020,-0.050
6514,0.030,-0.060
6515,0.040,-0.060
6516,0.045,-0.085
6517,0.060,-0.085
6518,0.060,-0.100
6519,0.065,-0.100
6520,0.080,-0.100
6521,0.105,-0.110
6522,0.110,-0.105
6523,0.130,-0.110
6524,0.145,-0.105
6525,0.155,-0.100
6526,0.170,-0.115
6527,0.175,-0.125
6528,0.185,-0.130
6529,0.190,-0.135
6530,0.195,-0.140
6531,0.185,-0.155
6532,0.205,-0.135
6533,0.220,-0.135
6534,0.220,-0.130
6535,0.240,-0.125
6536,0.245,-0.115
6537,0.265,-0.120
6538,0.265,-0.125
6539,0.285,-0.115
6540,0.275,-0.135
6541,0.275,-0.130
6542,0.270,-0.145
6543,0.270,-0.140
6544,0.270,-0.130
6545,0.280,-0.120
6546,0.290,-0.110
6547,0.300,-0.110
6548,0.300,-0.095
6549,0.305,-0.090
6550,0.290,-0.070
6551,0.270,-0.070
6552,0.255,-0.070
6553,0.235,-0.080
6554,0.205,-0.070
6555,0.185,-0.065
6556,0.155,-0.050
6557,0.130,-0.020
6558,0.120,-0.015
6559,0.095,-0.010
6560,0.080,0.000
6561,0.065,0.000
6562,0.055,0.005
6563,0.040,0.025
6564,0.020,0.020
6565,-0.010,0.010
6566,-0.040,0.030
6567,-0.055,0.025
6568,-0.060,0.050
6569,-0.085,0.050
6570,-0.100,0.060
6571,-0.110,0.065
6572,-0.115,0.070
6573,-0.120,0.070
6574,-0.145,0.085
6575,-0.150,0.080
6576,-0.155,0.080
6577,-0.170,0.070
6578,-0.190,0.065
6579,-0.205,0.060
6580,-0.220,0.065
6581,-0.215,0.085
6582,-0.210,0.085
6583,-0.200,0.085
6584,-0.190,0.100
6585,-0.185,0.115
6586,-0.195,0.110
6587,-0.200,0.105
6588,-0.220,0.100
6589,-0.225,0.095
6590,-0.235,0.095
6591,-0.245,0.085
6592,-0.255,0.095
6593,-0.245,0.095
6594,-0.235,0.100
6595,-0.220,0.110
6596,-0.225,0.105
6597,-0.225,0.110
6598,-0.220,0.120
6599,-0.215,0.115
6600,-0.225,0.115
6601,-0.230,0.100
6602,-0.235,0.085
6603,-0.230,0.090
6604,-0.225,0.110
6605,-0.230,0.095
6606,-0.225,0.105
6607,-0.220,0.115
6608,-0.225,0.115
6609,-0.225,0.100
6610,-0.230,0.105
6611,-0.230,0.090
6612,-0.240,0.095
6613,-0.240,0.090
6614,-0.240,0.080
6615,-0.245,0.090
6616,-0.250,0.095
6617,-0.250,0.095
6618,-0.250,0.095
6619,-0.245,0.100
6620,-0.230,0.095
6621,-0.225,0.090
6622,-0.240,0.105
6623,-0.250,0.105
6624,-0.270,0.075
6625,-0.265,0.070
6626,-0.270,0.065
6627,-0.270,0.075
6628,-0.270,0.065
6629,-0.270,0.070
6630,-0.260,0.075
6631,-0.255,0.070
6632,-0.230,0.090
6633,-0.235,0.080
6634,-0.250,0.090
6635,-0.260,0.080
6636,-0.280,0.075
6637,-0.285,0.070
6638,-0.295,0.055
6639,-0.305,0.055
6640,-0.310,0.045
6641,-0.305,0.060
6642,-0.290,0.075
6643,-0.295,0.090
6644,-0.295,0.090
6645,-0.275,0.080
6646,-0.275,0.075
6647,-0.275,0.080
6648,-0.270,0.060
6649,-0.285,0.055
6650,-0.275,0.050
6651,-0.285,0.055
6652,-0.295,0.060
6653,-0.290,0.060
6654,-0.295,0.065
6655,-0.290,0.065
6656,-0.280,0.070
6657,-0.275,0.070
6658,-0.295,0.075
6659,-0.305,0.060
6660,-0.310,0.055
6661,-0.320,0.040
6662,-0.315,0.045
6663,-0.320,0.035
6664,-0.320,0.040
6665,-0.305,0.045
6666,-0.300,0.050
6667,-0.290,0.070
6668,-0.280,0.070
6669,-0.295,0.070
6670,-0.310,0.060
6671,-0.310,0.050
6672,-0.335,0.045
6673,-0.340,0.040
6674,-0.330,0.045
6675,-0.315,0.045
6676,-0.325,0.045
6677,-0.315,0.050
6678,-0.305,0.060
6679,-0.315,0.055
6680,-0.320,0.065
6681,-0.320,0.070
6682,-0.320,0.060
6683,-0.325,0.050
6684,-0.335,0.050
6685,-0.335,0.045
6686,-0.335,0.045
6687,-0.335,0.040
6688,-0.340,0.035
6689,-0.340,0.040
6690,-0.330,0.060
6691,-0.320,0.055
6692,-0.305,0.065
6693,-0.295,0.065
6694,-0.305,0.060
6695,-0.310,0.055
6696,-0.320,0.055
6697,-0.315,0.045
6698,-0.340,0.055
6699,-0.340,0.040
6700,-0.330,0.050
6701,-0.325,0.055
6702,-0.325,0.045
6703,-0.325,0.055
6704,-0.325,0.060
6705,-0.320,0.060
6706,-0.315,0.060
6707,-0.320,0.040
6708,-0.305,0.040
6709,-0.325,0.025
6710,-0.325,0.030
6711,-0.330,0.030
6712,-0.325,0.040
6713,-0.335,0.040
6714,-0.325,0.050
6715,-0.320,0.055
6716,-0.310,0.060
6717,-0.320,0.065
6718,-0.320,0.060
6719,-0.315,0.065
6720,-0.315,0.065
6721,-0.325,0.070
6722,-0.345,0.070
6723,-0.330,0.090
6724,-0.325,0.090
6725,-0.300,0.105
6726,-0.280,0.130
6727,-0.260,0.120
6728,-0.250,0.130
6729,-0.240,0.120
6730,-0.255,0.110
6731,-0.255,0.100
6732,-0.250,0.075
6733,-0.265,0.070
6734,-0.275,0.065
6735,-0.255,0.050
6736,-0.235,0.060
6737,-0.210,0.070
6738,-0.180,0.065
6739,-0.155,0.060
6740,-0.125,0.075
6741,-0.120,0.070
6742,-0.125,0.065
6743,-0.130,0.055
6744,-0.150,0.030
6745,-0.165,0.020
6746,-0.165,0.005
6747,-0.200,0.010
6748,-0.210,0.005
6749,-0.220,0.035
6750,-0.225,0.050
6751,-0.235,0.055
6752,-0.245,0.060
6753,-0.240,0.050
