'sample interval','MLII','V2'
'0.00277778 sec','mV','mV'
0,-0.375,0.050
1,-0.375,0.050
2,-0.375,0.050
3,-0.375,0.050
4,-0.375,0.050
5,-0.375,0.050
6,-0.375,0.050
7,-0.375,0.050
8,-0.385,0.050
9,-0.385,0.035
10,-0.385,0.035
11,-0.380,0.050
12,-0.360,0.065
13,-0.360,0.065
14,-0.370,0.040
15,-0.365,0.045
16,-0.370,0.035
17,-0.360,0.055
18,-0.355,0.070
19,-0.345,0.075
20,-0.340,0.065
21,-0.345,0.055
22,-0.345,0.070
23,-0.330,0.080
24,-0.325,0.090
25,-0.310,0.085
26,-0.305,0.090
27,-0.310,0.085
28,-0.310,0.085
29,-0.300,0.105
30,-0.280,0.120
31,-0.250,0.125
32,-0.250,0.120
33,-0.245,0.125
34,-0.235,0.135
35,-0.220,0.145
36,-0.195,0.160
37,-0.165,0.165
38,-0.160,0.175
39,-0.160,0.170
40,-0.135,0.180
41,-0.120,0.210
42,-0.090,0.230
43,-0.060,0.235
44,-0.045,0.240
45,-0.035,0.255
46,-0.015,0.255
47,0.000,0.275
48,0.030,0.300
49,0.060,0.295
50,0.070,0.315
51,0.075,0.315
52,0.075,0.335
53,0.100,0.350
54,0.110,0.350
55,0.135,0.355
56,0.130,0.355
57,0.145,0.350
58,0.135,0.355
59,0.160,0.370
60,0.165,0.390
61,0.175,0.395
62,0.185,0.385
63,0.175,0.370
64,0.165,0.365
65,0.170,0.380
66,0.160,0.385
67,0.150,0.375
68,0.140,0.370
69,0.120,0.345
70,0.085,0.345
71,0.080,0.335
72,0.070,0.330
73,0.055,0.310
74,0.020,0.280
75,-0.005,0.265
76,-0.050,0.250
77,-0.065,0.240
78,-0.085,0.225
79,-0.095,0.205
80,-0.125,0.180
81,-0.145,0.165
82,-0.165,0.145
83,-0.175,0.135
84,-0.185,0.130
85,-0.205,0.125
86,-0.215,0.105
87,-0.220,0.085
88,-0.230,0.075
89,-0.245,0.080
90,-0.240,0.080
91,-0.245,0.075
92,-0.245,0.060
93,-0.265,0.040
94,-0.265,0.040
95,-0.265,0.050
96,-0.260,0.065
97,-0.255,0.050
98,-0.270,0.040
99,-0.265,0.030
100,-0.275,0.030
101,-0.265,0.035
102,-0.275,0.045
103,-0.265,0.045
104,-0.270,0.035
105,-0.265,0.025
106,-0.280,0.015
107,-0.285,0.020
108,-0.275,0.035
109,-0.260,0.045
110,-0.250,0.045
111,-0.265,0.040
112,-0.270,0.025
113,-0.265,0.045
114,-0.240,0.060
115,-0.245,0.060
116,-0.250,0.045
117,-0.250,0.040
118,-0.255,0.050
119,-0.240,0.055
120,-0.230,0.070
121,-0.225,0.070
122,-0.230,0.070
123,-0.240,0.050
124,-0.240,0.055
125,-0.240,0.065
126,-0.220,0.065
127,-0.220,0.075
128,-0.220,0.065
129,-0.225,0.060
130,-0.240,0.065
131,-0.235,0.070
132,-0.215,0.090
133,-0.220,0.070
134,-0.230,0.060
135,-0.230,0.065
136,-0.235,0.055
137,-0.235,0.065
138,-0.220,0.065
139,-0.215,0.080
140,-0.230,0.075
141,-0.240,0.070
142,-0.250,0.060
143,-0.245,0.060
144,-0.240,0.065
145,-0.240,0.070
146,-0.235,0.050
147,-0.250,0.045
148,-0.255,0.045
149,-0.255,0.050
150,-0.250,0.060
151,-0.245,0.050
152,-0.255,0.040
153,-0.270,0.030
154,-0.270,0.020
155,-0.265,0.020
156,-0.260,0.040
157,-0.255,0.025
158,-0.270,0.025
159,-0.280,0.025
160,-0.290,0.010
161,-0.285,0.015
162,-0.285,0.030
163,-0.290,0.010
164,-0.290,0.000
165,-0.290,-0.010
166,-0.300,-0.010
167,-0.295,-0.005
168,-0.300,0.005
169,-0.300,0.000
170,-0.305,-0.005
171,-0.300,-0.020
172,-0.320,-0.020
173,-0.315,-0.010
174,-0.315,-0.010
175,-0.300,-0.010
176,-0.310,-0.025
177,-0.310,-0.035
178,-0.325,-0.030
179,-0.325,-0.020
180,-0.320,-0.015
181,-0.320,-0.015
182,-0.310,-0.030
183,-0.325,-0.045
184,-0.325,-0.040
185,-0.320,-0.040
186,-0.315,-0.020
187,-0.295,-0.035
188,-0.275,-0.030
189,-0.280,-0.045
190,-0.280,-0.040
191,-0.265,-0.025
192,-0.255,-0.015
193,-0.245,-0.015
194,-0.240,-0.025
195,-0.235,-0.035
196,-0.245,-0.030
197,-0.240,-0.015
198,-0.235,-0.005
199,-0.215,-0.010
200,-0.215,-0.020
201,-0.215,-0.030
202,-0.230,-0.025
203,-0.220,-0.020
204,-0.210,-0.010
205,-0.205,-0.020
206,-0.215,-0.015
207,-0.215,-0.035
208,-0.245,-0.040
209,-0.255,-0.040
210,-0.250,-0.040
211,-0.260,-0.060
212,-0.270,-0.070
213,-0.270,-0.085
214,-0.270,-0.100
215,-0.255,-0.090
216,-0.250,-0.055
217,-0.255,-0.055
218,-0.260,-0.035
219,-0.295,-0.035
220,-0.315,-0.045
221,-0.320,-0.025
222,-0.325,-0.030
223,-0.330,-0.035
224,-0.340,-0.045
225,-0.355,-0.070
226,-0.380,-0.070
227,-0.385,-0.060
228,-0.380,-0.050
229,-0.380,-0.055
230,-0.395,-0.065
231,-0.410,-0.075
232,-0.405,-0.085
233,-0.410,-0.075
234,-0.405,-0.065
235,-0.400,-0.075
236,-0.390,-0.080
237,-0.405,-0.080
238,-0.420,-0.080
239,-0.410,-0.065
240,-0.400,-0.060
241,-0.400,-0.060
242,-0.395,-0.065
243,-0.405,-0.060
244,-0.410,-0.065
245,-0.405,-0.060
246,-0.400,-0.050
247,-0.405,-0.050
248,-0.405,-0.060
249,-0.420,-0.075
250,-0.445,-0.070
251,-0.475,-0.055
252,-0.540,-0.055
253,-0.580,-0.085
254,-0.590,-0.105
255,-0.550,-0.110
256,-0.485,-0.075
257,-0.390,-0.035
258,-0.210,0.010
259,0.090,0.095
260,0.470,0.235
261,0.850,0.430
262,1.190,0.670
263,1.510,0.910
264,1.750,1.160
265,1.850,1.365
266,1.800,1.435
267,1.585,1.380
268,1.140,1.170
269,0.620,0.820
270,0.130,0.380
271,-0.235,-0.030
272,-0.440,-0.345
273,-0.520,-0.475
274,-0.525,-0.480
275,-0.485,-0.410
276,-0.405,-0.300
277,-0.330,-0.195
278,-0.295,-0.100
279,-0.320,-0.040
280,-0.360,-0.020
281,-0.375,-0.010
282,-0.375,-0.020
283,-0.380,-0.035
284,-0.380,-0.040
285,-0.395,-0.045
286,-0.420,-0.050
287,-0.430,-0.045
288,-0.435,-0.040
289,-0.430,-0.055
290,-0.435,-0.060
291,-0.450,-0.060
292,-0.465,-0.075
293,-0.460,-0.055
294,-0.450,-0.050
295,-0.445,-0.050
296,-0.460,-0.060
297,-0.465,-0.060
298,-0.485,-0.060
299,-0.470,-0.050
300,-0.455,-0.045
301,-0.465,-0.055
302,-0.460,-0.065
303,-0.470,-0.060
304,-0.475,-0.055
305,-0.465,-0.045
306,-0.475,-0.030
307,-0.475,-0.045
308,-0.470,-0.040
309,-0.465,-0.050
310,-0.485,-0.050
311,-0.470,-0.035
312,-0.460,-0.025
313,-0.455,-0.020
314,-0.440,-0.040
315,-0.460,-0.040
316,-0.470,-0.040
317,-0.450,-0.035
318,-0.430,-0.025
319,-0.435,-0.020
320,-0.435,-0.020
321,-0.435,-0.020
322,-0.440,-0.020
323,-0.425,-0.005
324,-0.410,0.005
325,-0.395,-0.005
326,-0.390,0.000
327,-0.400,-0.005
328,-0.400,0.000
329,-0.390,0.005
330,-0.370,0.035
331,-0.345,0.030
332,-0.340,0.035
333,-0.340,0.025
334,-0.345,0.030
335,-0.320,0.055
336,-0.290,0.080
337,-0.275,0.060
338,-0.260,0.065
339,-0.255,0.075
340,-0.240,0.080
341,-0.210,0.110
342,-0.185,0.140
343,-0.160,0.135
344,-0.135,0.150
345,-0.130,0.155
346,-0.125,0.155
347,-0.100,0.180
348,-0.070,0.200
349,-0.040,0.205
350,-0.040,0.210
351,-0.025,0.220
352,-0.005,0.225
353,0.015,0.240
354,0.035,0.265
355,0.060,0.275
356,0.055,0.260
357,0.060,0.270
358,0.070,0.275
359,0.085,0.280
360,0.105,0.300
361,0.115,0.300
362,0.110,0.300
363,0.110,0.300
364,0.095,0.295
365,0.100,0.305
366,0.095,0.320
367,0.090,0.295
368,0.085,0.285
369,0.055,0.275
370,0.045,0.260
371,0.030,0.260
372,0.015,0.260
373,-0.010,0.245
374,-0.030,0.220
375,-0.065,0.205
376,-0.090,0.190
377,-0.115,0.170
378,-0.130,0.170
379,-0.150,0.140
380,-0.180,0.115
381,-0.215,0.100
382,-0.240,0.085
383,-0.250,0.065
384,-0.260,0.070
385,-0.270,0.040
386,-0.275,0.030
387,-0.305,0.010
388,-0.315,-0.010
389,-0.325,0.005
390,-0.315,0.000
391,-0.310,-0.005
392,-0.310,-0.015
393,-0.350,-0.030
394,-0.345,-0.035
395,-0.350,-0.030
396,-0.330,-0.015
397,-0.325,-0.035
398,-0.330,-0.040
399,-0.345,-0.055
400,-0.350,-0.065
401,-0.345,-0.050
402,-0.350,-0.040
403,-0.340,-0.045
404,-0.345,-0.045
405,-0.350,-0.050
406,-0.355,-0.070
407,-0.350,-0.055
408,-0.330,-0.040
409,-0.330,-0.050
410,-0.330,-0.045
411,-0.330,-0.050
412,-0.335,-0.050
413,-0.325,-0.040
414,-0.320,-0.020
415,-0.315,-0.040
416,-0.315,-0.045
417,-0.320,-0.045
418,-0.330,-0.050
419,-0.315,-0.045
420,-0.310,-0.015
421,-0.300,-0.005
422,-0.300,-0.015
423,-0.310,-0.040
424,-0.320,-0.025
425,-0.310,-0.030
426,-0.305,-0.020
427,-0.295,-0.025
428,-0.295,-0.020
429,-0.295,-0.025
430,-0.315,-0.020
431,-0.310,-0.010
432,-0.295,-0.010
433,-0.295,-0.015
434,-0.300,-0.020
435,-0.310,-0.025
436,-0.305,-0.025
437,-0.310,-0.020
438,-0.305,-0.010
439,-0.295,-0.020
440,-0.300,-0.025
441,-0.315,-0.040
442,-0.325,-0.035
443,-0.330,-0.020
444,-0.315,-0.030
445,-0.310,-0.035
446,-0.315,-0.030
447,-0.325,-0.050
448,-0.335,-0.045
449,-0.330,-0.040
450,-0.325,-0.035
451,-0.320,-0.040
452,-0.335,-0.050
453,-0.330,-0.065
454,-0.340,-0.065
455,-0.350,-0.070
456,-0.345,-0.055
457,-0.340,-0.060
458,-0.340,-0.070
459,-0.350,-0.075
460,-0.355,-0.075
461,-0.350,-0.075
462,-0.345,-0.070
463,-0.345,-0.080
464,-0.345,-0.090
465,-0.350,-0.100
466,-0.375,-0.105
467,-0.365,-0.100
468,-0.360,-0.085
469,-0.370,-0.090
470,-0.365,-0.100
471,-0.365,-0.110
472,-0.380,-0.110
473,-0.385,-0.115
474,-0.375,-0.105
475,-0.370,-0.105
476,-0.375,-0.115
477,-0.385,-0.110
478,-0.400,-0.125
479,-0.380,-0.115
480,-0.385,-0.105
481,-0.375,-0.110
482,-0.370,-0.120
483,-0.390,-0.130
484,-0.400,-0.135
485,-0.395,-0.125
486,-0.375,-0.115
487,-0.380,-0.115
488,-0.385,-0.125
489,-0.385,-0.135
490,-0.395,-0.145
491,-0.400,-0.130
492,-0.395,-0.120
493,-0.385,-0.115
494,-0.380,-0.130
495,-0.385,-0.135
496,-0.385,-0.145
497,-0.375,-0.130
498,-0.360,-0.125
499,-0.355,-0.125
500,-0.335,-0.125
501,-0.335,-0.130
502,-0.315,-0.130
503,-0.310,-0.125
504,-0.310,-0.110
505,-0.310,-0.110
506,-0.315,-0.135
507,-0.305,-0.120
508,-0.310,-0.130
509,-0.285,-0.115
510,-0.270,-0.110
511,-0.265,-0.110
512,-0.260,-0.130
513,-0.270,-0.135
514,-0.275,-0.130
515,-0.265,-0.120
516,-0.250,-0.105
517,-0.250,-0.120
518,-0.265,-0.120
519,-0.275,-0.130
520,-0.295,-0.150
521,-0.315,-0.145
522,-0.310,-0.150
523,-0.315,-0.160
524,-0.315,-0.175
525,-0.310,-0.185
526,-0.320,-0.175
527,-0.310,-0.145
528,-0.300,-0.115
529,-0.320,-0.110
530,-0.340,-0.115
531,-0.355,-0.115
532,-0.375,-0.115
533,-0.380,-0.120
534,-0.380,-0.110
535,-0.390,-0.120
536,-0.405,-0.135
537,-0.405,-0.145
538,-0.420,-0.145
539,-0.430,-0.150
540,-0.425,-0.145
541,-0.430,-0.145
542,-0.435,-0.160
543,-0.450,-0.155
544,-0.450,-0.170
545,-0.450,-0.155
546,-0.450,-0.145
547,-0.435,-0.160
548,-0.440,-0.155
549,-0.440,-0.155
550,-0.460,-0.155
551,-0.455,-0.145
552,-0.450,-0.135
553,-0.450,-0.145
554,-0.440,-0.145
555,-0.450,-0.160
556,-0.455,-0.165
557,-0.450,-0.155
558,-0.435,-0.140
559,-0.435,-0.145
560,-0.445,-0.150
561,-0.460,-0.150
562,-0.510,-0.145
563,-0.570,-0.155
564,-0.620,-0.170
565,-0.635,-0.185
566,-0.590,-0.180
567,-0.535,-0.160
568,-0.455,-0.140
569,-0.275,-0.075
570,0.045,0.015
571,0.445,0.185
572,0.875,0.400
573,1.230,0.640
574,1.535,0.895
575,1.750,1.160
576,1.840,1.335
577,1.730,1.345
578,1.365,1.175
579,0.790,0.795
580,0.195,0.295
581,-0.260,-0.165
582,-0.485,-0.465
583,-0.550,-0.575
584,-0.540,-0.555
585,-0.505,-0.460
586,-0.420,-0.340
587,-0.355,-0.205
588,-0.340,-0.110
589,-0.375,-0.095
590,-0.395,-0.110
591,-0.415,-0.130
592,-0.415,-0.135
593,-0.415,-0.125
594,-0.405,-0.120
595,-0.430,-0.120
596,-0.455,-0.140
597,-0.475,-0.150
598,-0.495,-0.165
599,-0.495,-0.155
600,-0.485,-0.140
601,-0.485,-0.150
602,-0.485,-0.150
603,-0.510,-0.150
604,-0.515,-0.155
605,-0.520,-0.150
606,-0.500,-0.140
607,-0.495,-0.140
608,-0.500,-0.135
609,-0.490,-0.145
610,-0.510,-0.145
611,-0.500,-0.135
612,-0.495,-0.120
613,-0.485,-0.120
614,-0.495,-0.135
615,-0.495,-0.145
616,-0.510,-0.155
617,-0.500,-0.130
618,-0.490,-0.120
619,-0.480,-0.110
620,-0.490,-0.105
621,-0.475,-0.120
622,-0.495,-0.125
623,-0.470,-0.115
624,-0.470,-0.100
625,-0.470,-0.105
626,-0.460,-0.110
627,-0.465,-0.115
628,-0.455,-0.100
629,-0.445,-0.095
630,-0.435,-0.075
631,-0.410,-0.065
632,-0.405,-0.095
633,-0.410,-0.085
634,-0.410,-0.075
635,-0.400,-0.060
636,-0.380,-0.040
637,-0.355,-0.045
638,-0.340,-0.035
639,-0.330,-0.040
640,-0.330,-0.030
641,-0.295,-0.005
642,-0.275,0.025
643,-0.265,0.015
644,-0.245,0.025
645,-0.230,0.030
646,-0.215,0.035
647,-0.190,0.060
648,-0.165,0.075
649,-0.130,0.090
650,-0.100,0.115
651,-0.100,0.115
652,-0.085,0.115
653,-0.065,0.135
654,-0.050,0.155
655,-0.020,0.155
656,-0.010,0.170
657,-0.005,0.175
658,-0.005,0.180
659,0.025,0.200
660,0.030,0.215
661,0.070,0.215
662,0.070,0.220
663,0.060,0.230
664,0.055,0.220
665,0.070,0.235
666,0.075,0.240
667,0.075,0.235
668,0.060,0.225
669,0.045,0.210
670,0.015,0.195
671,0.015,0.200
672,0.010,0.200
673,-0.005,0.180
674,-0.015,0.165
675,-0.075,0.140
676,-0.095,0.120
677,-0.115,0.110
678,-0.125,0.105
679,-0.140,0.090
680,-0.165,0.060
681,-0.205,0.045
682,-0.230,0.025
683,-0.250,0.010
684,-0.260,0.000
685,-0.270,-0.020
686,-0.280,-0.035
687,-0.305,-0.055
688,-0.320,-0.060
689,-0.325,-0.060
690,-0.320,-0.065
691,-0.335,-0.065
692,-0.330,-0.090
693,-0.355,-0.110
694,-0.360,-0.115
695,-0.355,-0.115
696,-0.345,-0.115
697,-0.345,-0.110
698,-0.350,-0.110
699,-0.350,-0.125
700,-0.355,-0.135
701,-0.345,-0.115
702,-0.340,-0.105
703,-0.345,-0.105
704,-0.345,-0.125
705,-0.350,-0.140
706,-0.355,-0.150
707,-0.350,-0.125
708,-0.340,-0.120
709,-0.330,-0.110
710,-0.335,-0.115
711,-0.335,-0.120
712,-0.345,-0.130
713,-0.340,-0.110
714,-0.335,-0.105
715,-0.325,-0.110
716,-0.330,-0.115
717,-0.340,-0.130
718,-0.340,-0.125
719,-0.325,-0.105
720,-0.330,-0.080
721,-0.320,-0.100
722,-0.315,-0.100
723,-0.325,-0.095
724,-0.335,-0.105
725,-0.335,-0.095
726,-0.325,-0.090
727,-0.310,-0.095
728,-0.310,-0.110
729,-0.320,-0.115
730,-0.335,-0.120
731,-0.320,-0.110
732,-0.320,-0.085
733,-0.315,-0.095
734,-0.310,-0.095
735,-0.335,-0.110
736,-0.325,-0.095
737,-0.335,-0.090
738,-0.315,-0.075
739,-0.330,-0.090
740,-0.320,-0.105
741,-0.335,-0.115
742,-0.335,-0.115
743,-0.330,-0.100
744,-0.325,-0.110
745,-0.315,-0.105
746,-0.315,-0.115
747,-0.320,-0.125
748,-0.345,-0.135
749,-0.335,-0.125
750,-0.330,-0.135
751,-0.335,-0.145
752,-0.335,-0.145
753,-0.345,-0.150
754,-0.350,-0.160
755,-0.350,-0.145
756,-0.355,-0.140
757,-0.350,-0.150
758,-0.355,-0.170
759,-0.365,-0.175
760,-0.375,-0.185
761,-0.365,-0.165
762,-0.370,-0.145
763,-0.360,-0.165
764,-0.365,-0.175
765,-0.385,-0.190
766,-0.385,-0.185
767,-0.380,-0.185
768,-0.370,-0.185
769,-0.375,-0.190
770,-0.375,-0.185
771,-0.385,-0.210
772,-0.395,-0.195
773,-0.390,-0.195
774,-0.385,-0.185
775,-0.395,-0.200
776,-0.395,-0.195
777,-0.405,-0.205
778,-0.410,-0.215
779,-0.410,-0.200
780,-0.405,-0.190
781,-0.400,-0.200
782,-0.400,-0.205
783,-0.410,-0.215
784,-0.410,-0.215
785,-0.410,-0.200
786,-0.405,-0.190
787,-0.405,-0.205
788,-0.405,-0.205
789,-0.400,-0.215
790,-0.400,-0.220
791,-0.400,-0.205
792,-0.385,-0.200
793,-0.385,-0.205
794,-0.380,-0.200
795,-0.405,-0.210
796,-0.405,-0.220
797,-0.395,-0.210
798,-0.395,-0.195
799,-0.385,-0.210
800,-0.365,-0.205
801,-0.370,-0.205
802,-0.350,-0.220
803,-0.335,-0.195
804,-0.330,-0.190
805,-0.320,-0.185
806,-0.315,-0.190
807,-0.330,-0.190
808,-0.335,-0.195
809,-0.320,-0.185
810,-0.310,-0.180
811,-0.290,-0.190
812,-0.290,-0.200
813,-0.305,-0.210
814,-0.315,-0.205
815,-0.300,-0.195
816,-0.280,-0.190
817,-0.290,-0.195
818,-0.290,-0.195
819,-0.300,-0.210
820,-0.320,-0.210
821,-0.325,-0.205
822,-0.345,-0.215
823,-0.345,-0.230
824,-0.340,-0.255
825,-0.350,-0.255
826,-0.345,-0.250
827,-0.340,-0.245
828,-0.320,-0.220
829,-0.325,-0.200
830,-0.340,-0.210
831,-0.365,-0.205
832,-0.385,-0.200
833,-0.390,-0.195
834,-0.380,-0.180
835,-0.385,-0.195
836,-0.395,-0.210
837,-0.415,-0.220
838,-0.430,-0.225
839,-0.430,-0.210
840,-0.445,-0.205
841,-0.445,-0.215
842,-0.455,-0.225
843,-0.455,-0.240
844,-0.455,-0.235
845,-0.445,-0.220
846,-0.435,-0.215
847,-0.435,-0.215
848,-0.450,-0.225
849,-0.465,-0.230
850,-0.470,-0.225
851,-0.460,-0.230
852,-0.450,-0.220
853,-0.445,-0.225
854,-0.440,-0.225
855,-0.445,-0.215
856,-0.455,-0.220
857,-0.455,-0.240
858,-0.450,-0.220
859,-0.445,-0.230
860,-0.450,-0.220
861,-0.455,-0.225
862,-0.475,-0.235
863,-0.515,-0.220
864,-0.570,-0.225
865,-0.600,-0.255
866,-0.585,-0.245
867,-0.535,-0.225
868,-0.470,-0.190
869,-0.360,-0.150
870,-0.170,-0.075
871,0.170,0.050
872,0.535,0.230
873,0.900,0.445
874,1.215,0.675
875,1.505,0.900
876,1.685,1.100
877,1.700,1.180
878,1.505,1.125
879,1.060,0.885
880,0.490,0.485
881,-0.025,0.045
882,-0.365,-0.280
883,-0.525,-0.500
884,-0.575,-0.575
885,-0.570,-0.540
886,-0.480,-0.445
887,-0.380,-0.310
888,-0.335,-0.195
889,-0.345,-0.155
890,-0.395,-0.160
891,-0.410,-0.185
892,-0.430,-0.205
893,-0.415,-0.200
894,-0.420,-0.175
895,-0.425,-0.180
896,-0.440,-0.190
897,-0.470,-0.205
898,-0.475,-0.210
899,-0.480,-0.205
900,-0.475,-0.195
901,-0.475,-0.195
902,-0.480,-0.200
903,-0.485,-0.215
904,-0.495,-0.210
905,-0.485,-0.200
906,-0.485,-0.195
907,-0.490,-0.215
908,-0.480,-0.200
909,-0.490,-0.210
910,-0.485,-0.205
911,-0.480,-0.190
912,-0.470,-0.185
913,-0.475,-0.195
914,-0.485,-0.205
915,-0.490,-0.220
916,-0.490,-0.205
917,-0.490,-0.185
918,-0.475,-0.160
919,-0.480,-0.180
920,-0.470,-0.185
921,-0.480,-0.195
922,-0.490,-0.200
923,-0.485,-0.200
924,-0.455,-0.185
925,-0.450,-0.180
926,-0.450,-0.180
927,-0.455,-0.180
928,-0.475,-0.170
929,-0.445,-0.160
930,-0.435,-0.150
931,-0.425,-0.160
932,-0.425,-0.175
933,-0.435,-0.170
934,-0.430,-0.165
935,-0.410,-0.150
936,-0.400,-0.130
937,-0.380,-0.130
938,-0.375,-0.125
939,-0.365,-0.130
940,-0.355,-0.125
941,-0.335,-0.110
942,-0.315,-0.105
943,-0.295,-0.095
944,-0.290,-0.085
945,-0.270,-0.070
946,-0.260,-0.055
947,-0.240,-0.050
948,-0.215,-0.015
949,-0.205,-0.015
950,-0.180,-0.010
951,-0.170,-0.010
952,-0.160,-0.005
953,-0.130,0.030
954,-0.105,0.045
955,-0.090,0.055
956,-0.070,0.055
957,-0.060,0.075
958,-0.055,0.080
959,-0.045,0.090
960,-0.025,0.110
961,0.005,0.115
962,0.010,0.120
963,0.010,0.130
964,0.015,0.135
965,0.035,0.155
966,0.040,0.170
967,0.055,0.170
968,0.060,0.165
969,0.035,0.155
970,0.030,0.150
971,0.045,0.150
972,0.035,0.160
973,0.040,0.160
974,0.030,0.165
975,0.005,0.155
976,-0.010,0.125
977,-0.030,0.115
978,-0.040,0.120
979,-0.055,0.105
980,-0.095,0.065
981,-0.105,0.050
982,-0.135,0.035
983,-0.155,0.030
984,-0.170,0.030
985,-0.175,0.010
986,-0.200,-0.015
987,-0.225,-0.040
988,-0.260,-0.055
989,-0.265,-0.065
990,-0.270,-0.070
991,-0.265,-0.095
992,-0.285,-0.115
993,-0.300,-0.130
994,-0.310,-0.135
995,-0.315,-0.130
996,-0.305,-0.125
997,-0.300,-0.140
998,-0.315,-0.155
999,-0.335,-0.165
1000,-0.345,-0.155
1001,-0.325,-0.150
1002,-0.330,-0.170
1003,-0.325,-0.160
1004,-0.330,-0.185
1005,-0.345,-0.170
1006,-0.335,-0.170
1007,-0.335,-0.170
1008,-0.330,-0.165
1009,-0.335,-0.175
1010,-0.335,-0.175
1011,-0.350,-0.190
1012,-0.340,-0.175
1013,-0.335,-0.180
1014,-0.330,-0.180
1015,-0.335,-0.175
1016,-0.325,-0.180
1017,-0.330,-0.175
1018,-0.320,-0.175
1019,-0.320,-0.160
1020,-0.315,-0.160
1021,-0.320,-0.165
1022,-0.315,-0.175
1023,-0.310,-0.180
1024,-0.305,-0.155
1025,-0.300,-0.155
1026,-0.295,-0.145
1027,-0.305,-0.150
1028,-0.310,-0.150
1029,-0.295,-0.150
1030,-0.295,-0.155
1031,-0.300,-0.130
1032,-0.290,-0.145
1033,-0.285,-0.140
1034,-0.285,-0.150
1035,-0.295,-0.135
1036,-0.290,-0.135
1037,-0.285,-0.125
1038,-0.280,-0.130
1039,-0.280,-0.135
1040,-0.285,-0.145
1041,-0.295,-0.135
1042,-0.285,-0.125
1043,-0.285,-0.110
1044,-0.290,-0.130
1045,-0.280,-0.135
1046,-0.285,-0.145
1047,-0.290,-0.130
1048,-0.295,-0.135
1049,-0.275,-0.120
1050,-0.285,-0.130
1051,-0.295,-0.140
1052,-0.295,-0.140
1053,-0.300,-0.155
1054,-0.300,-0.150
1055,-0.295,-0.140
1056,-0.295,-0.145
1057,-0.305,-0.150
1058,-0.320,-0.165
1059,-0.320,-0.160
1060,-0.320,-0.160
1061,-0.310,-0.150
1062,-0.310,-0.165
1063,-0.320,-0.165
1064,-0.325,-0.175
1065,-0.340,-0.185
1066,-0.330,-0.170
1067,-0.330,-0.160
1068,-0.335,-0.175
1069,-0.345,-0.195
1070,-0.350,-0.195
1071,-0.355,-0.190
1072,-0.355,-0.195
1073,-0.345,-0.190
1074,-0.345,-0.200
1075,-0.350,-0.220
1076,-0.355,-0.220
1077,-0.375,-0.215
1078,-0.365,-0.215
1079,-0.360,-0.210
1080,-0.355,-0.205
1081,-0.360,-0.220
1082,-0.365,-0.220
1083,-0.375,-0.225
1084,-0.370,-0.215
1085,-0.360,-0.200
1086,-0.360,-0.215
1087,-0.370,-0.215
1088,-0.375,-0.225
1089,-0.380,-0.235
1090,-0.380,-0.225
1091,-0.370,-0.215
1092,-0.365,-0.220
1093,-0.365,-0.220
1094,-0.375,-0.225
1095,-0.380,-0.245
1096,-0.380,-0.230
1097,-0.370,-0.215
1098,-0.355,-0.225
1099,-0.355,-0.235
1100,-0.375,-0.230
1101,-0.380,-0.230
1102,-0.370,-0.225
1103,-0.370,-0.225
1104,-0.355,-0.235
1105,-0.355,-0.230
1106,-0.340,-0.245
1107,-0.345,-0.240
1108,-0.330,-0.235
1109,-0.300,-0.215
1110,-0.295,-0.225
1111,-0.290,-0.230
1112,-0.300,-0.235
1113,-0.300,-0.245
1114,-0.290,-0.215
1115,-0.285,-0.215
1116,-0.270,-0.215
1117,-0.255,-0.215
1118,-0.260,-0.225
1119,-0.270,-0.235
1120,-0.275,-0.220
1121,-0.250,-0.215
1122,-0.235,-0.230
1123,-0.235,-0.235
1124,-0.250,-0.240
1125,-0.265,-0.240
1126,-0.280,-0.245
1127,-0.280,-0.240
1128,-0.290,-0.255
1129,-0.310,-0.285
1130,-0.315,-0.285
1131,-0.315,-0.290
1132,-0.300,-0.275
1133,-0.285,-0.255
1134,-0.280,-0.235
1135,-0.305,-0.230
1136,-0.315,-0.225
1137,-0.340,-0.225
1138,-0.350,-0.225
1139,-0.345,-0.220
1140,-0.355,-0.235
1141,-0.380,-0.250
1142,-0.395,-0.255
1143,-0.400,-0.240
1144,-0.385,-0.240
1145,-0.395,-0.245
1146,-0.400,-0.250
1147,-0.405,-0.265
1148,-0.420,-0.265
1149,-0.435,-0.270
1150,-0.415,-0.255
1151,-0.420,-0.250
1152,-0.425,-0.250
1153,-0.425,-0.260
1154,-0.430,-0.260
1155,-0.430,-0.265
1156,-0.430,-0.250
1157,-0.430,-0.245
1158,-0.415,-0.245
1159,-0.425,-0.255
1160,-0.435,-0.255
1161,-0.435,-0.260
1162,-0.425,-0.245
1163,-0.420,-0.235
1164,-0.425,-0.250
1165,-0.420,-0.250
1166,-0.435,-0.250
1167,-0.465,-0.245
1168,-0.505,-0.250
1169,-0.555,-0.245
1170,-0.585,-0.275
1171,-0.555,-0.260
1172,-0.495,-0.240
1173,-0.410,-0.190
1174,-0.230,-0.125
1175,0.075,-0.015
1176,0.485,0.150
1177,0.900,0.370
1178,1.270,0.600
1179,1.565,0.850
1180,1.770,1.060
1181,1.820,1.180
1182,1.655,1.145
1183,1.245,0.930
1184,0.660,0.525
1185,0.085,0.045
1186,-0.335,-0.355
1187,-0.540,-0.565
1188,-0.560,-0.610
1189,-0.515,-0.555
1190,-0.425,-0.465
1191,-0.350,-0.330
1192,-0.325,-0.225
1193,-0.330,-0.175
1194,-0.365,-0.175
1195,-0.390,-0.190
1196,-0.400,-0.225
1197,-0.395,-0.235
1198,-0.410,-0.210
1199,-0.420,-0.200
1200,-0.435,-0.220
1201,-0.440,-0.230
1202,-0.450,-0.240
1203,-0.455,-0.250
1204,-0.460,-0.240
1205,-0.455,-0.230
1206,-0.450,-0.230
1207,-0.460,-0.240
1208,-0.480,-0.245
1209,-0.480,-0.235
1210,-0.465,-0.220
1211,-0.465,-0.210
1212,-0.460,-0.215
1213,-0.465,-0.220
1214,-0.465,-0.225
1215,-0.470,-0.225
1216,-0.465,-0.215
1217,-0.470,-0.215
1218,-0.470,-0.220
1219,-0.470,-0.220
1220,-0.470,-0.215
1221,-0.480,-0.215
1222,-0.470,-0.200
1223,-0.450,-0.185
1224,-0.450,-0.200
1225,-0.455,-0.200
1226,-0.455,-0.220
1227,-0.455,-0.205
1228,-0.460,-0.200
1229,-0.445,-0.185
1230,-0.430,-0.195
1231,-0.435,-0.195
1232,-0.425,-0.190
1233,-0.430,-0.195
1234,-0.425,-0.180
1235,-0.405,-0.165
1236,-0.400,-0.170
1237,-0.385,-0.165
1238,-0.385,-0.175
1239,-0.375,-0.160
1240,-0.375,-0.150
1241,-0.365,-0.155
1242,-0.340,-0.135
1243,-0.335,-0.135
1244,-0.325,-0.135
1245,-0.315,-0.125
1246,-0.290,-0.105
1247,-0.265,-0.080
1248,-0.245,-0.070
1249,-0.220,-0.080
1250,-0.215,-0.070
1251,-0.210,-0.060
1252,-0.185,-0.040
1253,-0.155,-0.025
1254,-0.130,-0.015
1255,-0.110,-0.015
1256,-0.090,-0.005
1257,-0.090,0.010
1258,-0.060,0.025
1259,-0.025,0.055
1260,-0.010,0.055
1261,-0.005,0.065
1262,0.015,0.080
1263,0.010,0.080
1264,0.045,0.105
1265,0.075,0.115
1266,0.080,0.115
1267,0.100,0.130
1268,0.085,0.105
1269,0.095,0.120
1270,0.110,0.130
1271,0.125,0.155
1272,0.120,0.150
1273,0.135,0.145
1274,0.120,0.120
1275,0.095,0.125
1276,0.095,0.125
1277,0.105,0.130
1278,0.100,0.125
1279,0.085,0.115
1280,0.055,0.090
1281,0.015,0.080
1282,0.010,0.075
1283,-0.005,0.060
1284,-0.020,0.045
1285,-0.055,0.025
1286,-0.075,0.015
1287,-0.115,-0.010
1288,-0.125,-0.005
1289,-0.140,-0.030
1290,-0.155,-0.045
1291,-0.180,-0.065
1292,-0.210,-0.095
1293,-0.235,-0.105
1294,-0.235,-0.110
1295,-0.250,-0.125
1296,-0.250,-0.125
1297,-0.270,-0.160
1298,-0.280,-0.170
1299,-0.290,-0.180
1300,-0.315,-0.175
1301,-0.300,-0.165
1302,-0.305,-0.170
1303,-0.305,-0.190
1304,-0.315,-0.210
1305,-0.330,-0.215
1306,-0.330,-0.195
1307,-0.320,-0.200
1308,-0.325,-0.205
1309,-0.315,-0.205
1310,-0.335,-0.225
1311,-0.345,-0.215
1312,-0.330,-0.210
1313,-0.320,-0.205
1314,-0.315,-0.205
1315,-0.325,-0.215
1316,-0.330,-0.230
1317,-0.340,-0.225
1318,-0.320,-0.210
1319,-0.315,-0.210
1320,-0.305,-0.205
1321,-0.310,-0.215
1322,-0.315,-0.215
1323,-0.320,-0.215
1324,-0.300,-0.205
1325,-0.295,-0.200
1326,-0.290,-0.195
1327,-0.300,-0.195
1328,-0.310,-0.200
1329,-0.310,-0.200
1330,-0.300,-0.180
1331,-0.290,-0.180
1332,-0.290,-0.170
1333,-0.285,-0.185
1334,-0.290,-0.185
1335,-0.295,-0.180
1336,-0.285,-0.180
1337,-0.270,-0.160
1338,-0.275,-0.165
1339,-0.275,-0.165
1340,-0.280,-0.180
1341,-0.290,-0.175
1342,-0.290,-0.170
1343,-0.280,-0.155
1344,-0.280,-0.165
1345,-0.270,-0.160
1346,-0.280,-0.185
1347,-0.295,-0.185
1348,-0.290,-0.175
1349,-0.270,-0.170
1350,-0.285,-0.165
1351,-0.285,-0.185
1352,-0.290,-0.205
1353,-0.300,-0.195
1354,-0.285,-0.185
1355,-0.290,-0.170
1356,-0.295,-0.175
1357,-0.305,-0.190
1358,-0.305,-0.195
1359,-0.315,-0.200
1360,-0.300,-0.185
1361,-0.300,-0.205
1362,-0.300,-0.190
1363,-0.310,-0.205
1364,-0.315,-0.215
1365,-0.335,-0.220
1366,-0.320,-0.220
1367,-0.310,-0.200
1368,-0.315,-0.215
1369,-0.325,-0.230
1370,-0.325,-0.230
1371,-0.340,-0.230
1372,-0.335,-0.230
1373,-0.335,-0.230
1374,-0.330,-0.230
1375,-0.340,-0.250
1376,-0.345,-0.255
1377,-0.350,-0.250
1378,-0.345,-0.235
1379,-0.335,-0.225
1380,-0.335,-0.245
1381,-0.345,-0.250
1382,-0.375,-0.260
1383,-0.370,-0.260
1384,-0.360,-0.260
1385,-0.345,-0.245
1386,-0.350,-0.250
1387,-0.355,-0.265
1388,-0.365,-0.275
1389,-0.380,-0.270
1390,-0.370,-0.250
1391,-0.365,-0.250
1392,-0.360,-0.250
1393,-0.370,-0.255
1394,-0.370,-0.260
1395,-0.375,-0.260
1396,-0.370,-0.260
1397,-0.370,-0.245
1398,-0.365,-0.245
1399,-0.370,-0.260
1400,-0.380,-0.270
1401,-0.380,-0.255
1402,-0.375,-0.260
1403,-0.365,-0.240
1404,-0.360,-0.255
1405,-0.365,-0.260
1406,-0.355,-0.280
1407,-0.355,-0.270
1408,-0.355,-0.250
1409,-0.335,-0.245
1410,-0.310,-0.240
1411,-0.310,-0.255
1412,-0.300,-0.255
1413,-0.295,-0.260
1414,-0.295,-0.245
1415,-0.280,-0.225
1416,-0.275,-0.230
1417,-0.270,-0.240
1418,-0.270,-0.245
1419,-0.265,-0.245
1420,-0.260,-0.230
1421,-0.255,-0.240
1422,-0.255,-0.250
1423,-0.245,-0.240
1424,-0.240,-0.250
1425,-0.255,-0.250
1426,-0.245,-0.235
1427,-0.250,-0.230
1428,-0.260,-0.255
1429,-0.275,-0.250
1430,-0.290,-0.275
1431,-0.310,-0.280
1432,-0.320,-0.285
1433,-0.305,-0.275
1434,-0.290,-0.285
1435,-0.285,-0.295
1436,-0.290,-0.285
1437,-0.305,-0.250
1438,-0.310,-0.225
1439,-0.325,-0.215
1440,-0.335,-0.230
1441,-0.335,-0.230
1442,-0.360,-0.240
1443,-0.380,-0.250
1444,-0.385,-0.245
1445,-0.380,-0.255
1446,-0.390,-0.255
1447,-0.405,-0.260
1448,-0.420,-0.275
1449,-0.430,-0.275
1450,-0.425,-0.275
1451,-0.420,-0.260
1452,-0.430,-0.280
1453,-0.425,-0.280
1454,-0.440,-0.290
1455,-0.435,-0.275
1456,-0.425,-0.265
1457,-0.430,-0.265
1458,-0.425,-0.255
1459,-0.425,-0.265
1460,-0.430,-0.280
1461,-0.440,-0.275
1462,-0.445,-0.270
1463,-0.420,-0.255
1464,-0.415,-0.260
1465,-0.425,-0.260
1466,-0.425,-0.260
1467,-0.445,-0.265
1468,-0.450,-0.255
1469,-0.480,-0.255
1470,-0.530,-0.270
1471,-0.580,-0.300
1472,-0.590,-0.310
1473,-0.565,-0.295
1474,-0.480,-0.255
1475,-0.360,-0.200
1476,-0.150,-0.145
1477,0.180,-0.040
1478,0.590,0.150
1479,0.985,0.395
1480,1.370,0.665
1481,1.665,0.925
1482,1.820,1.160
1483,1.825,1.275
1484,1.655,1.245
1485,1.215,1.005
1486,0.640,0.605
1487,0.090,0.120
1488,-0.280,-0.310
1489,-0.480,-0.585
1490,-0.530,-0.665
1491,-0.505,-0.605
1492,-0.425,-0.500
1493,-0.345,-0.370
1494,-0.295,-0.275
1495,-0.315,-0.210
1496,-0.370,-0.200
1497,-0.400,-0.210
1498,-0.390,-0.220
1499,-0.385,-0.220
1500,-0.385,-0.220
1501,-0.410,-0.240
1502,-0.430,-0.240
1503,-0.445,-0.250
1504,-0.445,-0.250
1505,-0.435,-0.250
1506,-0.435,-0.230
1507,-0.455,-0.255
1508,-0.465,-0.260
1509,-0.470,-0.255
1510,-0.465,-0.250
1511,-0.455,-0.235
1512,-0.455,-0.240
1513,-0.455,-0.240
1514,-0.465,-0.245
1515,-0.480,-0.250
1516,-0.475,-0.230
1517,-0.465,-0.220
1518,-0.465,-0.225
1519,-0.465,-0.245
1520,-0.460,-0.255
1521,-0.475,-0.240
1522,-0.470,-0.225
1523,-0.465,-0.210
1524,-0.450,-0.230
1525,-0.450,-0.215
1526,-0.460,-0.235
1527,-0.470,-0.225
1528,-0.455,-0.230
1529,-0.445,-0.210
1530,-0.440,-0.215
1531,-0.435,-0.210
1532,-0.435,-0.215
1533,-0.440,-0.215
1534,-0.445,-0.200
1535,-0.430,-0.190
1536,-0.410,-0.195
1537,-0.410,-0.200
1538,-0.410,-0.190
1539,-0.405,-0.190
1540,-0.400,-0.185
1541,-0.380,-0.155
1542,-0.365,-0.165
1543,-0.360,-0.165
1544,-0.355,-0.170
1545,-0.345,-0.155
1546,-0.330,-0.145
1547,-0.305,-0.130
1548,-0.300,-0.110
1549,-0.285,-0.115
1550,-0.270,-0.110
1551,-0.260,-0.100
1552,-0.230,-0.075
1553,-0.220,-0.065
1554,-0.200,-0.045
1555,-0.185,-0.050
1556,-0.160,-0.035
1557,-0.150,-0.030
1558,-0.120,-0.025
1559,-0.095,0.000
1560,-0.075,0.025
1561,-0.050,0.025
1562,-0.035,0.035
1563,-0.035,0.055
1564,-0.005,0.070
1565,0.025,0.085
1566,0.035,0.095
1567,0.050,0.085
1568,0.045,0.095
1569,0.060,0.105
1570,0.070,0.105
1571,0.090,0.135
1572,0.105,0.135
1573,0.115,0.140
1574,0.120,0.130
1575,0.110,0.135
1576,0.120,0.150
1577,0.120,0.155
1578,0.130,0.155
1579,0.130,0.135
1580,0.105,0.140
1581,0.085,0.130
1582,0.090,0.145
1583,0.080,0.120
1584,0.060,0.115
1585,0.035,0.095
1586,-0.005,0.075
1587,-0.025,0.070
1588,-0.025,0.060
1589,-0.045,0.035
1590,-0.065,0.025
1591,-0.105,-0.010
1592,-0.145,-0.030
1593,-0.165,-0.050
1594,-0.180,-0.055
1595,-0.195,-0.070
1596,-0.220,-0.085
1597,-0.240,-0.105
1598,-0.250,-0.130
1599,-0.270,-0.140
1600,-0.280,-0.145
1601,-0.280,-0.155
1602,-0.275,-0.160
1603,-0.285,-0.170
1604,-0.305,-0.185
1605,-0.320,-0.195
1606,-0.320,-0.185
1607,-0.310,-0.195
1608,-0.315,-0.205
1609,-0.310,-0.215
1610,-0.325,-0.225
1611,-0.350,-0.235
1612,-0.350,-0.220
1613,-0.330,-0.210
1614,-0.325,-0.205
1615,-0.325,-0.210
1616,-0.340,-0.225
1617,-0.345,-0.235
1618,-0.330,-0.225
1619,-0.330,-0.215
1620,-0.330,-0.200
1621,-0.320,-0.225
1622,-0.340,-0.230
1623,-0.340,-0.220
1624,-0.325,-0.220
1625,-0.305,-0.215
1626,-0.315,-0.210
1627,-0.305,-0.215
1628,-0.310,-0.220
1629,-0.315,-0.210
1630,-0.305,-0.210
1631,-0.300,-0.190
1632,-0.295,-0.195
1633,-0.300,-0.190
1634,-0.300,-0.195
1635,-0.310,-0.205
1636,-0.300,-0.190
1637,-0.290,-0.180
1638,-0.275,-0.175
1639,-0.285,-0.180
1640,-0.295,-0.190
1641,-0.300,-0.180
1642,-0.295,-0.180
1643,-0.270,-0.160
1644,-0.275,-0.170
1645,-0.275,-0.180
1646,-0.295,-0.185
1647,-0.295,-0.195
1648,-0.290,-0.180
1649,-0.275,-0.190
1650,-0.285,-0.180
1651,-0.270,-0.185
1652,-0.290,-0.200
1653,-0.290,-0.200
1654,-0.285,-0.195
1655,-0.275,-0.190
1656,-0.270,-0.195
1657,-0.285,-0.195
1658,-0.290,-0.215
1659,-0.305,-0.200
1660,-0.295,-0.200
1661,-0.295,-0.195
1662,-0.290,-0.190
1663,-0.290,-0.200
1664,-0.305,-0.220
1665,-0.310,-0.230
1666,-0.310,-0.215
1667,-0.300,-0.205
1668,-0.315,-0.210
1669,-0.310,-0.215
1670,-0.320,-0.225
1671,-0.330,-0.225
1672,-0.320,-0.220
1673,-0.330,-0.200
1674,-0.310,-0.215
1675,-0.325,-0.220
1676,-0.335,-0.225
1677,-0.345,-0.240
1678,-0.335,-0.240
1679,-0.340,-0.220
1680,-0.330,-0.220
1681,-0.340,-0.245
1682,-0.350,-0.240
1683,-0.355,-0.245
1684,-0.355,-0.240
1685,-0.335,-0.230
1686,-0.335,-0.240
1687,-0.345,-0.255
1688,-0.350,-0.260
1689,-0.365,-0.260
1690,-0.365,-0.240
1691,-0.365,-0.260
1692,-0.345,-0.255
1693,-0.360,-0.270
1694,-0.360,-0.285
1695,-0.365,-0.275
1696,-0.370,-0.270
1697,-0.365,-0.265
1698,-0.350,-0.275
1699,-0.350,-0.285
1700,-0.370,-0.275
1701,-0.370,-0.275
1702,-0.360,-0.265
1703,-0.345,-0.260
1704,-0.350,-0.245
1705,-0.360,-0.265
1706,-0.370,-0.275
1707,-0.375,-0.270
1708,-0.360,-0.270
1709,-0.360,-0.260
1710,-0.350,-0.265
1711,-0.345,-0.275
1712,-0.355,-0.285
1713,-0.350,-0.275
1714,-0.330,-0.255
1715,-0.315,-0.255
1716,-0.290,-0.250
1717,-0.290,-0.265
1718,-0.295,-0.270
1719,-0.295,-0.265
1720,-0.290,-0.245
1721,-0.270,-0.250
1722,-0.260,-0.250
1723,-0.255,-0.260
1724,-0.265,-0.250
1725,-0.270,-0.255
1726,-0.255,-0.250
1727,-0.245,-0.235
1728,-0.245,-0.245
1729,-0.250,-0.250
1730,-0.245,-0.255
1731,-0.250,-0.245
1732,-0.240,-0.240
1733,-0.240,-0.230
1734,-0.250,-0.245
1735,-0.270,-0.250
1736,-0.275,-0.270
1737,-0.295,-0.285
1738,-0.310,-0.285
1739,-0.300,-0.290
1740,-0.280,-0.300
1741,-0.280,-0.295
1742,-0.280,-0.290
1743,-0.280,-0.280
1744,-0.290,-0.235
1745,-0.300,-0.225
1746,-0.310,-0.220
1747,-0.325,-0.230
1748,-0.350,-0.250
1749,-0.350,-0.235
1750,-0.365,-0.240
1751,-0.365,-0.230
1752,-0.370,-0.250
1753,-0.380,-0.260
1754,-0.380,-0.280
1755,-0.400,-0.260
1756,-0.405,-0.255
1757,-0.415,-0.255
1758,-0.415,-0.265
1759,-0.420,-0.270
1760,-0.425,-0.280
1761,-0.445,-0.285
1762,-0.440,-0.275
1763,-0.420,-0.255
1764,-0.425,-0.265
1765,-0.425,-0.280
1766,-0.430,-0.270
1767,-0.430,-0.280
1768,-0.420,-0.255
1769,-0.410,-0.260
1770,-0.415,-0.260
1771,-0.435,-0.265
1772,-0.415,-0.275
1773,-0.420,-0.285
1774,-0.415,-0.275
1775,-0.415,-0.255
1776,-0.410,-0.255
1777,-0.410,-0.260
1778,-0.420,-0.265
1779,-0.450,-0.265
1780,-0.470,-0.260
1781,-0.530,-0.265
1782,-0.580,-0.280
1783,-0.595,-0.305
1784,-0.560,-0.300
1785,-0.515,-0.270
1786,-0.430,-0.220
1787,-0.285,-0.175
1788,-0.055,-0.125
1789,0.270,-0.015
1790,0.600,0.145
1791,0.935,0.365
1792,1.265,0.590
1793,1.575,0.840
1794,1.785,1.075
1795,1.875,1.255
1796,1.800,1.305
1797,1.555,1.210
1798,1.090,0.965
1799,0.550,0.570
1800,0.080,0.115
1801,-0.270,-0.295
1802,-0.440,-0.560
1803,-0.510,-0.675
1804,-0.510,-0.660
1805,-0.485,-0.585
1806,-0.410,-0.505
1807,-0.345,-0.395
1808,-0.310,-0.305
1809,-0.325,-0.255
1810,-0.345,-0.215
1811,-0.355,-0.190
1812,-0.375,-0.215
1813,-0.375,-0.230
1814,-0.395,-0.235
1815,-0.410,-0.230
1816,-0.395,-0.215
1817,-0.400,-0.215
1818,-0.420,-0.240
1819,-0.435,-0.245
1820,-0.445,-0.250
1821,-0.455,-0.250
1822,-0.460,-0.245
1823,-0.445,-0.225
1824,-0.460,-0.230
1825,-0.450,-0.245
1826,-0.465,-0.250
1827,-0.470,-0.255
1828,-0.460,-0.230
1829,-0.440,-0.220
1830,-0.450,-0.235
1831,-0.460,-0.235
1832,-0.460,-0.245
1833,-0.485,-0.255
1834,-0.465,-0.240
1835,-0.465,-0.235
1836,-0.455,-0.235
1837,-0.460,-0.225
1838,-0.470,-0.250
1839,-0.470,-0.245
1840,-0.455,-0.230
1841,-0.460,-0.215
1842,-0.455,-0.215
1843,-0.445,-0.220
1844,-0.450,-0.215
1845,-0.465,-0.220
1846,-0.445,-0.215
1847,-0.435,-0.205
1848,-0.420,-0.215
1849,-0.430,-0.200
1850,-0.430,-0.205
1851,-0.445,-0.205
1852,-0.435,-0.190
1853,-0.415,-0.180
1854,-0.410,-0.180
1855,-0.410,-0.185
1856,-0.415,-0.185
1857,-0.405,-0.190
1858,-0.410,-0.175
1859,-0.390,-0.165
1860,-0.380,-0.175
1861,-0.365,-0.185
1862,-0.365,-0.175
1863,-0.360,-0.165
1864,-0.360,-0.160
1865,-0.325,-0.140
1866,-0.315,-0.130
1867,-0.295,-0.145
1868,-0.290,-0.130
1869,-0.290,-0.120
1870,-0.275,-0.100
1871,-0.250,-0.075
1872,-0.225,-0.070
1873,-0.205,-0.075
1874,-0.205,-0.070
1875,-0.185,-0.050
1876,-0.170,-0.030
1877,-0.140,-0.015
1878,-0.125,-0.005
1879,-0.120,0.005
1880,-0.100,-0.005
1881,-0.095,0.015
1882,-0.075,0.025
1883,-0.040,0.050
1884,-0.020,0.060
1885,-0.005,0.065
1886,-0.005,0.055
1887,-0.005,0.060
1888,0.020,0.080
1889,0.045,0.105
1890,0.070,0.100
1891,0.080,0.105
1892,0.075,0.115
1893,0.085,0.125
1894,0.105,0.150
1895,0.120,0.165
1896,0.130,0.155
1897,0.125,0.155
1898,0.115,0.145
1899,0.115,0.140
1900,0.125,0.145
1901,0.125,0.170
1902,0.135,0.175
1903,0.115,0.160
1904,0.095,0.155
1905,0.080,0.145
1906,0.070,0.145
1907,0.065,0.140
1908,0.045,0.125
1909,0.015,0.110
1910,0.000,0.090
1911,-0.045,0.080
1912,-0.040,0.070
1913,-0.070,0.060
1914,-0.080,0.050
1915,-0.100,0.020
1916,-0.140,-0.010
1917,-0.160,-0.015
1918,-0.185,-0.030
1919,-0.185,-0.030
1920,-0.195,-0.040
1921,-0.210,-0.075
1922,-0.225,-0.085
1923,-0.255,-0.095
1924,-0.245,-0.105
1925,-0.260,-0.110
1926,-0.265,-0.120
1927,-0.275,-0.135
1928,-0.285,-0.145
1929,-0.305,-0.160
1930,-0.290,-0.160
1931,-0.295,-0.145
1932,-0.285,-0.160
1933,-0.305,-0.175
1934,-0.325,-0.185
1935,-0.325,-0.195
1936,-0.330,-0.190
1937,-0.310,-0.190
1938,-0.315,-0.190
1939,-0.310,-0.205
1940,-0.325,-0.210
1941,-0.325,-0.205
1942,-0.325,-0.200
1943,-0.320,-0.180
1944,-0.325,-0.180
1945,-0.325,-0.185
1946,-0.320,-0.195
1947,-0.320,-0.180
1948,-0.310,-0.175
1949,-0.300,-0.170
1950,-0.295,-0.160
1951,-0.315,-0.170
1952,-0.300,-0.190
1953,-0.310,-0.195
1954,-0.310,-0.180
1955,-0.300,-0.180
1956,-0.290,-0.170
1957,-0.290,-0.180
1958,-0.290,-0.175
1959,-0.305,-0.185
1960,-0.285,-0.165
1961,-0.280,-0.140
1962,-0.275,-0.155
1963,-0.275,-0.160
1964,-0.275,-0.165
1965,-0.280,-0.160
1966,-0.285,-0.155
1967,-0.270,-0.150
1968,-0.270,-0.140
1969,-0.270,-0.155
1970,-0.275,-0.170
1971,-0.280,-0.150
1972,-0.270,-0.140
1973,-0.270,-0.130
1974,-0.270,-0.130
1975,-0.270,-0.145
1976,-0.270,-0.155
1977,-0.280,-0.155
1978,-0.275,-0.145
1979,-0.265,-0.125
1980,-0.265,-0.125
1981,-0.270,-0.145
1982,-0.280,-0.145
1983,-0.285,-0.145
1984,-0.280,-0.140
1985,-0.285,-0.140
1986,-0.285,-0.155
1987,-0.280,-0.155
1988,-0.290,-0.175
1989,-0.300,-0.160
1990,-0.295,-0.160
1991,-0.280,-0.145
1992,-0.280,-0.150
1993,-0.275,-0.150
1994,-0.300,-0.165
1995,-0.310,-0.155
1996,-0.300,-0.160
1997,-0.295,-0.160
1998,-0.300,-0.165
1999,-0.300,-0.195
2000,-0.310,-0.190
2001,-0.320,-0.175
2002,-0.320,-0.155
2003,-0.310,-0.165
2004,-0.305,-0.165
2005,-0.320,-0.185
2006,-0.315,-0.195
2007,-0.340,-0.205
2008,-0.330,-0.200
2009,-0.320,-0.185
2010,-0.325,-0.200
2011,-0.330,-0.190
2012,-0.330,-0.200
2013,-0.340,-0.205
2014,-0.335,-0.205
2015,-0.340,-0.185
2016,-0.330,-0.190
2017,-0.340,-0.210
2018,-0.340,-0.220
2019,-0.365,-0.230
2020,-0.350,-0.205
2021,-0.355,-0.205
2022,-0.345,-0.210
2023,-0.355,-0.235
2024,-0.365,-0.225
2025,-0.360,-0.245
2026,-0.365,-0.225
2027,-0.360,-0.215
2028,-0.355,-0.220
2029,-0.355,-0.235
2030,-0.360,-0.240
2031,-0.375,-0.240
2032,-0.365,-0.230
2033,-0.370,-0.215
2034,-0.360,-0.220
2035,-0.355,-0.225
2036,-0.370,-0.225
2037,-0.375,-0.230
2038,-0.360,-0.215
2039,-0.360,-0.215
2040,-0.350,-0.230
2041,-0.350,-0.245
2042,-0.370,-0.245
2043,-0.375,-0.245
2044,-0.365,-0.240
2045,-0.360,-0.215
2046,-0.360,-0.230
2047,-0.360,-0.230
2048,-0.360,-0.235
2049,-0.365,-0.240
2050,-0.350,-0.225
2051,-0.325,-0.215
2052,-0.315,-0.230
2053,-0.305,-0.225
2054,-0.300,-0.230
2055,-0.305,-0.235
2056,-0.295,-0.215
2057,-0.285,-0.200
2058,-0.275,-0.215
2059,-0.285,-0.220
2060,-0.275,-0.225
2061,-0.275,-0.220
2062,-0.255,-0.220
2063,-0.240,-0.200
2064,-0.245,-0.205
2065,-0.240,-0.215
2066,-0.250,-0.225
2067,-0.245,-0.205
2068,-0.235,-0.195
2069,-0.235,-0.185
2070,-0.245,-0.200
2071,-0.255,-0.210
2072,-0.285,-0.240
2073,-0.310,-0.260
2074,-0.315,-0.260
2075,-0.310,-0.255
2076,-0.290,-0.260
2077,-0.290,-0.255
2078,-0.290,-0.260
2079,-0.305,-0.230
2080,-0.310,-0.205
2081,-0.320,-0.185
2082,-0.330,-0.180
2083,-0.350,-0.205
2084,-0.355,-0.215
2085,-0.370,-0.210
2086,-0.365,-0.200
2087,-0.370,-0.190
2088,-0.385,-0.210
2089,-0.395,-0.220
2090,-0.405,-0.240
2091,-0.410,-0.235
2092,-0.410,-0.235
2093,-0.400,-0.220
2094,-0.400,-0.230
2095,-0.410,-0.240
2096,-0.430,-0.240
2097,-0.440,-0.240
2098,-0.425,-0.240
2099,-0.430,-0.220
2100,-0.425,-0.225
2101,-0.415,-0.240
2102,-0.425,-0.245
2103,-0.420,-0.230
2104,-0.415,-0.225
2105,-0.400,-0.210
2106,-0.405,-0.225
2107,-0.410,-0.230
2108,-0.415,-0.225
2109,-0.415,-0.220
2110,-0.405,-0.215
2111,-0.400,-0.195
2112,-0.410,-0.190
2113,-0.420,-0.210
2114,-0.475,-0.215
2115,-0.530,-0.240
2116,-0.560,-0.230
2117,-0.560,-0.230
2118,-0.505,-0.215
2119,-0.440,-0.175
2120,-0.315,-0.155
2121,-0.105,-0.105
2122,0.220,0.020
2123,0.570,0.210
2124,0.910,0.430
2125,1.255,0.650
2126,1.535,0.860
2127,1.700,1.075
2128,1.770,1.215
2129,1.670,1.215
2130,1.335,1.080
2131,0.845,0.800
2132,0.350,0.425
2133,-0.050,0.035
2134,-0.330,-0.290
2135,-0.475,-0.485
2136,-0.525,-0.545
2137,-0.520,-0.545
2138,-0.455,-0.465
2139,-0.365,-0.345
2140,-0.315,-0.220
2141,-0.295,-0.150
2142,-0.345,-0.140
2143,-0.375,-0.170
2144,-0.390,-0.200
2145,-0.395,-0.185
2146,-0.375,-0.170
2147,-0.380,-0.160
2148,-0.400,-0.160
2149,-0.425,-0.175
2150,-0.430,-0.200
2151,-0.445,-0.205
2152,-0.435,-0.190
2153,-0.430,-0.180
2154,-0.430,-0.195
2155,-0.425,-0.195
2156,-0.445,-0.190
2157,-0.445,-0.200
2158,-0.455,-0.185
2159,-0.445,-0.170
2160,-0.430,-0.165
2161,-0.430,-0.185
2162,-0.450,-0.180
2163,-0.460,-0.185
2164,-0.445,-0.180
2165,-0.445,-0.185
2166,-0.435,-0.180
2167,-0.440,-0.190
2168,-0.445,-0.200
2169,-0.455,-0.185
2170,-0.450,-0.180
2171,-0.435,-0.165
2172,-0.425,-0.165
2173,-0.435,-0.175
2174,-0.445,-0.170
2175,-0.450,-0.170
2176,-0.440,-0.160
2177,-0.425,-0.155
2178,-0.420,-0.155
2179,-0.425,-0.175
2180,-0.425,-0.170
2181,-0.430,-0.170
2182,-0.415,-0.155
2183,-0.405,-0.160
2184,-0.400,-0.155
2185,-0.395,-0.170
2186,-0.400,-0.155
2187,-0.400,-0.150
2188,-0.380,-0.140
2189,-0.370,-0.140
2190,-0.370,-0.130
2191,-0.365,-0.140
2192,-0.360,-0.135
2193,-0.365,-0.130
2194,-0.340,-0.115
2195,-0.325,-0.105
2196,-0.310,-0.100
2197,-0.305,-0.100
2198,-0.300,-0.085
2199,-0.285,-0.075
2200,-0.265,-0.065
2201,-0.245,-0.035
2202,-0.225,-0.030
2203,-0.215,-0.015
2204,-0.220,-0.025
2205,-0.195,-0.005
2206,-0.165,0.000
2207,-0.145,0.035
2208,-0.120,0.040
2209,-0.110,0.040
2210,-0.110,0.055
2211,-0.090,0.055
2212,-0.065,0.075
2213,-0.040,0.105
2214,-0.020,0.105
2215,-0.010,0.110
2216,0.005,0.125
2217,0.015,0.135
2218,0.040,0.150
2219,0.045,0.165
2220,0.070,0.170
2221,0.070,0.170
2222,0.065,0.175
2223,0.075,0.175
2224,0.075,0.185
2225,0.100,0.190
2226,0.115,0.205
2227,0.120,0.195
2228,0.105,0.185
2229,0.090,0.190
2230,0.100,0.185
2231,0.105,0.200
2232,0.095,0.190
2233,0.075,0.165
2234,0.060,0.165
2235,0.025,0.160
2236,0.010,0.165
2237,0.015,0.150
2238,-0.005,0.125
2239,-0.045,0.105
2240,-0.080,0.090
2241,-0.100,0.060
2242,-0.115,0.060
2243,-0.110,0.050
2244,-0.135,0.030
2245,-0.165,0.010
2246,-0.190,-0.015
2247,-0.195,-0.040
2248,-0.200,-0.040
2249,-0.210,-0.050
2250,-0.220,-0.055
2251,-0.225,-0.070
2252,-0.255,-0.090
2253,-0.260,-0.085
2254,-0.265,-0.090
2255,-0.265,-0.085
2256,-0.270,-0.095
2257,-0.275,-0.115
2258,-0.280,-0.115
2259,-0.285,-0.135
2260,-0.290,-0.130
2261,-0.285,-0.105
2262,-0.285,-0.120
2263,-0.290,-0.140
2264,-0.300,-0.135
2265,-0.310,-0.145
2266,-0.305,-0.145
2267,-0.295,-0.130
2268,-0.290,-0.140
2269,-0.290,-0.145
2270,-0.295,-0.150
2271,-0.300,-0.155
2272,-0.300,-0.135
2273,-0.285,-0.135
2274,-0.285,-0.140
2275,-0.290,-0.140
2276,-0.300,-0.150
2277,-0.290,-0.145
2278,-0.295,-0.140
2279,-0.280,-0.125
2280,-0.280,-0.135
2281,-0.280,-0.145
2282,-0.275,-0.145
2283,-0.285,-0.145
2284,-0.275,-0.130
2285,-0.265,-0.115
2286,-0.265,-0.120
2287,-0.260,-0.130
2288,-0.260,-0.135
2289,-0.270,-0.125
2290,-0.260,-0.105
2291,-0.255,-0.110
2292,-0.245,-0.105
2293,-0.245,-0.115
2294,-0.245,-0.125
2295,-0.245,-0.120
2296,-0.250,-0.105
2297,-0.235,-0.110
2298,-0.245,-0.105
2299,-0.235,-0.105
2300,-0.260,-0.125
2301,-0.260,-0.110
2302,-0.260,-0.110
2303,-0.230,-0.090
2304,-0.240,-0.085
2305,-0.230,-0.105
2306,-0.245,-0.105
2307,-0.240,-0.115
2308,-0.245,-0.110
2309,-0.250,-0.105
2310,-0.240,-0.105
2311,-0.240,-0.125
2312,-0.255,-0.135
2313,-0.260,-0.120
2314,-0.255,-0.110
2315,-0.240,-0.100
2316,-0.245,-0.110
2317,-0.255,-0.125
2318,-0.255,-0.135
2319,-0.275,-0.150
2320,-0.260,-0.125
2321,-0.260,-0.115
2322,-0.260,-0.120
2323,-0.265,-0.120
2324,-0.265,-0.145
2325,-0.280,-0.135
2326,-0.275,-0.140
2327,-0.260,-0.135
2328,-0.275,-0.140
2329,-0.275,-0.155
2330,-0.285,-0.155
2331,-0.295,-0.165
2332,-0.300,-0.170
2333,-0.290,-0.165
2334,-0.295,-0.160
2335,-0.295,-0.170
2336,-0.295,-0.180
2337,-0.320,-0.185
2338,-0.315,-0.175
2339,-0.300,-0.175
2340,-0.305,-0.180
2341,-0.325,-0.185
2342,-0.325,-0.190
2343,-0.330,-0.190
2344,-0.320,-0.185
2345,-0.320,-0.170
2346,-0.315,-0.185
2347,-0.320,-0.190
2348,-0.330,-0.195
2349,-0.345,-0.200
2350,-0.335,-0.185
2351,-0.330,-0.180
2352,-0.325,-0.180
2353,-0.335,-0.185
2354,-0.340,-0.205
2355,-0.340,-0.200
2356,-0.330,-0.185
2357,-0.330,-0.185
2358,-0.320,-0.180
2359,-0.330,-0.195
2360,-0.330,-0.210
2361,-0.340,-0.210
2362,-0.335,-0.195
2363,-0.330,-0.190
2364,-0.325,-0.190
2365,-0.330,-0.195
2366,-0.335,-0.205
2367,-0.345,-0.195
2368,-0.330,-0.200
2369,-0.325,-0.190
2370,-0.310,-0.195
2371,-0.300,-0.205
2372,-0.280,-0.210
2373,-0.265,-0.205
2374,-0.270,-0.190
2375,-0.270,-0.180
2376,-0.250,-0.185
2377,-0.240,-0.190
2378,-0.250,-0.195
2379,-0.250,-0.195
2380,-0.245,-0.170
2381,-0.205,-0.190
2382,-0.210,-0.180
2383,-0.220,-0.190
2384,-0.230,-0.185
2385,-0.225,-0.200
2386,-0.210,-0.170
2387,-0.215,-0.160
2388,-0.210,-0.185
2389,-0.235,-0.180
2390,-0.245,-0.195
2391,-0.270,-0.205
2392,-0.255,-0.210
2393,-0.270,-0.210
2394,-0.255,-0.225
2395,-0.250,-0.235
2396,-0.260,-0.235
2397,-0.260,-0.220
2398,-0.260,-0.185
2399,-0.260,-0.170
2400,-0.275,-0.160
2401,-0.300,-0.170
2402,-0.315,-0.185
2403,-0.325,-0.180
2404,-0.330,-0.175
2405,-0.340,-0.170
2406,-0.330,-0.185
2407,-0.345,-0.210
2408,-0.365,-0.205
2409,-0.380,-0.205
2410,-0.375,-0.205
2411,-0.375,-0.195
2412,-0.385,-0.205
2413,-0.385,-0.210
2414,-0.390,-0.220
2415,-0.390,-0.210
2416,-0.395,-0.195
2417,-0.385,-0.195
2418,-0.390,-0.200
2419,-0.390,-0.205
2420,-0.395,-0.220
2421,-0.400,-0.205
2422,-0.395,-0.205
2423,-0.385,-0.190
2424,-0.380,-0.190
2425,-0.385,-0.195
2426,-0.400,-0.200
2427,-0.400,-0.205
2428,-0.395,-0.195
2429,-0.385,-0.175
2430,-0.400,-0.185
2431,-0.445,-0.205
2432,-0.520,-0.215
2433,-0.570,-0.230
2434,-0.540,-0.215
2435,-0.475,-0.195
2436,-0.380,-0.150
2437,-0.245,-0.110
2438,-0.005,-0.040
2439,0.370,0.095
2440,0.790,0.350
2441,1.190,0.600
2442,1.515,0.840
2443,1.735,1.090
2444,1.825,1.265
2445,1.740,1.310
2446,1.420,1.170
2447,0.910,0.830
2448,0.345,0.360
2449,-0.120,-0.105
2450,-0.395,-0.425
2451,-0.510,-0.570
2452,-0.490,-0.565
2453,-0.420,-0.460
2454,-0.325,-0.350
2455,-0.280,-0.235
2456,-0.270,-0.160
2457,-0.320,-0.135
2458,-0.350,-0.135
2459,-0.350,-0.150
2460,-0.350,-0.170
2461,-0.335,-0.175
2462,-0.365,-0.170
2463,-0.395,-0.175
2464,-0.400,-0.175
2465,-0.400,-0.175
2466,-0.395,-0.180
2467,-0.410,-0.180
2468,-0.415,-0.200
2469,-0.420,-0.185
2470,-0.430,-0.175
2471,-0.420,-0.175
2472,-0.415,-0.170
2473,-0.415,-0.180
2474,-0.425,-0.195
2475,-0.425,-0.190
2476,-0.425,-0.175
2477,-0.420,-0.170
2478,-0.405,-0.165
2479,-0.410,-0.180
2480,-0.420,-0.180
2481,-0.425,-0.175
2482,-0.425,-0.170
2483,-0.410,-0.160
2484,-0.405,-0.155
2485,-0.410,-0.155
2486,-0.410,-0.175
2487,-0.420,-0.165
2488,-0.410,-0.165
2489,-0.410,-0.145
2490,-0.385,-0.150
2491,-0.390,-0.155
2492,-0.400,-0.160
2493,-0.415,-0.155
2494,-0.395,-0.135
2495,-0.385,-0.145
2496,-0.375,-0.145
2497,-0.370,-0.140
2498,-0.370,-0.135
2499,-0.365,-0.130
2500,-0.360,-0.115
2501,-0.345,-0.110
2502,-0.330,-0.100
2503,-0.320,-0.105
2504,-0.315,-0.110
2505,-0.320,-0.100
2506,-0.290,-0.085
2507,-0.275,-0.065
2508,-0.260,-0.060
2509,-0.255,-0.060
2510,-0.245,-0.055
2511,-0.255,-0.050
2512,-0.220,-0.045
2513,-0.195,-0.020
2514,-0.160,-0.005
2515,-0.155,0.000
2516,-0.145,0.010
2517,-0.145,0.020
2518,-0.110,0.045
2519,-0.075,0.065
2520,-0.060,0.060
2521,-0.040,0.085
2522,-0.030,0.080
2523,-0.010,0.085
2524,0.010,0.105
2525,0.040,0.135
2526,0.055,0.145
2527,0.055,0.140
2528,0.065,0.145
2529,0.075,0.150
2530,0.090,0.160
2531,0.100,0.190
2532,0.110,0.200
2533,0.130,0.190
2534,0.130,0.185
2535,0.130,0.195
2536,0.135,0.220
2537,0.155,0.215
2538,0.150,0.210
2539,0.150,0.205
2540,0.135,0.190
2541,0.120,0.200
2542,0.115,0.195
2543,0.120,0.200
2544,0.110,0.185
2545,0.085,0.160
2546,0.055,0.140
2547,0.030,0.145
2548,0.025,0.140
2549,0.000,0.115
2550,-0.020,0.100
2551,-0.050,0.085
2552,-0.080,0.045
2553,-0.115,0.030
2554,-0.130,0.025
2555,-0.145,0.015
2556,-0.145,-0.010
2557,-0.175,-0.020
2558,-0.205,-0.055
2559,-0.230,-0.055
2560,-0.235,-0.060
2561,-0.235,-0.065
2562,-0.245,-0.085
2563,-0.255,-0.105
2564,-0.270,-0.105
2565,-0.285,-0.120
2566,-0.280,-0.110
2567,-0.280,-0.120
2568,-0.285,-0.120
2569,-0.290,-0.135
2570,-0.305,-0.145
2571,-0.305,-0.155
2572,-0.300,-0.145
2573,-0.290,-0.135
2574,-0.295,-0.145
2575,-0.300,-0.145
2576,-0.300,-0.160
2577,-0.315,-0.160
2578,-0.310,-0.150
2579,-0.290,-0.145
2580,-0.300,-0.150
2581,-0.310,-0.165
2582,-0.310,-0.160
2583,-0.315,-0.155
2584,-0.310,-0.150
2585,-0.290,-0.145
2586,-0.285,-0.140
2587,-0.290,-0.140
2588,-0.295,-0.150
2589,-0.295,-0.150
2590,-0.290,-0.150
2591,-0.275,-0.125
2592,-0.260,-0.130
2593,-0.280,-0.130
2594,-0.270,-0.140
2595,-0.275,-0.135
2596,-0.265,-0.125
2597,-0.265,-0.125
2598,-0.255,-0.115
2599,-0.260,-0.125
2600,-0.275,-0.125
2601,-0.275,-0.135
2602,-0.270,-0.130
2603,-0.255,-0.105
2604,-0.250,-0.100
2605,-0.255,-0.115
2606,-0.265,-0.120
2607,-0.265,-0.110
2608,-0.265,-0.105
2609,-0.260,-0.090
2610,-0.250,-0.105
2611,-0.260,-0.115
2612,-0.265,-0.120
2613,-0.265,-0.110
2614,-0.265,-0.105
2615,-0.255,-0.105
2616,-0.250,-0.105
2617,-0.255,-0.120
2618,-0.265,-0.120
2619,-0.275,-0.120
2620,-0.260,-0.120
2621,-0.265,-0.110
2622,-0.260,-0.110
2623,-0.265,-0.125
2624,-0.290,-0.140
2625,-0.310,-0.130
2626,-0.290,-0.125
2627,-0.280,-0.115
2628,-0.280,-0.120
2629,-0.290,-0.140
2630,-0.305,-0.155
2631,-0.315,-0.150
2632,-0.300,-0.140
2633,-0.295,-0.135
2634,-0.300,-0.155
2635,-0.300,-0.160
2636,-0.310,-0.170
2637,-0.315,-0.180
2638,-0.315,-0.165
2639,-0.315,-0.155
2640,-0.310,-0.155
2641,-0.320,-0.170
2642,-0.330,-0.190
2643,-0.330,-0.190
2644,-0.335,-0.180
2645,-0.325,-0.165
2646,-0.325,-0.180
2647,-0.330,-0.190
2648,-0.340,-0.185
2649,-0.355,-0.210
2650,-0.340,-0.200
2651,-0.335,-0.190
2652,-0.340,-0.190
2653,-0.335,-0.215
2654,-0.350,-0.205
2655,-0.345,-0.210
2656,-0.340,-0.200
2657,-0.350,-0.190
2658,-0.345,-0.190
2659,-0.340,-0.195
2660,-0.345,-0.205
2661,-0.365,-0.195
2662,-0.355,-0.195
2663,-0.345,-0.175
2664,-0.335,-0.185
2665,-0.335,-0.205
2666,-0.350,-0.215
2667,-0.350,-0.200
2668,-0.345,-0.195
2669,-0.320,-0.205
2670,-0.305,-0.180
2671,-0.300,-0.180
2672,-0.280,-0.195
2673,-0.290,-0.205
2674,-0.270,-0.185
2675,-0.260,-0.170
2676,-0.255,-0.170
2677,-0.255,-0.175
2678,-0.250,-0.180
2679,-0.260,-0.185
2680,-0.250,-0.180
2681,-0.235,-0.170
2682,-0.220,-0.170
2683,-0.240,-0.175
2684,-0.230,-0.190
2685,-0.225,-0.180
2686,-0.225,-0.175
2687,-0.220,-0.175
2688,-0.225,-0.180
2689,-0.245,-0.205
2690,-0.255,-0.215
2691,-0.275,-0.220
2692,-0.275,-0.225
2693,-0.270,-0.210
2694,-0.270,-0.230
2695,-0.260,-0.225
2696,-0.265,-0.220
2697,-0.270,-0.180
2698,-0.290,-0.160
2699,-0.295,-0.160
2700,-0.305,-0.165
2701,-0.330,-0.175
2702,-0.340,-0.180
2703,-0.360,-0.190
2704,-0.355,-0.180
2705,-0.360,-0.170
2706,-0.365,-0.175
2707,-0.375,-0.200
2708,-0.385,-0.210
2709,-0.405,-0.215
2710,-0.400,-0.200
2711,-0.395,-0.190
2712,-0.385,-0.195
2713,-0.405,-0.195
2714,-0.410,-0.215
2715,-0.415,-0.210
2716,-0.410,-0.200
2717,-0.405,-0.185
2718,-0.405,-0.190
2719,-0.405,-0.195
2720,-0.410,-0.215
2721,-0.405,-0.200
2722,-0.400,-0.190
2723,-0.390,-0.190
2724,-0.370,-0.185
2725,-0.395,-0.190
2726,-0.405,-0.205
2727,-0.405,-0.180
2728,-0.415,-0.180
2729,-0.410,-0.185
2730,-0.420,-0.175
2731,-0.455,-0.195
2732,-0.525,-0.215
2733,-0.600,-0.225
2734,-0.580,-0.220
2735,-0.525,-0.205
2736,-0.450,-0.165
2737,-0.350,-0.135
2738,-0.175,-0.095
2739,0.115,0.000
2740,0.510,0.195
2741,0.905,0.425
2742,1.255,0.675
2743,1.560,0.935
2744,1.785,1.195
2745,1.855,1.375
2746,1.755,1.385
2747,1.400,1.215
2748,0.875,0.810
2749,0.300,0.305
2750,-0.155,-0.155
2751,-0.390,-0.455
2752,-0.480,-0.600
2753,-0.485,-0.590
2754,-0.455,-0.510
2755,-0.405,-0.420
2756,-0.330,-0.335
2757,-0.280,-0.230
2758,-0.295,-0.160
2759,-0.320,-0.120
2760,-0.340,-0.130
2761,-0.350,-0.150
2762,-0.375,-0.180
2763,-0.375,-0.170
2764,-0.370,-0.155
2765,-0.385,-0.155
2766,-0.390,-0.160
2767,-0.405,-0.180
2768,-0.425,-0.190
2769,-0.445,-0.180
2770,-0.430,-0.170
2771,-0.440,-0.160
2772,-0.440,-0.160
2773,-0.445,-0.180
2774,-0.440,-0.185
2775,-0.450,-0.175
2776,-0.440,-0.175
2777,-0.430,-0.165
2778,-0.435,-0.160
2779,-0.435,-0.175
2780,-0.440,-0.175
2781,-0.455,-0.170
2782,-0.440,-0.160
2783,-0.430,-0.155
2784,-0.425,-0.155
2785,-0.435,-0.160
2786,-0.430,-0.170
2787,-0.435,-0.165
2788,-0.430,-0.150
2789,-0.415,-0.150
2790,-0.410,-0.145
2791,-0.405,-0.150
2792,-0.410,-0.155
2793,-0.430,-0.145
2794,-0.420,-0.135
2795,-0.410,-0.130
2796,-0.390,-0.120
2797,-0.395,-0.125
2798,-0.385,-0.130
2799,-0.385,-0.120
2800,-0.375,-0.100
2801,-0.375,-0.090
2802,-0.355,-0.090
2803,-0.360,-0.090
2804,-0.355,-0.100
2805,-0.360,-0.100
2806,-0.345,-0.085
2807,-0.330,-0.065
2808,-0.315,-0.070
2809,-0.310,-0.060
2810,-0.305,-0.060
2811,-0.290,-0.050
2812,-0.275,-0.030
2813,-0.250,-0.015
2814,-0.235,-0.005
2815,-0.220,-0.015
2816,-0.215,-0.010
2817,-0.200,0.005
2818,-0.170,0.020
2819,-0.140,0.050
2820,-0.130,0.055
2821,-0.110,0.075
2822,-0.095,0.065
2823,-0.075,0.075
2824,-0.060,0.090
2825,-0.030,0.115
2826,-0.010,0.125
2827,0.000,0.125
2828,0.015,0.135
2829,0.025,0.145
2830,0.050,0.155
2831,0.060,0.180
2832,0.095,0.200
2833,0.100,0.190
2834,0.105,0.185
2835,0.115,0.195
2836,0.135,0.215
2837,0.150,0.225
2838,0.150,0.240
2839,0.165,0.240
2840,0.165,0.235
2841,0.160,0.240
2842,0.165,0.250
2843,0.170,0.260
2844,0.160,0.250
2845,0.165,0.235
2846,0.150,0.220
2847,0.120,0.220
2848,0.125,0.220
2849,0.110,0.220
2850,0.100,0.220
2851,0.070,0.180
2852,0.040,0.165
2853,0.015,0.155
2854,0.000,0.150
2855,-0.020,0.135
2856,-0.040,0.120
2857,-0.070,0.090
2858,-0.100,0.070
2859,-0.130,0.050
2860,-0.145,0.045
2861,-0.155,0.040
2862,-0.160,0.020
2863,-0.180,-0.015
2864,-0.205,-0.025
2865,-0.230,-0.035
2866,-0.220,-0.040
2867,-0.230,-0.040
2868,-0.245,-0.050
2869,-0.255,-0.065
2870,-0.260,-0.080
2871,-0.265,-0.070
2872,-0.260,-0.080
2873,-0.265,-0.075
2874,-0.270,-0.075
2875,-0.275,-0.100
2876,-0.280,-0.110
2877,-0.280,-0.100
2878,-0.275,-0.095
2879,-0.270,-0.095
2880,-0.270,-0.100
2881,-0.285,-0.110
2882,-0.275,-0.125
2883,-0.280,-0.120
2884,-0.275,-0.105
2885,-0.275,-0.100
2886,-0.270,-0.110
2887,-0.275,-0.115
2888,-0.285,-0.120
2889,-0.280,-0.100
2890,-0.265,-0.105
2891,-0.245,-0.090
2892,-0.245,-0.090
2893,-0.245,-0.105
2894,-0.245,-0.100
2895,-0.255,-0.085
2896,-0.255,-0.090
2897,-0.250,-0.070
2898,-0.230,-0.075
2899,-0.240,-0.080
2900,-0.230,-0.095
2901,-0.250,-0.075
2902,-0.230,-0.065
2903,-0.230,-0.065
2904,-0.215,-0.055
2905,-0.220,-0.060
2906,-0.225,-0.055
2907,-0.250,-0.050
2908,-0.230,-0.045
2909,-0.210,-0.040
2910,-0.205,-0.040
2911,-0.220,-0.050
2912,-0.220,-0.050
2913,-0.230,-0.045
2914,-0.225,-0.035
2915,-0.195,-0.045
2916,-0.195,-0.035
2917,-0.205,-0.045
2918,-0.220,-0.050
2919,-0.235,-0.050
2920,-0.225,-0.030
2921,-0.220,-0.040
2922,-0.230,-0.050
2923,-0.235,-0.065
2924,-0.240,-0.085
2925,-0.245,-0.070
2926,-0.245,-0.065
2927,-0.235,-0.060
2928,-0.235,-0.050
2929,-0.240,-0.065
2930,-0.265,-0.095
2931,-0.255,-0.075
2932,-0.265,-0.070
2933,-0.255,-0.070
2934,-0.250,-0.075
2935,-0.270,-0.085
2936,-0.285,-0.100
2937,-0.275,-0.090
2938,-0.285,-0.085
2939,-0.265,-0.090
2940,-0.275,-0.085
2941,-0.295,-0.100
2942,-0.300,-0.120
2943,-0.310,-0.125
2944,-0.285,-0.105
2945,-0.285,-0.105
2946,-0.285,-0.100
2947,-0.290,-0.095
2948,-0.300,-0.110
2949,-0.315,-0.115
2950,-0.305,-0.120
2951,-0.305,-0.105
2952,-0.290,-0.110
2953,-0.305,-0.120
2954,-0.305,-0.115
2955,-0.320,-0.105
2956,-0.320,-0.115
2957,-0.315,-0.110
2958,-0.300,-0.105
2959,-0.310,-0.125
2960,-0.315,-0.135
2961,-0.325,-0.130
2962,-0.315,-0.120
2963,-0.305,-0.115
2964,-0.305,-0.120
2965,-0.300,-0.120
2966,-0.305,-0.135
2967,-0.305,-0.135
2968,-0.300,-0.125
2969,-0.280,-0.110
2970,-0.275,-0.120
2971,-0.250,-0.130
2972,-0.240,-0.135
2973,-0.250,-0.110
2974,-0.250,-0.095
2975,-0.230,-0.080
2976,-0.230,-0.095
2977,-0.230,-0.100
2978,-0.220,-0.110
2979,-0.215,-0.100
2980,-0.205,-0.110
2981,-0.195,-0.105
2982,-0.200,-0.100
2983,-0.200,-0.095
2984,-0.200,-0.105
2985,-0.195,-0.110
2986,-0.190,-0.095
2987,-0.190,-0.095
2988,-0.205,-0.090
2989,-0.215,-0.105
2990,-0.245,-0.120
2991,-0.260,-0.145
2992,-0.255,-0.150
2993,-0.240,-0.140
2994,-0.240,-0.145
2995,-0.235,-0.140
2996,-0.235,-0.135
2997,-0.255,-0.105
2998,-0.260,-0.080
2999,-0.270,-0.080
3000,-0.270,-0.065
3001,-0.290,-0.075
3002,-0.310,-0.100
3003,-0.310,-0.090
3004,-0.320,-0.090
3005,-0.320,-0.090
3006,-0.320,-0.095
3007,-0.330,-0.105
3008,-0.345,-0.125
3009,-0.350,-0.120
3010,-0.370,-0.115
3011,-0.345,-0.110
3012,-0.350,-0.110
3013,-0.355,-0.110
3014,-0.355,-0.125
3015,-0.365,-0.120
3016,-0.370,-0.110
3017,-0.350,-0.090
3018,-0.355,-0.100
3019,-0.365,-0.115
3020,-0.365,-0.115
3021,-0.380,-0.115
3022,-0.360,-0.095
3023,-0.345,-0.100
3024,-0.355,-0.100
3025,-0.370,-0.105
3026,-0.355,-0.100
3027,-0.370,-0.100
3028,-0.365,-0.085
3029,-0.365,-0.075
3030,-0.390,-0.080
3031,-0.460,-0.100
3032,-0.525,-0.125
3033,-0.555,-0.130
3034,-0.515,-0.110
3035,-0.445,-0.070
3036,-0.355,-0.030
3037,-0.215,0.000
3038,0.050,0.065
3039,0.400,0.220
3040,0.810,0.455
3041,1.170,0.700
3042,1.490,0.930
3043,1.730,1.170
3044,1.840,1.345
3045,1.810,1.410
3046,1.550,1.320
3047,1.070,1.045
3048,0.510,0.590
3049,0.020,0.105
3050,-0.295,-0.260
3051,-0.435,-0.470
3052,-0.460,-0.510
3053,-0.450,-0.460
3054,-0.405,-0.370
3055,-0.315,-0.265
3056,-0.235,-0.165
3057,-0.245,-0.090
3058,-0.270,-0.045
3059,-0.295,-0.045
3060,-0.295,-0.055
3061,-0.300,-0.075
3062,-0.315,-0.085
3063,-0.330,-0.070
3064,-0.335,-0.050
3065,-0.335,-0.055
3066,-0.345,-0.065
3067,-0.370,-0.070
3068,-0.365,-0.080
3069,-0.375,-0.070
3070,-0.380,-0.070
3071,-0.375,-0.055
3072,-0.375,-0.060
3073,-0.375,-0.065
3074,-0.385,-0.070
3075,-0.405,-0.070
3076,-0.390,-0.060
3077,-0.385,-0.050
3078,-0.375,-0.050
3079,-0.385,-0.060
3080,-0.385,-0.070
3081,-0.400,-0.065
3082,-0.380,-0.050
3083,-0.380,-0.045
3084,-0.375,-0.040
3085,-0.380,-0.050
3086,-0.380,-0.060
3087,-0.380,-0.045
3088,-0.365,-0.040
3089,-0.365,-0.015
3090,-0.345,-0.015
3091,-0.360,-0.030
3092,-0.360,-0.040
3093,-0.365,-0.035
3094,-0.370,-0.030
3095,-0.345,-0.025
3096,-0.340,-0.010
3097,-0.350,-0.030
3098,-0.340,-0.030
3099,-0.355,-0.025
3100,-0.335,0.000
3101,-0.325,0.000
3102,-0.305,0.000
3103,-0.310,-0.010
3104,-0.315,-0.015
3105,-0.310,-0.010
3106,-0.290,0.015
3107,-0.270,0.030
3108,-0.260,0.030
3109,-0.260,0.035
3110,-0.265,0.030
3111,-0.250,0.040
3112,-0.220,0.060
3113,-0.210,0.080
3114,-0.190,0.085
3115,-0.180,0.075
3116,-0.175,0.080
3117,-0.175,0.100
3118,-0.145,0.105
3119,-0.125,0.130
3120,-0.105,0.150
3121,-0.075,0.160
3122,-0.055,0.160
3123,-0.050,0.160
3124,-0.040,0.190
3125,-0.010,0.215
3126,0.020,0.230
3127,0.030,0.220
3128,0.035,0.215
3129,0.045,0.235
3130,0.060,0.250
3131,0.085,0.270
3132,0.100,0.275
3133,0.115,0.270
3134,0.115,0.285
3135,0.120,0.280
3136,0.145,0.300
3137,0.150,0.315
3138,0.155,0.315
3139,0.165,0.315
3140,0.175,0.315
3141,0.165,0.325
3142,0.185,0.335
3143,0.180,0.355
3144,0.180,0.345
3145,0.180,0.330
3146,0.165,0.330
3147,0.150,0.320
3148,0.135,0.315
3149,0.130,0.305
3150,0.105,0.300
3151,0.080,0.275
3152,0.060,0.255
3153,0.020,0.245
3154,0.015,0.235
3155,-0.005,0.225
3156,-0.030,0.205
3157,-0.050,0.170
3158,-0.060,0.150
3159,-0.100,0.140
3160,-0.105,0.135
3161,-0.130,0.125
3162,-0.135,0.110
3163,-0.150,0.095
3164,-0.170,0.060
3165,-0.185,0.055
3166,-0.190,0.050
3167,-0.190,0.045
3168,-0.190,0.040
3169,-0.200,0.020
3170,-0.215,0.015
3171,-0.220,0.015
3172,-0.215,0.015
3173,-0.225,0.015
3174,-0.210,0.010
3175,-0.215,0.005
3176,-0.225,-0.005
3177,-0.235,0.000
3178,-0.225,-0.005
3179,-0.225,-0.005
3180,-0.225,-0.015
3181,-0.245,-0.025
3182,-0.235,-0.015
3183,-0.235,-0.020
3184,-0.230,0.010
3185,-0.215,0.010
3186,-0.210,0.010
3187,-0.215,0.000
3188,-0.225,-0.010
3189,-0.220,0.000
3190,-0.210,0.015
3191,-0.200,0.025
3192,-0.200,0.015
3193,-0.200,0.010
3194,-0.205,0.005
3195,-0.225,0.020
3196,-0.195,0.025
3197,-0.200,0.040
3198,-0.190,0.025
3199,-0.195,0.030
3200,-0.205,0.015
3201,-0.200,0.025
3202,-0.210,0.040
3203,-0.195,0.040
3204,-0.195,0.040
3205,-0.185,0.030
3206,-0.195,0.030
3207,-0.190,0.030
3208,-0.195,0.045
3209,-0.180,0.055
3210,-0.170,0.055
3211,-0.180,0.045
3212,-0.190,0.040
3213,-0.195,0.035
3214,-0.200,0.040
3215,-0.190,0.045
3216,-0.185,0.045
3217,-0.190,0.040
3218,-0.200,0.020
3219,-0.215,0.030
3220,-0.215,0.035
3221,-0.200,0.030
3222,-0.185,0.030
3223,-0.205,0.025
3224,-0.210,0.020
3225,-0.220,0.020
3226,-0.225,0.030
3227,-0.210,0.035
3228,-0.200,0.020
3229,-0.205,0.005
3230,-0.230,-0.015
3231,-0.230,-0.005
3232,-0.230,0.005
3233,-0.240,0.015
3234,-0.240,0.000
3235,-0.240,-0.010
3236,-0.260,-0.020
3237,-0.270,-0.020
3238,-0.260,-0.010
3239,-0.250,-0.010
3240,-0.250,-0.010
3241,-0.250,-0.035
3242,-0.265,-0.035
3243,-0.275,-0.025
3244,-0.270,-0.025
3245,-0.265,-0.020
3246,-0.260,-0.030
3247,-0.275,-0.045
3248,-0.295,-0.045
3249,-0.295,-0.045
3250,-0.290,-0.040
3251,-0.290,-0.050
3252,-0.280,-0.040
3253,-0.285,-0.060
3254,-0.295,-0.055
3255,-0.300,-0.045
3256,-0.290,-0.040
3257,-0.285,-0.025
3258,-0.295,-0.025
3259,-0.290,-0.050
3260,-0.305,-0.060
3261,-0.310,-0.050
3262,-0.300,-0.055
3263,-0.295,-0.055
3264,-0.290,-0.035
3265,-0.295,-0.050
3266,-0.295,-0.075
3267,-0.300,-0.060
3268,-0.295,-0.050
3269,-0.290,-0.045
3270,-0.275,-0.035
3271,-0.280,-0.055
3272,-0.270,-0.055
3273,-0.260,-0.050
3274,-0.240,-0.050
3275,-0.220,-0.030
3276,-0.225,-0.035
3277,-0.225,-0.035
3278,-0.220,-0.045
3279,-0.215,-0.045
3280,-0.205,-0.040
3281,-0.190,-0.030
3282,-0.185,-0.030
3283,-0.175,-0.040
3284,-0.180,-0.045
3285,-0.195,-0.040
3286,-0.185,-0.035
3287,-0.180,-0.015
3288,-0.170,-0.020
3289,-0.160,-0.025
3290,-0.185,-0.045
3291,-0.200,-0.055
3292,-0.210,-0.050
3293,-0.220,-0.055
3294,-0.230,-0.060
3295,-0.230,-0.090
3296,-0.235,-0.110
3297,-0.225,-0.100
3298,-0.215,-0.070
3299,-0.200,-0.050
3300,-0.205,-0.030
3301,-0.225,-0.025
3302,-0.245,-0.030
3303,-0.270,-0.020
3304,-0.275,-0.025
3305,-0.285,-0.015
3306,-0.280,-0.015
3307,-0.300,-0.035
3308,-0.315,-0.055
3309,-0.330,-0.055
3310,-0.330,-0.045
3311,-0.325,-0.040
3312,-0.340,-0.050
3313,-0.355,-0.060
3314,-0.360,-0.060
3315,-0.365,-0.055
3316,-0.360,-0.045
3317,-0.350,-0.045
3318,-0.345,-0.045
3319,-0.355,-0.055
3320,-0.360,-0.065
3321,-0.365,-0.055
3322,-0.360,-0.045
3323,-0.350,-0.035
3324,-0.355,-0.050
3325,-0.345,-0.055
3326,-0.375,-0.070
3327,-0.370,-0.065
3328,-0.360,-0.055
3329,-0.350,-0.040
3330,-0.350,-0.045
3331,-0.350,-0.045
3332,-0.375,-0.065
3333,-0.410,-0.060
3334,-0.450,-0.060
3335,-0.500,-0.065
3336,-0.515,-0.080
3337,-0.470,-0.065
3338,-0.405,-0.050
3339,-0.310,0.015
3340,-0.115,0.060
3341,0.175,0.155
3342,0.535,0.335
3343,0.895,0.525
3344,1.215,0.745
3345,1.490,0.970
3346,1.705,1.200
3347,1.795,1.350
3348,1.755,1.390
3349,1.525,1.295
3350,1.105,1.075
3351,0.590,0.700
3352,0.120,0.285
3353,-0.215,-0.075
3354,-0.410,-0.320
3355,-0.500,-0.445
3356,-0.505,-0.440
3357,-0.450,-0.360
3358,-0.340,-0.240
3359,-0.250,-0.115
3360,-0.235,-0.030
3361,-0.270,0.010
3362,-0.295,0.000
3363,-0.325,-0.010
3364,-0.320,-0.020
3365,-0.320,-0.020
3366,-0.320,0.000
3367,-0.340,-0.005
3368,-0.345,-0.020
3369,-0.375,-0.020
3370,-0.375,-0.015
3371,-0.375,-0.020
3372,-0.370,-0.010
3373,-0.375,-0.020
3374,-0.390,-0.035
3375,-0.400,-0.010
3376,-0.405,-0.020
3377,-0.400,-0.015
3378,-0.390,-0.010
3379,-0.390,-0.025
3380,-0.410,-0.030
3381,-0.410,-0.015
3382,-0.395,-0.015
3383,-0.395,-0.010
3384,-0.390,-0.015
3385,-0.390,-0.015
3386,-0.400,-0.020
3387,-0.420,-0.015
3388,-0.405,-0.010
3389,-0.390,-0.005
3390,-0.390,-0.010
3391,-0.390,-0.005
3392,-0.395,-0.010
3393,-0.405,-0.010
3394,-0.380,0.005
3395,-0.380,0.015
3396,-0.365,0.010
3397,-0.380,0.010
3398,-0.385,0.010
3399,-0.395,0.005
3400,-0.380,0.020
3401,-0.360,0.025
3402,-0.360,0.030
3403,-0.360,0.010
3404,-0.360,0.015
3405,-0.355,0.025
3406,-0.350,0.035
3407,-0.340,0.040
3408,-0.330,0.040
3409,-0.330,0.040
3410,-0.335,0.035
3411,-0.330,0.040
3412,-0.315,0.060
3413,-0.295,0.070
3414,-0.280,0.075
3415,-0.280,0.065
3416,-0.285,0.075
3417,-0.275,0.080
3418,-0.255,0.100
3419,-0.230,0.115
3420,-0.220,0.115
3421,-0.200,0.115
3422,-0.190,0.115
3423,-0.185,0.130
3424,-0.165,0.140
3425,-0.135,0.160
3426,-0.115,0.160
3427,-0.095,0.165
3428,-0.095,0.180
3429,-0.090,0.190
3430,-0.065,0.210
3431,-0.045,0.220
3432,-0.030,0.235
3433,-0.015,0.230
3434,0.005,0.235
3435,0.015,0.250
3436,0.035,0.275
3437,0.055,0.305
3438,0.070,0.310
3439,0.090,0.300
3440,0.090,0.280
3441,0.095,0.305
3442,0.110,0.315
3443,0.120,0.335
3444,0.125,0.335
3445,0.130,0.335
3446,0.125,0.320
3447,0.125,0.335
3448,0.130,0.335
3449,0.135,0.345
3450,0.140,0.325
3451,0.120,0.315
3452,0.100,0.315
3453,0.085,0.295
3454,0.070,0.290
3455,0.065,0.295
3456,0.045,0.270
3457,0.015,0.265
3458,-0.005,0.235
3459,-0.045,0.225
3460,-0.060,0.205
3461,-0.080,0.190
3462,-0.110,0.170
3463,-0.120,0.145
3464,-0.155,0.130
3465,-0.175,0.115
3466,-0.180,0.120
3467,-0.195,0.110
3468,-0.200,0.100
3469,-0.215,0.070
3470,-0.235,0.060
3471,-0.255,0.065
3472,-0.245,0.055
3473,-0.240,0.055
3474,-0.255,0.050
3475,-0.255,0.030
3476,-0.280,0.020
3477,-0.275,0.020
3478,-0.280,0.020
3479,-0.265,0.015
3480,-0.265,0.020
3481,-0.265,0.010
3482,-0.285,0.000
3483,-0.285,0.010
3484,-0.290,0.015
3485,-0.275,0.025
3486,-0.285,0.025
3487,-0.290,0.000
3488,-0.295,0.005
3489,-0.300,-0.005
3490,-0.290,0.010
3491,-0.270,0.020
3492,-0.270,0.030
3493,-0.265,0.010
3494,-0.270,0.010
3495,-0.280,0.015
3496,-0.255,0.040
3497,-0.250,0.040
3498,-0.235,0.025
3499,-0.250,0.030
3500,-0.255,0.020
3501,-0.255,0.025
3502,-0.240,0.045
3503,-0.220,0.045
3504,-0.220,0.065
3505,-0.230,0.050
3506,-0.235,0.035
3507,-0.240,0.050
3508,-0.235,0.040
3509,-0.225,0.060
3510,-0.225,0.045
3511,-0.225,0.045
3512,-0.235,0.045
3513,-0.235,0.060
3514,-0.235,0.065
3515,-0.220,0.060
3516,-0.235,0.065
3517,-0.225,0.055
3518,-0.235,0.040
3519,-0.245,0.045
3520,-0.240,0.050
3521,-0.235,0.065
3522,-0.225,0.060
3523,-0.240,0.040
3524,-0.245,0.030
3525,-0.265,0.030
3526,-0.250,0.045
3527,-0.255,0.050
3528,-0.250,0.030
3529,-0.255,0.030
3530,-0.265,0.020
3531,-0.275,0.015
3532,-0.270,0.030
3533,-0.270,0.030
3534,-0.265,0.020
3535,-0.275,0.010
3536,-0.285,0.000
3537,-0.290,0.000
3538,-0.295,0.005
3539,-0.285,0.015
3540,-0.285,0.000
3541,-0.290,-0.010
3542,-0.305,-0.015
3543,-0.300,-0.010
3544,-0.310,-0.020
3545,-0.305,-0.010
3546,-0.315,-0.025
3547,-0.305,-0.020
3548,-0.320,-0.035
3549,-0.335,-0.030
3550,-0.320,-0.025
3551,-0.310,-0.020
3552,-0.310,-0.025
3553,-0.315,-0.035
3554,-0.335,-0.040
3555,-0.345,-0.030
3556,-0.335,-0.035
3557,-0.320,-0.035
3558,-0.310,-0.035
3559,-0.330,-0.050
3560,-0.335,-0.055
3561,-0.350,-0.050
3562,-0.340,-0.035
3563,-0.325,-0.030
3564,-0.320,-0.040
3565,-0.340,-0.050
3566,-0.330,-0.065
3567,-0.350,-0.070
3568,-0.335,-0.055
3569,-0.320,-0.040
3570,-0.310,-0.030
3571,-0.310,-0.050
3572,-0.305,-0.050
3573,-0.295,-0.050
3574,-0.275,-0.045
3575,-0.250,-0.035
3576,-0.260,-0.040
3577,-0.255,-0.040
3578,-0.265,-0.040
3579,-0.275,-0.030
3580,-0.265,-0.035
3581,-0.230,-0.025
3582,-0.220,-0.040
3583,-0.225,-0.050
3584,-0.235,-0.060
3585,-0.245,-0.055
3586,-0.220,-0.040
3587,-0.215,-0.030
3588,-0.215,-0.035
3589,-0.215,-0.035
3590,-0.240,-0.050
3591,-0.250,-0.050
3592,-0.260,-0.050
3593,-0.275,-0.060
3594,-0.275,-0.070
3595,-0.290,-0.085
3596,-0.295,-0.110
3597,-0.280,-0.085
3598,-0.265,-0.065
3599,-0.260,-0.030
3600,-0.280,-0.015
3601,-0.295,-0.020
3602,-0.310,-0.030
3603,-0.335,-0.030
3604,-0.330,-0.025
3605,-0.320,-0.025
3606,-0.330,-0.025
3607,-0.350,-0.040
3608,-0.370,-0.050
3609,-0.380,-0.045
3610,-0.375,-0.045
3611,-0.385,-0.045
3612,-0.385,-0.050
3613,-0.400,-0.070
3614,-0.405,-0.080
3615,-0.420,-0.060
3616,-0.405,-0.065
3617,-0.390,-0.050
3618,-0.385,-0.045
3619,-0.400,-0.055
3620,-0.415,-0.065
3621,-0.410,-0.060
3622,-0.405,-0.055
3623,-0.390,-0.050
3624,-0.400,-0.040
3625,-0.400,-0.050
3626,-0.400,-0.060
3627,-0.405,-0.060
3628,-0.395,-0.050
3629,-0.390,-0.035
3630,-0.395,-0.045
3631,-0.405,-0.055
3632,-0.440,-0.065
3633,-0.500,-0.070
3634,-0.555,-0.060
3635,-0.595,-0.090
3636,-0.580,-0.085
3637,-0.530,-0.075
3638,-0.470,-0.060
3639,-0.370,-0.015
3640,-0.160,0.050
3641,0.165,0.145
3642,0.515,0.315
3643,0.865,0.515
3644,1.175,0.730
3645,1.465,0.990
3646,1.705,1.245
3647,1.810,1.435
3648,1.780,1.500
3649,1.560,1.415
3650,1.150,1.175
3651,0.585,0.765
3652,0.085,0.305
3653,-0.275,-0.115
3654,-0.445,-0.380
3655,-0.510,-0.460
3656,-0.500,-0.420
3657,-0.435,-0.325
3658,-0.345,-0.200
3659,-0.275,-0.080
3660,-0.280,-0.015
3661,-0.320,0.015
3662,-0.350,-0.005
3663,-0.360,-0.010
3664,-0.365,-0.010
3665,-0.370,-0.020
3666,-0.360,-0.015
3667,-0.390,-0.025
3668,-0.415,-0.030
3669,-0.430,-0.045
3670,-0.425,-0.025
3671,-0.420,-0.020
3672,-0.435,-0.030
3673,-0.430,-0.040
3674,-0.450,-0.045
3675,-0.450,-0.040
3676,-0.445,-0.045
3677,-0.445,-0.025
3678,-0.440,-0.040
3679,-0.450,-0.030
3680,-0.460,-0.045
3681,-0.470,-0.040
3682,-0.465,-0.025
3683,-0.450,-0.025
3684,-0.445,-0.020
3685,-0.445,-0.030
3686,-0.440,-0.035
3687,-0.455,-0.025
3688,-0.445,-0.030
3689,-0.430,-0.005
3690,-0.445,-0.005
3691,-0.440,-0.010
3692,-0.445,-0.035
3693,-0.450,-0.020
3694,-0.435,-0.025
3695,-0.430,-0.005
3696,-0.425,-0.005
3697,-0.425,-0.010
3698,-0.445,-0.020
3699,-0.445,-0.005
3700,-0.420,0.000
3701,-0.410,0.005
3702,-0.400,0.015
3703,-0.410,-0.005
3704,-0.405,0.000
3705,-0.405,0.015
3706,-0.395,0.025
3707,-0.380,0.035
3708,-0.370,0.020
3709,-0.370,0.020
3710,-0.365,0.035
3711,-0.360,0.045
3712,-0.335,0.060
3713,-0.325,0.070
3714,-0.325,0.070
3715,-0.310,0.070
3716,-0.300,0.070
3717,-0.300,0.080
3718,-0.280,0.100
3719,-0.260,0.110
3720,-0.240,0.115
3721,-0.235,0.120
3722,-0.230,0.130
3723,-0.205,0.145
3724,-0.180,0.155
3725,-0.155,0.170
3726,-0.135,0.180
3727,-0.140,0.190
3728,-0.135,0.205
3729,-0.105,0.210
3730,-0.080,0.240
3731,-0.060,0.245
3732,-0.030,0.265
3733,-0.025,0.260
3734,-0.005,0.270
3735,-0.010,0.275
3736,0.020,0.300
3737,0.035,0.315
3738,0.050,0.325
3739,0.055,0.330
3740,0.065,0.310
3741,0.065,0.325
3742,0.085,0.350
3743,0.095,0.355
3744,0.110,0.355
3745,0.105,0.345
3746,0.095,0.345
3747,0.095,0.340
3748,0.105,0.355
3749,0.100,0.365
3750,0.085,0.350
3751,0.075,0.340
3752,0.050,0.315
3753,0.025,0.320
3754,0.020,0.320
3755,0.000,0.310
3756,-0.015,0.290
3757,-0.050,0.270
3758,-0.065,0.235
3759,-0.090,0.235
3760,-0.110,0.220
3761,-0.125,0.200
3762,-0.150,0.185
3763,-0.175,0.160
3764,-0.200,0.130
3765,-0.225,0.130
3766,-0.235,0.115
3767,-0.240,0.115
3768,-0.255,0.090
3769,-0.270,0.070
3770,-0.285,0.050
3771,-0.300,0.060
3772,-0.290,0.045
3773,-0.300,0.055
3774,-0.300,0.045
3775,-0.310,0.025
3776,-0.310,0.020
3777,-0.325,0.015
3778,-0.310,0.015
3779,-0.305,0.025
3780,-0.310,0.015
3781,-0.325,0.025
3782,-0.320,0.005
3783,-0.330,0.015
3784,-0.330,0.010
3785,-0.320,0.015
3786,-0.310,0.015
3787,-0.315,0.000
3788,-0.325,-0.010
3789,-0.325,-0.010
3790,-0.310,0.010
3791,-0.305,0.015
3792,-0.295,0.025
3793,-0.300,0.010
3794,-0.310,0.000
3795,-0.315,0.005
3796,-0.300,0.025
3797,-0.295,0.015
3798,-0.285,0.020
3799,-0.290,0.010
3800,-0.295,0.020
3801,-0.295,0.045
3802,-0.295,0.060
3803,-0.290,0.050
3804,-0.280,0.055
3805,-0.290,0.040
3806,-0.300,0.030
3807,-0.290,0.025
3808,-0.280,0.045
3809,-0.270,0.050
3810,-0.280,0.050
3811,-0.275,0.045
3812,-0.275,0.030
3813,-0.280,0.045
3814,-0.285,0.055
3815,-0.270,0.070
3816,-0.270,0.065
3817,-0.275,0.050
3818,-0.290,0.035
3819,-0.300,0.045
3820,-0.295,0.055
3821,-0.290,0.060
3822,-0.290,0.045
3823,-0.295,0.040
3824,-0.310,0.030
3825,-0.300,0.030
3826,-0.290,0.040
3827,-0.275,0.040
3828,-0.270,0.050
3829,-0.280,0.035
3830,-0.295,0.030
3831,-0.305,0.025
3832,-0.305,0.035
3833,-0.300,0.030
3834,-0.310,0.020
3835,-0.310,0.005
3836,-0.330,0.005
3837,-0.320,0.005
3838,-0.315,0.015
3839,-0.315,0.025
3840,-0.320,0.010
3841,-0.335,0.000
3842,-0.335,-0.015
3843,-0.340,-0.010
3844,-0.340,-0.005
3845,-0.330,-0.005
3846,-0.335,0.000
3847,-0.340,-0.015
3848,-0.350,-0.035
3849,-0.360,-0.025
3850,-0.360,-0.030
3851,-0.345,-0.025
3852,-0.345,-0.015
3853,-0.370,-0.025
3854,-0.360,-0.040
3855,-0.365,-0.025
3856,-0.360,-0.030
3857,-0.345,-0.025
3858,-0.355,-0.025
3859,-0.365,-0.045
3860,-0.375,-0.035
3861,-0.385,-0.035
3862,-0.370,-0.035
3863,-0.370,-0.030
3864,-0.365,-0.035
3865,-0.375,-0.035
3866,-0.375,-0.050
3867,-0.380,-0.040
3868,-0.380,-0.025
3869,-0.380,-0.025
3870,-0.375,-0.025
3871,-0.370,-0.035
3872,-0.380,-0.055
3873,-0.380,-0.040
3874,-0.365,-0.035
3875,-0.350,-0.025
3876,-0.350,-0.030
3877,-0.340,-0.045
3878,-0.335,-0.050
3879,-0.335,-0.050
3880,-0.315,-0.040
3881,-0.305,-0.035
3882,-0.310,-0.035
3883,-0.295,-0.035
3884,-0.295,-0.040
3885,-0.305,-0.030
3886,-0.290,-0.020
3887,-0.270,-0.010
3888,-0.250,-0.010
3889,-0.270,-0.030
3890,-0.275,-0.030
3891,-0.280,-0.035
3892,-0.260,-0.015
3893,-0.245,-0.015
3894,-0.255,-0.020
3895,-0.270,-0.040
3896,-0.285,-0.050
3897,-0.305,-0.055
3898,-0.315,-0.055
3899,-0.310,-0.055
3900,-0.310,-0.065
3901,-0.320,-0.085
3902,-0.310,-0.100
3903,-0.310,-0.085
3904,-0.305,-0.050
3905,-0.315,-0.025
3906,-0.320,-0.010
3907,-0.345,-0.020
3908,-0.360,-0.015
3909,-0.375,-0.035
3910,-0.375,-0.015
3911,-0.370,-0.020
3912,-0.385,-0.030
3913,-0.400,-0.030
3914,-0.410,-0.050
3915,-0.425,-0.050
3916,-0.410,-0.040
3917,-0.405,-0.030
3918,-0.420,-0.045
3919,-0.430,-0.055
3920,-0.440,-0.070
3921,-0.445,-0.070
3922,-0.425,-0.065
3923,-0.425,-0.055
3924,-0.425,-0.040
3925,-0.430,-0.050
3926,-0.440,-0.055
3927,-0.440,-0.045
3928,-0.440,-0.035
3929,-0.425,-0.035
3930,-0.430,-0.025
3931,-0.415,-0.040
3932,-0.430,-0.050
3933,-0.435,-0.045
3934,-0.435,-0.030
3935,-0.430,-0.025
3936,-0.430,-0.025
3937,-0.430,-0.045
3938,-0.440,-0.050
3939,-0.450,-0.030
3940,-0.470,-0.025
3941,-0.510,-0.025
3942,-0.565,-0.040
3943,-0.580,-0.065
3944,-0.565,-0.060
3945,-0.510,-0.025
3946,-0.420,0.020
3947,-0.290,0.060
3948,-0.050,0.135
3949,0.280,0.270
3950,0.615,0.455
3951,0.930,0.690
3952,1.215,0.890
3953,1.450,1.100
3954,1.580,1.285
3955,1.620,1.395
3956,1.520,1.390
3957,1.250,1.275
3958,0.830,1.020
3959,0.385,0.650
3960,0.000,0.235
3961,-0.300,-0.115
3962,-0.470,-0.340
3963,-0.545,-0.425
3964,-0.550,-0.400
3965,-0.505,-0.320
3966,-0.420,-0.235
3967,-0.350,-0.125
3968,-0.335,-0.040
3969,-0.360,0.020
3970,-0.385,0.045
3971,-0.395,0.030
3972,-0.405,0.020
3973,-0.405,-0.005
3974,-0.415,-0.015
3975,-0.410,0.000
3976,-0.415,0.005
3977,-0.425,0.015
3978,-0.440,0.010
3979,-0.450,0.000
3980,-0.455,-0.020
3981,-0.470,-0.020
3982,-0.455,0.000
3983,-0.460,0.010
3984,-0.460,-0.005
3985,-0.465,-0.015
3986,-0.470,-0.015
3987,-0.470,-0.015
3988,-0.475,-0.005
3989,-0.470,0.005
3990,-0.460,0.000
3991,-0.480,0.005
3992,-0.485,-0.015
3993,-0.490,-0.015
3994,-0.485,0.005
3995,-0.470,0.005
3996,-0.470,0.000
3997,-0.470,-0.005
3998,-0.470,-0.005
3999,-0.470,0.010
4000,-0.475,0.000
4001,-0.455,0.020
4002,-0.465,0.015
4003,-0.460,0.000
4004,-0.470,-0.005
4005,-0.470,0.005
4006,-0.465,0.015
4007,-0.455,0.030
4008,-0.445,0.020
4009,-0.450,0.020
4010,-0.455,0.005
4011,-0.455,0.010
4012,-0.440,0.025
4013,-0.430,0.040
4014,-0.430,0.045
4015,-0.425,0.045
4016,-0.430,0.030
4017,-0.435,0.035
4018,-0.415,0.050
4019,-0.405,0.070
4020,-0.380,0.055
4021,-0.385,0.070
4022,-0.385,0.065
4023,-0.375,0.080
4024,-0.365,0.090
4025,-0.340,0.095
4026,-0.335,0.110
4027,-0.345,0.105
4028,-0.325,0.105
4029,-0.305,0.115
4030,-0.290,0.135
4031,-0.270,0.150
4032,-0.255,0.165
4033,-0.250,0.160
4034,-0.235,0.170
4035,-0.215,0.190
4036,-0.185,0.200
4037,-0.175,0.200
4038,-0.155,0.200
4039,-0.145,0.215
4040,-0.135,0.220
4041,-0.115,0.240
4042,-0.100,0.255
4043,-0.070,0.265
4044,-0.060,0.285
4045,-0.050,0.275
4046,-0.040,0.280
4047,-0.030,0.290
4048,-0.015,0.300
4049,0.005,0.320
4050,0.020,0.330
4051,0.030,0.320
4052,0.025,0.310
4053,0.030,0.340
4054,0.045,0.335
4055,0.055,0.360
4056,0.045,0.350
4057,0.045,0.355
4058,0.045,0.345
4059,0.025,0.355
4060,0.035,0.345
4061,0.035,0.355
4062,0.030,0.335
4063,0.010,0.320
4064,-0.020,0.310
4065,-0.035,0.300
4066,-0.050,0.300
4067,-0.050,0.290
4068,-0.075,0.275
4069,-0.100,0.255
4070,-0.125,0.220
4071,-0.165,0.225
4072,-0.155,0.205
4073,-0.170,0.200
4074,-0.190,0.190
4075,-0.220,0.155
4076,-0.235,0.130
4077,-0.245,0.110
4078,-0.235,0.125
4079,-0.250,0.110
4080,-0.260,0.110
4081,-0.270,0.085
4082,-0.285,0.060
4083,-0.295,0.065
4084,-0.295,0.060
4085,-0.290,0.065
4086,-0.295,0.065
4087,-0.290,0.045
4088,-0.310,0.035
4089,-0.310,0.030
4090,-0.310,0.045
4091,-0.315,0.045
4092,-0.305,0.050
4093,-0.305,0.025
4094,-0.325,0.015
4095,-0.335,0.030
4096,-0.330,0.040
4097,-0.325,0.025
4098,-0.310,0.030
4099,-0.315,0.025
4100,-0.315,0.020
4101,-0.330,0.025
4102,-0.320,0.035
4103,-0.305,0.035
4104,-0.310,0.035
4105,-0.300,0.040
4106,-0.310,0.025
4107,-0.315,0.025
4108,-0.295,0.045
4109,-0.290,0.045
4110,-0.285,0.060
4111,-0.295,0.030
4112,-0.295,0.030
4113,-0.300,0.045
4114,-0.295,0.045
4115,-0.280,0.065
4116,-0.280,0.065
4117,-0.285,0.045
4118,-0.285,0.045
4119,-0.290,0.060
4120,-0.275,0.075
4121,-0.280,0.075
4122,-0.270,0.065
4123,-0.260,0.060
4124,-0.265,0.045
4125,-0.275,0.060
4126,-0.270,0.080
4127,-0.255,0.085
4128,-0.245,0.080
4129,-0.260,0.080
4130,-0.275,0.065
4131,-0.270,0.060
4132,-0.270,0.080
4133,-0.260,0.070
4134,-0.265,0.080
4135,-0.275,0.065
4136,-0.275,0.050
4137,-0.280,0.060
4138,-0.275,0.075
4139,-0.260,0.085
4140,-0.260,0.080
4141,-0.265,0.070
4142,-0.285,0.060
4143,-0.295,0.055
4144,-0.295,0.065
4145,-0.275,0.070
4146,-0.280,0.065
4147,-0.290,0.050
4148,-0.310,0.045
4149,-0.320,0.045
4150,-0.320,0.055
4151,-0.295,0.060
4152,-0.295,0.045
4153,-0.305,0.055
4154,-0.315,0.030
4155,-0.315,0.020
4156,-0.320,0.040
4157,-0.320,0.035
4158,-0.310,0.025
4159,-0.330,0.030
4160,-0.345,0.010
4161,-0.340,0.005
4162,-0.345,0.020
4163,-0.335,0.015
4164,-0.335,0.010
4165,-0.345,0.010
4166,-0.370,-0.015
4167,-0.355,0.000
4168,-0.360,0.000
4169,-0.355,0.010
4170,-0.350,0.005
4171,-0.355,-0.015
4172,-0.370,-0.020
4173,-0.370,-0.020
4174,-0.370,-0.010
4175,-0.355,-0.005
4176,-0.360,0.000
4177,-0.370,-0.020
4178,-0.375,-0.035
4179,-0.380,-0.020
4180,-0.370,-0.020
4181,-0.365,-0.015
4182,-0.365,0.000
4183,-0.370,-0.025
4184,-0.385,-0.030
4185,-0.400,-0.030
4186,-0.380,-0.010
4187,-0.375,-0.015
4188,-0.370,-0.020
4189,-0.375,-0.025
4190,-0.385,-0.040
4191,-0.400,-0.040
4192,-0.390,-0.030
4193,-0.380,-0.025
4194,-0.390,-0.025
4195,-0.385,-0.040
4196,-0.395,-0.035
4197,-0.400,-0.025
4198,-0.375,-0.035
4199,-0.370,-0.025
4200,-0.345,-0.025
4201,-0.350,-0.035
4202,-0.335,-0.040
4203,-0.325,-0.025
4204,-0.315,-0.015
4205,-0.310,-0.015
4206,-0.310,-0.010
4207,-0.310,-0.025
4208,-0.310,-0.035
4209,-0.315,-0.030
4210,-0.290,-0.005
4211,-0.280,-0.005
4212,-0.280,0.000
4213,-0.285,-0.020
4214,-0.285,-0.040
4215,-0.290,-0.035
4216,-0.270,-0.025
4217,-0.260,0.000
4218,-0.260,-0.015
4219,-0.270,-0.015
4220,-0.290,-0.030
4221,-0.290,-0.025
4222,-0.300,-0.030
4223,-0.295,-0.035
4224,-0.315,-0.050
4225,-0.330,-0.060
4226,-0.330,-0.080
4227,-0.335,-0.070
4228,-0.310,-0.070
4229,-0.305,-0.055
4230,-0.315,-0.030
4231,-0.335,-0.030
4232,-0.360,-0.020
4233,-0.355,-0.020
4234,-0.365,-0.005
4235,-0.380,-0.005
4236,-0.380,0.005
4237,-0.395,-0.020
4238,-0.415,-0.025
4239,-0.425,-0.030
4240,-0.415,-0.035
4241,-0.420,-0.035
4242,-0.430,-0.035
4243,-0.445,-0.045
4244,-0.445,-0.055
4245,-0.455,-0.065
4246,-0.450,-0.045
4247,-0.440,-0.035
4248,-0.445,-0.040
4249,-0.460,-0.050
4250,-0.460,-0.060
4251,-0.475,-0.050
4252,-0.465,-0.045
4253,-0.455,-0.050
4254,-0.445,-0.035
4255,-0.465,-0.045
4256,-0.465,-0.055
4257,-0.460,-0.045
4258,-0.455,-0.045
4259,-0.445,-0.035
4260,-0.445,-0.035
4261,-0.455,-0.040
4262,-0.460,-0.055
4263,-0.460,-0.040
4264,-0.455,-0.045
4265,-0.455,-0.040
4266,-0.465,-0.035
4267,-0.490,-0.045
4268,-0.550,-0.060
4269,-0.625,-0.070
4270,-0.645,-0.070
4271,-0.630,-0.070
4272,-0.595,-0.055
4273,-0.535,-0.030
4274,-0.480,-0.010
4275,-0.360,0.035
4276,-0.145,0.095
4277,0.185,0.205
4278,0.530,0.375
4279,0.875,0.590
4280,1.190,0.815
4281,1.470,1.085
4282,1.690,1.345
4283,1.770,1.525
4284,1.705,1.560
4285,1.440,1.430
4286,0.990,1.145
4287,0.445,0.735
4288,-0.025,0.290
4289,-0.330,-0.075
4290,-0.490,-0.330
4291,-0.535,-0.440
4292,-0.545,-0.445
4293,-0.520,-0.375
4294,-0.445,-0.265
4295,-0.355,-0.145
4296,-0.320,-0.055
4297,-0.340,0.000
4298,-0.385,0.020
4299,-0.400,0.005
4300,-0.415,0.015
4301,-0.405,0.010
4302,-0.415,0.000
4303,-0.420,-0.015
4304,-0.440,-0.020
4305,-0.445,-0.010
4306,-0.465,-0.020
4307,-0.460,-0.015
4308,-0.480,-0.020
4309,-0.475,-0.030
4310,-0.490,-0.025
4311,-0.490,-0.030
4312,-0.485,-0.005
4313,-0.485,-0.010
4314,-0.500,-0.025
4315,-0.490,-0.025
4316,-0.500,-0.035
4317,-0.505,-0.030
4318,-0.505,-0.020
4319,-0.495,-0.020
4320,-0.495,-0.010
4321,-0.495,-0.010
4322,-0.505,-0.025
4323,-0.515,-0.020
4324,-0.495,-0.010
4325,-0.490,-0.005
4326,-0.500,-0.005
4327,-0.495,-0.010
4328,-0.500,-0.015
4329,-0.500,-0.005
4330,-0.490,-0.005
4331,-0.485,0.000
4332,-0.485,0.005
4333,-0.485,0.005
4334,-0.490,-0.010
4335,-0.490,0.000
4336,-0.475,0.010
4337,-0.465,0.015
4338,-0.470,0.015
4339,-0.470,0.010
4340,-0.470,-0.005
4341,-0.475,0.015
4342,-0.465,0.015
4343,-0.450,0.030
4344,-0.445,0.025
4345,-0.445,0.025
4346,-0.445,0.020
4347,-0.440,0.025
4348,-0.435,0.035
4349,-0.415,0.055
4350,-0.405,0.045
4351,-0.400,0.040
4352,-0.410,0.050
4353,-0.400,0.055
4354,-0.385,0.070
4355,-0.365,0.090
4356,-0.345,0.090
4357,-0.345,0.085
4358,-0.340,0.075
4359,-0.325,0.085
4360,-0.300,0.110
4361,-0.285,0.120
4362,-0.265,0.130
4363,-0.260,0.130
4364,-0.260,0.145
4365,-0.240,0.160
4366,-0.210,0.185
4367,-0.195,0.195
4368,-0.175,0.205
4369,-0.160,0.205
4370,-0.140,0.205
4371,-0.145,0.215
4372,-0.120,0.245
4373,-0.100,0.260
4374,-0.075,0.280
4375,-0.065,0.270
4376,-0.055,0.270
4377,-0.040,0.275
4378,-0.020,0.295
4379,-0.010,0.310
4380,0.010,0.315
4381,0.015,0.320
4382,0.025,0.300
4383,0.025,0.330
4384,0.035,0.345
4385,0.045,0.350
4386,0.040,0.350
4387,0.055,0.340
4388,0.040,0.330
4389,0.045,0.335
4390,0.045,0.345
4391,0.050,0.340
4392,0.035,0.325
4393,0.025,0.300
4394,0.005,0.295
4395,-0.035,0.290
4396,-0.025,0.295
4397,-0.050,0.285
4398,-0.060,0.265
4399,-0.080,0.245
4400,-0.120,0.225
4401,-0.145,0.215
4402,-0.170,0.210
4403,-0.170,0.200
4404,-0.195,0.190
4405,-0.220,0.160
4406,-0.235,0.130
4407,-0.265,0.130
4408,-0.275,0.115
4409,-0.270,0.120
4410,-0.290,0.100
4411,-0.290,0.070
4412,-0.310,0.060
4413,-0.335,0.055
4414,-0.325,0.055
4415,-0.335,0.055
4416,-0.340,0.050
4417,-0.345,0.035
4418,-0.355,0.020
4419,-0.355,0.010
4420,-0.355,0.010
4421,-0.355,0.015
4422,-0.370,0.010
4423,-0.355,0.005
4424,-0.365,-0.005
4425,-0.365,0.015
4426,-0.365,0.020
4427,-0.345,0.020
4428,-0.360,0.015
4429,-0.350,0.005
4430,-0.360,-0.005
4431,-0.365,0.005
4432,-0.355,0.020
4433,-0.340,0.020
4434,-0.350,0.015
4435,-0.345,0.010
4436,-0.355,0.010
4437,-0.360,0.020
4438,-0.360,0.025
4439,-0.340,0.035
4440,-0.335,0.030
4441,-0.325,0.015
4442,-0.340,0.015
4443,-0.345,0.020
4444,-0.335,0.035
4445,-0.325,0.040
4446,-0.335,0.050
4447,-0.325,0.040
4448,-0.335,0.035
4449,-0.325,0.035
4450,-0.320,0.040
4451,-0.310,0.050
4452,-0.325,0.055
4453,-0.315,0.050
4454,-0.325,0.040
4455,-0.335,0.050
4456,-0.315,0.055
4457,-0.320,0.060
4458,-0.305,0.060
4459,-0.305,0.050
4460,-0.325,0.035
4461,-0.330,0.045
4462,-0.315,0.065
4463,-0.320,0.050
4464,-0.315,0.060
4465,-0.325,0.045
4466,-0.335,0.045
4467,-0.340,0.045
4468,-0.330,0.050
4469,-0.325,0.050
4470,-0.340,0.045
4471,-0.340,0.030
4472,-0.350,0.015
4473,-0.360,0.020
4474,-0.345,0.030
4475,-0.345,0.035
4476,-0.335,0.040
4477,-0.350,0.015
4478,-0.365,0.005
4479,-0.360,0.005
4480,-0.375,0.015
4481,-0.360,0.010
4482,-0.355,0.005
4483,-0.380,-0.015
4484,-0.390,-0.015
4485,-0.380,-0.010
4486,-0.385,-0.015
4487,-0.385,-0.015
4488,-0.385,-0.010
4489,-0.405,-0.020
4490,-0.415,-0.040
4491,-0.400,-0.030
4492,-0.405,-0.020
4493,-0.400,-0.025
4494,-0.405,-0.020
4495,-0.405,-0.040
4496,-0.415,-0.045
4497,-0.420,-0.040
4498,-0.420,-0.035
4499,-0.410,-0.030
4500,-0.405,-0.025
4501,-0.425,-0.045
4502,-0.425,-0.060
4503,-0.430,-0.045
4504,-0.415,-0.040
4505,-0.420,-0.035
4506,-0.410,-0.045
4507,-0.405,-0.035
4508,-0.415,-0.050
4509,-0.430,-0.055
4510,-0.415,-0.055
4511,-0.420,-0.050
4512,-0.410,-0.040
4513,-0.415,-0.060
4514,-0.420,-0.060
4515,-0.420,-0.055
4516,-0.420,-0.050
4517,-0.405,-0.040
4518,-0.420,-0.050
4519,-0.425,-0.060
4520,-0.430,-0.070
4521,-0.435,-0.060
4522,-0.420,-0.055
4523,-0.410,-0.055
4524,-0.400,-0.045
4525,-0.410,-0.055
4526,-0.415,-0.070
4527,-0.410,-0.050
4528,-0.395,-0.055
4529,-0.370,-0.055
4530,-0.355,-0.050
4531,-0.355,-0.060
4532,-0.355,-0.055
4533,-0.355,-0.055
4534,-0.355,-0.040
4535,-0.330,-0.035
4536,-0.330,-0.030
4537,-0.325,-0.040
4538,-0.320,-0.050
4539,-0.325,-0.040
4540,-0.300,-0.040
4541,-0.300,-0.040
4542,-0.300,-0.030
4543,-0.290,-0.040
4544,-0.290,-0.050
4545,-0.305,-0.040
4546,-0.295,-0.035
4547,-0.310,-0.035
4548,-0.305,-0.045
4549,-0.325,-0.050
4550,-0.335,-0.070
4551,-0.360,-0.085
4552,-0.360,-0.095
4553,-0.360,-0.100
4554,-0.355,-0.095
4555,-0.345,-0.105
4556,-0.340,-0.090
4557,-0.355,-0.065
4558,-0.360,-0.035
4559,-0.365,-0.020
4560,-0.380,-0.025
4561,-0.395,-0.045
4562,-0.410,-0.060
4563,-0.425,-0.055
4564,-0.425,-0.045
4565,-0.420,-0.050
4566,-0.435,-0.055
4567,-0.440,-0.060
4568,-0.460,-0.080
4569,-0.465,-0.060
4570,-0.475,-0.060
4571,-0.460,-0.070
4572,-0.465,-0.085
4573,-0.480,-0.085
4574,-0.480,-0.085
4575,-0.475,-0.085
4576,-0.480,-0.080
4577,-0.475,-0.060
4578,-0.475,-0.065
4579,-0.480,-0.070
4580,-0.475,-0.085
4581,-0.485,-0.075
4582,-0.485,-0.060
4583,-0.475,-0.055
4584,-0.475,-0.065
4585,-0.475,-0.065
4586,-0.490,-0.085
4587,-0.495,-0.080
4588,-0.475,-0.075
4589,-0.465,-0.060
4590,-0.480,-0.070
4591,-0.480,-0.075
4592,-0.490,-0.080
4593,-0.490,-0.070
4594,-0.490,-0.070
4595,-0.500,-0.055
4596,-0.555,-0.075
4597,-0.625,-0.095
4598,-0.665,-0.115
4599,-0.655,-0.115
4600,-0.590,-0.085
4601,-0.510,-0.035
4602,-0.420,0.000
4603,-0.220,0.040
4604,0.075,0.135
4605,0.450,0.310
4606,0.825,0.555
4607,1.165,0.805
4608,1.465,1.055
4609,1.660,1.295
4610,1.750,1.465
4611,1.705,1.530
4612,1.465,1.435
4613,1.015,1.150
4614,0.450,0.695
4615,-0.055,0.195
4616,-0.390,-0.190
4617,-0.535,-0.420
4618,-0.565,-0.500
4619,-0.565,-0.465
4620,-0.545,-0.390
4621,-0.480,-0.300
4622,-0.410,-0.195
4623,-0.380,-0.100
4624,-0.390,-0.020
4625,-0.420,0.010
4626,-0.435,0.000
4627,-0.450,-0.020
4628,-0.455,-0.045
4629,-0.475,-0.030
4630,-0.470,-0.020
4631,-0.465,-0.010
4632,-0.470,-0.035
4633,-0.500,-0.050
4634,-0.505,-0.055
4635,-0.515,-0.050
4636,-0.515,-0.035
4637,-0.515,-0.045
4638,-0.510,-0.045
4639,-0.520,-0.055
4640,-0.535,-0.055
4641,-0.530,-0.055
4642,-0.535,-0.040
4643,-0.520,-0.030
4644,-0.515,-0.035
4645,-0.525,-0.040
4646,-0.540,-0.055
4647,-0.535,-0.050
4648,-0.530,-0.035
4649,-0.515,-0.015
4650,-0.520,-0.030
4651,-0.535,-0.035
4652,-0.540,-0.040
4653,-0.535,-0.035
4654,-0.515,-0.030
4655,-0.515,-0.020
4656,-0.520,-0.015
4657,-0.520,-0.035
4658,-0.530,-0.040
4659,-0.520,-0.030
4660,-0.520,-0.010
4661,-0.495,0.000
4662,-0.500,-0.010
4663,-0.495,-0.020
4664,-0.500,-0.015
4665,-0.515,-0.015
4666,-0.500,0.005
4667,-0.475,0.015
4668,-0.470,0.010
4669,-0.455,0.005
4670,-0.460,-0.010
4671,-0.475,0.015
4672,-0.455,0.035
4673,-0.440,0.045
4674,-0.430,0.035
4675,-0.430,0.025
4676,-0.420,0.035
4677,-0.415,0.045
4678,-0.395,0.075
4679,-0.365,0.075
4680,-0.355,0.090
4681,-0.360,0.085
4682,-0.345,0.095
4683,-0.325,0.095
4684,-0.300,0.130
4685,-0.270,0.130
4686,-0.260,0.160
4687,-0.250,0.155
4688,-0.235,0.150
4689,-0.220,0.170
4690,-0.190,0.180
4691,-0.175,0.200
4692,-0.155,0.215
4693,-0.140,0.210
4694,-0.135,0.220
4695,-0.125,0.230
4696,-0.100,0.255
4697,-0.075,0.260
4698,-0.075,0.270
4699,-0.065,0.265
4700,-0.045,0.270
4701,-0.045,0.285
4702,-0.015,0.300
4703,0.000,0.315
4704,0.005,0.310
4705,0.005,0.315
4706,0.010,0.315
4707,0.020,0.315
4708,0.025,0.325
4709,0.030,0.340
4710,0.020,0.325
4711,0.015,0.320
4712,0.005,0.300
4713,-0.010,0.295
4714,-0.015,0.300
4715,-0.025,0.290
4716,-0.040,0.280
4717,-0.070,0.270
4718,-0.100,0.225
4719,-0.120,0.235
4720,-0.135,0.225
4721,-0.160,0.210
4722,-0.180,0.200
4723,-0.210,0.180
4724,-0.235,0.150
4725,-0.265,0.140
4726,-0.270,0.125
4727,-0.275,0.125
4728,-0.295,0.095
4729,-0.320,0.080
4730,-0.340,0.060
4731,-0.345,0.055
4732,-0.340,0.055
4733,-0.340,0.050
4734,-0.355,0.030
4735,-0.365,0.025
4736,-0.370,0.025
4737,-0.385,0.030
4738,-0.380,0.030
4739,-0.380,0.025
4740,-0.375,0.020
4741,-0.380,0.005
4742,-0.385,0.005
4743,-0.390,0.000
4744,-0.395,0.005
4745,-0.375,0.010
4746,-0.370,0.020
4747,-0.380,0.000
4748,-0.395,-0.005
4749,-0.400,-0.015
4750,-0.380,0.020
4751,-0.375,0.010
4752,-0.365,0.015
4753,-0.375,0.015
4754,-0.375,-0.005
4755,-0.380,0.010
4756,-0.365,0.020
4757,-0.365,0.025
4758,-0.350,0.025
4759,-0.350,0.030
4760,-0.355,0.025
4761,-0.360,0.025
4762,-0.350,0.030
4763,-0.335,0.050
4764,-0.335,0.040
4765,-0.345,0.030
4766,-0.345,0.030
4767,-0.345,0.045
4768,-0.335,0.045
4769,-0.330,0.055
4770,-0.320,0.050
4771,-0.330,0.055
4772,-0.330,0.030
4773,-0.335,0.050
4774,-0.335,0.055
4775,-0.320,0.070
4776,-0.320,0.050
4777,-0.330,0.035
4778,-0.335,0.040
4779,-0.350,0.045
4780,-0.340,0.045
4781,-0.335,0.050
4782,-0.330,0.045
4783,-0.335,0.050
4784,-0.355,0.025
4785,-0.350,0.035
4786,-0.345,0.040
4787,-0.360,0.035
4788,-0.355,0.025
4789,-0.365,0.015
4790,-0.365,0.015
4791,-0.375,0.020
4792,-0.375,0.015
4793,-0.360,0.020
4794,-0.375,0.010
4795,-0.385,0.000
4796,-0.385,-0.010
4797,-0.410,-0.005
4798,-0.405,0.000
4799,-0.390,0.000
4800,-0.395,-0.005
4801,-0.405,-0.015
4802,-0.405,-0.035
4803,-0.400,-0.025
4804,-0.395,-0.010
4805,-0.405,-0.010
4806,-0.390,-0.025
4807,-0.405,-0.030
4808,-0.420,-0.045
4809,-0.420,-0.035
4810,-0.400,-0.035
4811,-0.410,-0.030
4812,-0.410,-0.030
4813,-0.415,-0.040
4814,-0.435,-0.055
4815,-0.430,-0.050
4816,-0.420,-0.045
4817,-0.420,-0.035
4818,-0.425,-0.050
4819,-0.425,-0.060
4820,-0.440,-0.070
4821,-0.435,-0.060
4822,-0.430,-0.045
4823,-0.430,-0.040
4824,-0.420,-0.050
4825,-0.425,-0.055
4826,-0.435,-0.065
4827,-0.445,-0.060
4828,-0.435,-0.050
4829,-0.420,-0.045
4830,-0.425,-0.045
4831,-0.430,-0.050
4832,-0.435,-0.065
4833,-0.455,-0.050
4834,-0.430,-0.035
4835,-0.425,-0.035
4836,-0.420,-0.055
4837,-0.425,-0.060
4838,-0.430,-0.070
4839,-0.440,-0.070
4840,-0.435,-0.050
4841,-0.415,-0.040
4842,-0.435,-0.055
4843,-0.430,-0.055
4844,-0.435,-0.055
4845,-0.440,-0.050
4846,-0.425,-0.060
4847,-0.410,-0.040
4848,-0.425,-0.045
4849,-0.430,-0.055
4850,-0.425,-0.055
4851,-0.425,-0.055
4852,-0.425,-0.045
4853,-0.400,-0.040
4854,-0.395,-0.040
4855,-0.370,-0.040
4856,-0.375,-0.050
4857,-0.380,-0.045
4858,-0.360,-0.040
4859,-0.340,-0.030
4860,-0.335,-0.020
4861,-0.335,-0.040
4862,-0.330,-0.035
4863,-0.330,-0.030
4864,-0.330,-0.030
4865,-0.310,-0.025
4866,-0.295,-0.035
4867,-0.300,-0.045
4868,-0.310,-0.055
4869,-0.310,-0.050
4870,-0.300,-0.030
4871,-0.305,-0.030
4872,-0.300,-0.035
4873,-0.315,-0.055
4874,-0.335,-0.070
4875,-0.355,-0.085
4876,-0.350,-0.075
4877,-0.355,-0.070
4878,-0.355,-0.090
4879,-0.340,-0.090
4880,-0.340,-0.095
4881,-0.340,-0.060
4882,-0.340,-0.040
4883,-0.340,-0.010
4884,-0.360,-0.020
4885,-0.375,-0.035
4886,-0.395,-0.045
4887,-0.405,-0.035
4888,-0.395,-0.025
4889,-0.400,-0.020
4890,-0.405,-0.030
4891,-0.420,-0.055
4892,-0.425,-0.060
4893,-0.445,-0.050
4894,-0.450,-0.045
4895,-0.435,-0.040
4896,-0.440,-0.050
4897,-0.450,-0.065
4898,-0.450,-0.055
4899,-0.460,-0.055
4900,-0.450,-0.055
4901,-0.445,-0.050
4902,-0.450,-0.045
4903,-0.445,-0.045
4904,-0.455,-0.060
4905,-0.460,-0.040
4906,-0.460,-0.030
4907,-0.445,-0.020
4908,-0.445,-0.020
4909,-0.445,-0.035
4910,-0.465,-0.050
4911,-0.455,-0.045
4912,-0.455,-0.030
4913,-0.445,-0.015
4914,-0.445,-0.020
4915,-0.440,-0.030
4916,-0.465,-0.040
4917,-0.465,-0.035
4918,-0.445,-0.020
4919,-0.430,-0.015
4920,-0.425,-0.010
4921,-0.430,-0.025
4922,-0.445,-0.025
4923,-0.440,-0.010
4924,-0.435,0.005
4925,-0.445,-0.005
4926,-0.485,-0.005
4927,-0.560,-0.030
4928,-0.600,-0.050
4929,-0.585,-0.030
4930,-0.515,0.015
4931,-0.415,0.050
4932,-0.295,0.095
4933,-0.040,0.155
4934,0.315,0.290
4935,0.725,0.530
4936,1.125,0.800
4937,1.475,1.080
4938,1.735,1.360
4939,1.830,1.555
4940,1.740,1.555
4941,1.405,1.365
4942,0.825,0.975
4943,0.260,0.440
4944,-0.215,-0.030
4945,-0.455,-0.335
4946,-0.525,-0.420
4947,-0.535,-0.375
4948,-0.490,-0.275
4949,-0.390,-0.160
4950,-0.315,-0.045
4951,-0.305,0.015
4952,-0.345,0.055
4953,-0.380,0.060
4954,-0.380,0.050
4955,-0.380,0.045
4956,-0.370,0.050
4957,-0.385,0.035
4958,-0.405,0.035
4959,-0.430,0.040
4960,-0.455,0.045
4961,-0.425,0.040
4962,-0.440,0.040
4963,-0.445,0.025
4964,-0.440,0.015
4965,-0.455,0.015
4966,-0.450,0.035
4967,-0.430,0.050
4968,-0.430,0.045
4969,-0.445,0.040
4970,-0.450,0.030
4971,-0.455,0.035
4972,-0.440,0.045
4973,-0.435,0.060
4974,-0.425,0.050
4975,-0.430,0.045
4976,-0.440,0.040
4977,-0.440,0.055
4978,-0.435,0.060
4979,-0.420,0.070
4980,-0.410,0.070
4981,-0.415,0.065
4982,-0.430,0.050
4983,-0.430,0.065
4984,-0.410,0.070
4985,-0.400,0.080
4986,-0.385,0.080
4987,-0.400,0.070
4988,-0.395,0.075
4989,-0.400,0.080
4990,-0.385,0.100
4991,-0.370,0.110
4992,-0.360,0.100
4993,-0.360,0.095
4994,-0.360,0.100
4995,-0.365,0.110
4996,-0.335,0.125
4997,-0.320,0.135
4998,-0.305,0.140
4999,-0.305,0.130
5000,-0.305,0.130
5001,-0.295,0.145
5002,-0.280,0.160
5003,-0.250,0.175
5004,-0.230,0.185
5005,-0.225,0.175
5006,-0.210,0.195
5007,-0.205,0.210
5008,-0.175,0.225
5009,-0.155,0.245
5010,-0.125,0.260
5011,-0.115,0.250
5012,-0.105,0.260
5013,-0.095,0.280
5014,-0.060,0.305
5015,-0.030,0.330
5016,-0.005,0.345
5017,-0.010,0.330
5018,0.015,0.335
5019,0.020,0.330
5020,0.040,0.350
5021,0.070,0.370
5022,0.080,0.380
5023,0.085,0.370
5024,0.095,0.380
5025,0.095,0.380
5026,0.105,0.415
5027,0.135,0.415
5028,0.140,0.410
5029,0.140,0.410
5030,0.135,0.410
5031,0.125,0.415
5032,0.130,0.420
5033,0.130,0.425
5034,0.135,0.420
5035,0.115,0.410
5036,0.090,0.385
5037,0.075,0.385
5038,0.075,0.390
5039,0.060,0.390
5040,0.045,0.375
5041,0.030,0.355
5042,-0.005,0.340
5043,-0.040,0.325
5044,-0.060,0.325
5045,-0.065,0.300
5046,-0.090,0.295
5047,-0.115,0.260
5048,-0.130,0.240
5049,-0.160,0.230
5050,-0.160,0.235
5051,-0.170,0.215
5052,-0.180,0.205
5053,-0.185,0.200
5054,-0.210,0.175
5055,-0.220,0.175
5056,-0.220,0.175
5057,-0.220,0.170
5058,-0.225,0.165
5059,-0.240,0.145
5060,-0.245,0.140
5061,-0.250,0.160
5062,-0.245,0.155
5063,-0.230,0.145
5064,-0.235,0.150
5065,-0.235,0.140
5066,-0.250,0.140
5067,-0.250,0.130
5068,-0.230,0.145
5069,-0.225,0.150
5070,-0.215,0.160
5071,-0.225,0.145
5072,-0.235,0.150
5073,-0.235,0.150
5074,-0.235,0.155
5075,-0.220,0.175
5076,-0.215,0.170
5077,-0.220,0.160
5078,-0.220,0.160
5079,-0.225,0.155
5080,-0.200,0.170
5081,-0.205,0.180
5082,-0.200,0.175
5083,-0.195,0.175
5084,-0.210,0.165
5085,-0.210,0.185
5086,-0.195,0.185
5087,-0.185,0.190
5088,-0.175,0.195
5089,-0.185,0.185
5090,-0.185,0.190
5091,-0.185,0.200
5092,-0.190,0.205
5093,-0.180,0.215
5094,-0.175,0.205
5095,-0.170,0.205
5096,-0.180,0.200
5097,-0.185,0.195
5098,-0.175,0.215
5099,-0.190,0.215
5100,-0.165,0.215
5101,-0.175,0.205
5102,-0.190,0.195
5103,-0.185,0.210
5104,-0.180,0.200
5105,-0.170,0.215
5106,-0.165,0.220
5107,-0.180,0.210
5108,-0.185,0.195
5109,-0.195,0.195
5110,-0.185,0.200
5111,-0.185,0.200
5112,-0.185,0.200
5113,-0.195,0.195
5114,-0.205,0.180
5115,-0.215,0.185
5116,-0.205,0.190
5117,-0.200,0.180
5118,-0.200,0.185
5119,-0.210,0.160
5120,-0.215,0.160
5121,-0.230,0.160
5122,-0.220,0.165
5123,-0.220,0.175
5124,-0.220,0.175
5125,-0.230,0.155
5126,-0.235,0.145
5127,-0.245,0.155
5128,-0.230,0.160
5129,-0.235,0.165
5130,-0.235,0.155
5131,-0.230,0.140
5132,-0.240,0.140
5133,-0.255,0.155
5134,-0.250,0.145
5135,-0.245,0.145
5136,-0.240,0.160
5137,-0.265,0.145
5138,-0.270,0.125
5139,-0.265,0.125
5140,-0.250,0.135
5141,-0.255,0.140
5142,-0.255,0.120
5143,-0.260,0.130
5144,-0.270,0.120
5145,-0.275,0.135
5146,-0.270,0.135
5147,-0.265,0.125
5148,-0.255,0.120
5149,-0.275,0.115
5150,-0.280,0.110
5151,-0.285,0.110
5152,-0.270,0.130
5153,-0.265,0.140
5154,-0.265,0.130
5155,-0.275,0.120
5156,-0.275,0.105
5157,-0.280,0.115
5158,-0.270,0.130
5159,-0.280,0.130
5160,-0.265,0.135
5161,-0.270,0.120
5162,-0.280,0.115
5163,-0.280,0.120
5164,-0.275,0.130
5165,-0.270,0.135
5166,-0.260,0.135
5167,-0.270,0.115
5168,-0.275,0.115
5169,-0.270,0.115
5170,-0.255,0.140
5171,-0.235,0.140
5172,-0.215,0.140
5173,-0.210,0.140
5174,-0.205,0.135
5175,-0.200,0.125
5176,-0.185,0.135
5177,-0.180,0.140
5178,-0.175,0.150
5179,-0.180,0.140
5180,-0.175,0.145
5181,-0.170,0.140
5182,-0.160,0.160
5183,-0.145,0.150
5184,-0.145,0.145
5185,-0.150,0.140
5186,-0.155,0.125
5187,-0.155,0.140
5188,-0.145,0.155
5189,-0.155,0.155
5190,-0.170,0.150
5191,-0.180,0.120
5192,-0.215,0.095
5193,-0.215,0.105
5194,-0.200,0.100
5195,-0.185,0.120
5196,-0.180,0.120
5197,-0.190,0.135
5198,-0.200,0.135
5199,-0.210,0.165
5200,-0.220,0.175
5201,-0.230,0.175
5202,-0.240,0.175
5203,-0.255,0.160
5204,-0.265,0.150
5205,-0.275,0.145
5206,-0.285,0.145
5207,-0.290,0.155
5208,-0.290,0.145
5209,-0.300,0.140
5210,-0.310,0.120
5211,-0.315,0.130
5212,-0.315,0.130
5213,-0.305,0.140
5214,-0.305,0.130
5215,-0.305,0.120
5216,-0.325,0.120
5217,-0.320,0.135
5218,-0.305,0.140
5219,-0.300,0.145
5220,-0.310,0.150
5221,-0.325,0.140
5222,-0.320,0.125
5223,-0.330,0.130
5224,-0.320,0.150
5225,-0.330,0.135
5226,-0.320,0.145
5227,-0.325,0.135
5228,-0.315,0.140
5229,-0.320,0.135
5230,-0.315,0.155
5231,-0.300,0.145
5232,-0.315,0.150
5233,-0.300,0.140
5234,-0.305,0.135
5235,-0.315,0.140
5236,-0.295,0.155
5237,-0.300,0.165
5238,-0.290,0.165
5239,-0.300,0.165
5240,-0.315,0.140
5241,-0.325,0.160
5242,-0.365,0.160
5243,-0.420,0.150
5244,-0.465,0.135
5245,-0.460,0.135
5246,-0.415,0.155
5247,-0.335,0.210
5248,-0.210,0.250
5249,0.045,0.320
5250,0.415,0.470
5251,0.835,0.695
5252,1.205,0.950
5253,1.530,1.225
5254,1.790,1.495
5255,1.890,1.695
5256,1.855,1.715
5257,1.560,1.535
5258,1.025,1.130
5259,0.405,0.595
5260,-0.070,0.115
5261,-0.325,-0.195
5262,-0.400,-0.295
5263,-0.415,-0.250
5264,-0.360,-0.135
5265,-0.275,-0.010
5266,-0.195,0.125
5267,-0.180,0.205
5268,-0.215,0.225
5269,-0.240,0.210
5270,-0.250,0.175
5271,-0.255,0.190
5272,-0.260,0.210
5273,-0.260,0.220
5274,-0.280,0.205
5275,-0.295,0.200
5276,-0.310,0.180
5277,-0.310,0.185
5278,-0.315,0.185
5279,-0.320,0.195
5280,-0.305,0.180
5281,-0.310,0.185
5282,-0.325,0.175
5283,-0.335,0.185
5284,-0.325,0.205
5285,-0.315,0.205
5286,-0.320,0.200
5287,-0.330,0.200
5288,-0.340,0.180
5289,-0.335,0.190
5290,-0.325,0.210
5291,-0.330,0.200
5292,-0.330,0.210
5293,-0.335,0.190
5294,-0.330,0.190
5295,-0.325,0.200
5296,-0.325,0.200
5297,-0.310,0.210
5298,-0.315,0.210
5299,-0.310,0.215
5300,-0.315,0.195
5301,-0.320,0.215
5302,-0.305,0.220
5303,-0.295,0.220
5304,-0.290,0.235
5305,-0.290,0.225
5306,-0.305,0.215
5307,-0.295,0.220
5308,-0.290,0.230
5309,-0.275,0.245
5310,-0.260,0.240
5311,-0.265,0.245
5312,-0.265,0.235
5313,-0.260,0.235
5314,-0.250,0.240
5315,-0.230,0.255
5316,-0.220,0.260
5317,-0.215,0.255
5318,-0.205,0.255
5319,-0.200,0.275
5320,-0.185,0.295
5321,-0.155,0.305
5322,-0.145,0.325
5323,-0.140,0.320
5324,-0.125,0.330
5325,-0.110,0.335
5326,-0.085,0.350
5327,-0.065,0.365
5328,-0.045,0.385
5329,-0.035,0.380
5330,-0.035,0.390
5331,-0.015,0.400
5332,0.020,0.425
5333,0.045,0.425
5334,0.055,0.445
5335,0.050,0.435
5336,0.060,0.435
5337,0.065,0.445
5338,0.090,0.475
5339,0.100,0.480
5340,0.125,0.490
5341,0.130,0.480
5342,0.130,0.485
5343,0.130,0.485
5344,0.155,0.515
5345,0.165,0.510
5346,0.165,0.520
5347,0.165,0.515
5348,0.160,0.490
5349,0.150,0.500
5350,0.155,0.500
5351,0.165,0.520
5352,0.155,0.495
5353,0.115,0.495
5354,0.100,0.475
5355,0.085,0.470
5356,0.075,0.465
5357,0.070,0.465
5358,0.050,0.455
5359,0.020,0.425
5360,-0.010,0.405
5361,-0.035,0.400
5362,-0.050,0.385
5363,-0.060,0.390
5364,-0.090,0.340
5365,-0.110,0.330
5366,-0.140,0.310
5367,-0.160,0.295
5368,-0.165,0.295
5369,-0.160,0.285
5370,-0.170,0.280
5371,-0.185,0.255
5372,-0.200,0.245
5373,-0.220,0.235
5374,-0.220,0.240
5375,-0.220,0.240
5376,-0.225,0.220
5377,-0.220,0.215
5378,-0.250,0.195
5379,-0.250,0.200
5380,-0.245,0.215
5381,-0.230,0.210
5382,-0.225,0.200
5383,-0.240,0.195
5384,-0.255,0.170
5385,-0.260,0.180
5386,-0.255,0.190
5387,-0.245,0.195
5388,-0.240,0.195
5389,-0.250,0.190
5390,-0.250,0.180
5391,-0.260,0.180
5392,-0.245,0.195
5393,-0.240,0.200
5394,-0.245,0.190
5395,-0.245,0.195
5396,-0.255,0.185
5397,-0.255,0.200
5398,-0.235,0.205
5399,-0.215,0.210
5400,-0.220,0.205
5401,-0.215,0.200
5402,-0.240,0.195
5403,-0.240,0.205
5404,-0.215,0.225
5405,-0.215,0.225
5406,-0.220,0.210
5407,-0.235,0.210
5408,-0.230,0.215
5409,-0.230,0.205
5410,-0.220,0.230
5411,-0.215,0.225
5412,-0.210,0.225
5413,-0.220,0.205
5414,-0.225,0.205
5415,-0.230,0.215
5416,-0.220,0.225
5417,-0.215,0.235
5418,-0.205,0.235
5419,-0.225,0.225
5420,-0.225,0.210
5421,-0.210,0.215
5422,-0.225,0.225
5423,-0.215,0.230
5424,-0.215,0.235
5425,-0.225,0.220
5426,-0.240,0.210
5427,-0.240,0.220
5428,-0.225,0.225
5429,-0.225,0.230
5430,-0.225,0.220
5431,-0.230,0.200
5432,-0.240,0.200
5433,-0.245,0.180
5434,-0.255,0.200
5435,-0.245,0.195
5436,-0.245,0.205
5437,-0.245,0.185
5438,-0.260,0.180
5439,-0.255,0.185
5440,-0.255,0.180
5441,-0.250,0.185
5442,-0.260,0.185
5443,-0.270,0.160
5444,-0.275,0.155
5445,-0.290,0.150
5446,-0.280,0.170
5447,-0.290,0.165
5448,-0.285,0.150
5449,-0.285,0.145
5450,-0.315,0.135
5451,-0.320,0.140
5452,-0.310,0.140
5453,-0.295,0.160
5454,-0.295,0.145
5455,-0.305,0.135
5456,-0.325,0.120
5457,-0.330,0.120
5458,-0.325,0.130
5459,-0.330,0.130
5460,-0.310,0.125
5461,-0.320,0.100
5462,-0.330,0.110
5463,-0.340,0.100
5464,-0.325,0.110
5465,-0.320,0.125
5466,-0.325,0.100
5467,-0.335,0.095
5468,-0.350,0.100
5469,-0.350,0.095
5470,-0.355,0.090
5471,-0.335,0.105
5472,-0.345,0.105
5473,-0.345,0.095
5474,-0.355,0.070
5475,-0.365,0.070
5476,-0.345,0.075
5477,-0.340,0.085
5478,-0.335,0.090
5479,-0.350,0.065
5480,-0.355,0.070
5481,-0.365,0.065
5482,-0.365,0.075
5483,-0.345,0.090
5484,-0.345,0.090
5485,-0.360,0.080
5486,-0.370,0.065
5487,-0.380,0.075
5488,-0.375,0.085
5489,-0.355,0.080
5490,-0.355,0.090
5491,-0.370,0.075
5492,-0.370,0.070
5493,-0.370,0.080
5494,-0.355,0.090
5495,-0.335,0.085
5496,-0.330,0.075
5497,-0.330,0.085
5498,-0.325,0.070
5499,-0.310,0.075
5500,-0.295,0.090
5501,-0.275,0.100
5502,-0.275,0.085
5503,-0.280,0.090
5504,-0.290,0.085
5505,-0.280,0.080
5506,-0.270,0.090
5507,-0.265,0.090
5508,-0.265,0.080
5509,-0.260,0.080
5510,-0.265,0.070
5511,-0.270,0.085
5512,-0.270,0.080
5513,-0.275,0.070
5514,-0.290,0.055
5515,-0.305,0.035
5516,-0.330,0.015
5517,-0.340,0.020
5518,-0.330,0.030
5519,-0.315,0.035
5520,-0.300,0.035
5521,-0.300,0.045
5522,-0.310,0.070
5523,-0.340,0.070
5524,-0.345,0.090
5525,-0.345,0.080
5526,-0.355,0.080
5527,-0.360,0.060
5528,-0.380,0.060
5529,-0.395,0.055
5530,-0.395,0.060
5531,-0.380,0.060
5532,-0.395,0.060
5533,-0.405,0.040
5534,-0.420,0.030
5535,-0.435,0.025
5536,-0.435,0.035
5537,-0.415,0.040
5538,-0.425,0.020
5539,-0.435,0.025
5540,-0.435,0.010
5541,-0.445,0.025
5542,-0.430,0.035
5543,-0.430,0.040
5544,-0.425,0.045
5545,-0.425,0.030
5546,-0.440,0.025
5547,-0.460,0.025
5548,-0.440,0.035
5549,-0.445,0.045
5550,-0.440,0.035
5551,-0.445,0.030
5552,-0.455,0.025
5553,-0.465,0.015
5554,-0.460,0.025
5555,-0.440,0.030
5556,-0.445,0.030
5557,-0.440,0.020
5558,-0.440,0.015
5559,-0.445,0.025
5560,-0.435,0.040
5561,-0.430,0.040
5562,-0.430,0.030
5563,-0.435,0.045
5564,-0.455,0.020
5565,-0.465,0.030
5566,-0.495,0.040
5567,-0.540,0.030
5568,-0.590,0.020
5569,-0.605,0.005
5570,-0.565,0.000
5571,-0.510,0.060
5572,-0.415,0.100
5573,-0.265,0.140
5574,-0.010,0.220
5575,0.335,0.355
5576,0.665,0.540
5577,0.975,0.765
5578,1.285,0.995
5579,1.525,1.200
5580,1.645,1.385
5581,1.655,1.445
5582,1.490,1.380
5583,1.105,1.155
5584,0.580,0.790
5585,0.075,0.340
5586,-0.255,-0.030
5587,-0.445,-0.285
5588,-0.545,-0.395
5589,-0.590,-0.380
5590,-0.575,-0.315
5591,-0.480,-0.215
5592,-0.390,-0.115
5593,-0.355,-0.035
5594,-0.375,0.035
5595,-0.405,0.060
5596,-0.405,0.065
5597,-0.400,0.040
5598,-0.390,0.040
5599,-0.410,0.040
5600,-0.440,0.035
5601,-0.460,0.035
5602,-0.465,0.035
5603,-0.465,0.035
5604,-0.475,0.025
5605,-0.460,0.025
5606,-0.480,0.015
5607,-0.485,0.015
5608,-0.485,0.015
5609,-0.475,0.035
5610,-0.470,0.030
5611,-0.480,0.030
5612,-0.500,0.020
5613,-0.495,0.025
5614,-0.485,0.035
5615,-0.475,0.025
5616,-0.475,0.020
5617,-0.480,0.020
5618,-0.490,0.015
5619,-0.490,0.020
5620,-0.495,0.030
5621,-0.475,0.040
5622,-0.475,0.035
5623,-0.475,0.015
5624,-0.485,0.015
5625,-0.480,0.020
5626,-0.480,0.040
5627,-0.475,0.035
5628,-0.470,0.045
5629,-0.470,0.035
5630,-0.470,0.030
5631,-0.480,0.025
5632,-0.470,0.035
5633,-0.455,0.050
5634,-0.455,0.045
5635,-0.465,0.030
5636,-0.460,0.025
5637,-0.450,0.035
5638,-0.445,0.050
5639,-0.430,0.070
5640,-0.430,0.070
5641,-0.425,0.070
5642,-0.430,0.050
5643,-0.440,0.060
5644,-0.405,0.075
5645,-0.385,0.090
5646,-0.390,0.095
5647,-0.380,0.075
5648,-0.385,0.085
5649,-0.380,0.100
5650,-0.360,0.115
5651,-0.335,0.130
5652,-0.340,0.120
5653,-0.330,0.120
5654,-0.310,0.120
5655,-0.305,0.140
5656,-0.275,0.155
5657,-0.260,0.180
5658,-0.245,0.190
5659,-0.225,0.190
5660,-0.215,0.200
5661,-0.220,0.205
5662,-0.190,0.230
5663,-0.165,0.235
5664,-0.155,0.240
5665,-0.140,0.250
5666,-0.140,0.240
5667,-0.135,0.245
5668,-0.110,0.285
5669,-0.090,0.280
5670,-0.080,0.300
5671,-0.065,0.295
5672,-0.070,0.280
5673,-0.060,0.295
5674,-0.045,0.300
5675,-0.020,0.315
5676,-0.020,0.330
5677,-0.025,0.320
5678,-0.025,0.330
5679,-0.025,0.325
5680,-0.005,0.335
5681,-0.005,0.335
5682,-0.005,0.330
5683,-0.020,0.320
5684,-0.030,0.305
5685,-0.040,0.305
5686,-0.050,0.315
5687,-0.050,0.310
5688,-0.060,0.290
5689,-0.085,0.270
5690,-0.100,0.255
5691,-0.130,0.245
5692,-0.140,0.240
5693,-0.155,0.240
5694,-0.175,0.215
5695,-0.200,0.195
5696,-0.235,0.170
5697,-0.245,0.150
5698,-0.260,0.155
5699,-0.270,0.145
5700,-0.275,0.130
5701,-0.295,0.110
5702,-0.320,0.080
5703,-0.330,0.070
5704,-0.325,0.070
5705,-0.330,0.070
5706,-0.350,0.055
5707,-0.355,0.040
5708,-0.360,0.025
5709,-0.375,0.025
5710,-0.365,0.030
5711,-0.375,0.030
5712,-0.380,0.030
5713,-0.375,0.005
5714,-0.400,-0.005
5715,-0.405,0.000
5716,-0.385,0.010
5717,-0.390,0.005
5718,-0.380,0.000
5719,-0.390,0.000
5720,-0.400,-0.015
5721,-0.410,-0.015
5722,-0.395,0.005
5723,-0.395,0.005
5724,-0.390,-0.010
5725,-0.385,-0.010
5726,-0.400,-0.020
5727,-0.400,-0.010
5728,-0.400,-0.005
5729,-0.385,0.010
5730,-0.390,0.005
5731,-0.375,0.000
5732,-0.385,-0.010
5733,-0.390,-0.010
5734,-0.385,0.010
5735,-0.370,0.000
5736,-0.365,0.005
5737,-0.375,0.000
5738,-0.370,-0.015
5739,-0.380,0.015
5740,-0.380,0.015
5741,-0.365,0.030
5742,-0.355,0.015
5743,-0.355,0.005
5744,-0.360,-0.005
5745,-0.365,0.015
5746,-0.370,0.025
5747,-0.355,0.025
5748,-0.340,0.015
5749,-0.355,0.015
5750,-0.360,0.010
5751,-0.365,0.015
5752,-0.350,0.015
5753,-0.345,0.025
5754,-0.350,0.015
5755,-0.365,0.000
5756,-0.365,-0.015
5757,-0.360,-0.015
5758,-0.370,0.000
5759,-0.355,0.010
5760,-0.355,0.005
5761,-0.360,0.000
5762,-0.380,-0.010
5763,-0.370,-0.005
5764,-0.370,-0.015
5765,-0.375,0.000
5766,-0.365,-0.015
5767,-0.380,-0.045
5768,-0.395,-0.035
5769,-0.395,-0.040
5770,-0.390,-0.030
5771,-0.390,-0.025
5772,-0.390,-0.030
5773,-0.405,-0.035
5774,-0.415,-0.060
5775,-0.420,-0.055
5776,-0.415,-0.055
5777,-0.405,-0.050
5778,-0.410,-0.065
5779,-0.435,-0.070
5780,-0.430,-0.070
5781,-0.445,-0.075
5782,-0.435,-0.070
5783,-0.430,-0.080
5784,-0.430,-0.090
5785,-0.445,-0.100
5786,-0.445,-0.110
5787,-0.445,-0.105
5788,-0.445,-0.100
5789,-0.440,-0.090
5790,-0.440,-0.100
5791,-0.450,-0.105
5792,-0.460,-0.130
5793,-0.465,-0.120
5794,-0.465,-0.120
5795,-0.460,-0.115
5796,-0.455,-0.130
5797,-0.465,-0.125
5798,-0.470,-0.135
5799,-0.485,-0.135
5800,-0.465,-0.125
5801,-0.465,-0.120
5802,-0.465,-0.120
5803,-0.480,-0.140
5804,-0.475,-0.155
5805,-0.495,-0.150
5806,-0.475,-0.145
5807,-0.465,-0.140
5808,-0.470,-0.140
5809,-0.480,-0.140
5810,-0.495,-0.165
5811,-0.490,-0.150
5812,-0.475,-0.145
5813,-0.465,-0.140
5814,-0.465,-0.145
5815,-0.470,-0.155
5816,-0.470,-0.160
5817,-0.455,-0.155
5818,-0.435,-0.140
5819,-0.410,-0.135
5820,-0.400,-0.140
5821,-0.405,-0.140
5822,-0.405,-0.160
5823,-0.415,-0.155
5824,-0.395,-0.125
5825,-0.385,-0.125
5826,-0.365,-0.135
5827,-0.380,-0.150
5828,-0.390,-0.160
5829,-0.400,-0.155
5830,-0.400,-0.160
5831,-0.380,-0.150
5832,-0.375,-0.170
5833,-0.375,-0.175
5834,-0.390,-0.190
5835,-0.410,-0.185
5836,-0.415,-0.200
5837,-0.425,-0.190
5838,-0.435,-0.210
5839,-0.440,-0.230
5840,-0.445,-0.230
5841,-0.445,-0.215
5842,-0.410,-0.200
5843,-0.415,-0.170
5844,-0.420,-0.165
5845,-0.440,-0.160
5846,-0.470,-0.165
5847,-0.490,-0.160
5848,-0.485,-0.155
5849,-0.490,-0.155
5850,-0.505,-0.170
5851,-0.510,-0.185
5852,-0.525,-0.185
5853,-0.530,-0.190
5854,-0.555,-0.190
5855,-0.545,-0.195
5856,-0.550,-0.190
5857,-0.565,-0.200
5858,-0.560,-0.210
5859,-0.565,-0.215
5860,-0.560,-0.195
5861,-0.555,-0.200
5862,-0.555,-0.200
5863,-0.550,-0.210
5864,-0.570,-0.220
5865,-0.575,-0.210
5866,-0.560,-0.205
5867,-0.555,-0.190
5868,-0.560,-0.195
5869,-0.555,-0.215
5870,-0.570,-0.225
5871,-0.565,-0.210
5872,-0.555,-0.195
5873,-0.545,-0.195
5874,-0.555,-0.190
5875,-0.560,-0.200
5876,-0.575,-0.215
5877,-0.580,-0.200
5878,-0.585,-0.190
5879,-0.615,-0.190
5880,-0.675,-0.210
5881,-0.725,-0.230
5882,-0.725,-0.235
5883,-0.655,-0.195
5884,-0.565,-0.145
5885,-0.445,-0.100
5886,-0.205,-0.035
5887,0.135,0.085
5888,0.515,0.290
5889,0.890,0.535
5890,1.240,0.795
5891,1.495,1.050
5892,1.620,1.255
5893,1.600,1.340
5894,1.410,1.270
5895,0.990,1.030
5896,0.450,0.630
5897,-0.045,0.165
5898,-0.405,-0.260
5899,-0.615,-0.545
5900,-0.675,-0.645
5901,-0.665,-0.615
5902,-0.625,-0.505
5903,-0.535,-0.405
5904,-0.465,-0.295
5905,-0.450,-0.210
5906,-0.480,-0.175
5907,-0.515,-0.160
5908,-0.520,-0.170
5909,-0.520,-0.175
5910,-0.530,-0.190
5911,-0.540,-0.190
5912,-0.555,-0.200
5913,-0.570,-0.195
5914,-0.580,-0.200
5915,-0.575,-0.205
5916,-0.580,-0.195
5917,-0.595,-0.200
5918,-0.610,-0.220
5919,-0.635,-0.215
5920,-0.615,-0.205
5921,-0.600,-0.190
5922,-0.605,-0.200
5923,-0.610,-0.210
5924,-0.620,-0.215
5925,-0.620,-0.220
5926,-0.610,-0.200
5927,-0.600,-0.195
5928,-0.600,-0.190
5929,-0.610,-0.205
5930,-0.615,-0.205
5931,-0.610,-0.200
5932,-0.615,-0.195
5933,-0.600,-0.195
5934,-0.595,-0.195
5935,-0.605,-0.200
5936,-0.605,-0.210
5937,-0.605,-0.210
5938,-0.600,-0.185
5939,-0.590,-0.175
5940,-0.590,-0.175
5941,-0.590,-0.195
5942,-0.605,-0.205
5943,-0.595,-0.190
5944,-0.595,-0.180
5945,-0.575,-0.175
5946,-0.570,-0.175
5947,-0.565,-0.170
5948,-0.575,-0.180
5949,-0.570,-0.165
5950,-0.560,-0.165
5951,-0.540,-0.150
5952,-0.550,-0.150
5953,-0.545,-0.165
5954,-0.540,-0.175
5955,-0.545,-0.150
5956,-0.520,-0.135
5957,-0.520,-0.140
5958,-0.500,-0.125
5959,-0.500,-0.130
5960,-0.495,-0.140
5961,-0.490,-0.120
5962,-0.475,-0.100
5963,-0.450,-0.095
5964,-0.445,-0.090
5965,-0.420,-0.085
5966,-0.415,-0.080
5967,-0.415,-0.065
5968,-0.370,-0.045
5969,-0.350,-0.025
5970,-0.330,-0.020
5971,-0.330,-0.025
5972,-0.310,-0.020
5973,-0.300,-0.010
5974,-0.280,0.015
5975,-0.245,0.040
5976,-0.225,0.030
5977,-0.205,0.045
5978,-0.205,0.040
5979,-0.190,0.050
5980,-0.170,0.065
5981,-0.145,0.070
5982,-0.140,0.075
5983,-0.125,0.075
5984,-0.120,0.070
5985,-0.115,0.090
5986,-0.105,0.105
5987,-0.090,0.115
5988,-0.065,0.115
5989,-0.075,0.125
5990,-0.070,0.120
5991,-0.065,0.130
5992,-0.060,0.145
5993,-0.050,0.140
5994,-0.045,0.140
5995,-0.060,0.130
5996,-0.080,0.135
5997,-0.080,0.135
5998,-0.095,0.135
5999,-0.085,0.115
6000,-0.095,0.115
6001,-0.125,0.085
6002,-0.150,0.070
6003,-0.175,0.060
6004,-0.180,0.050
6005,-0.200,0.055
6006,-0.220,0.035
6007,-0.240,0.005
6008,-0.270,-0.010
6009,-0.310,-0.025
6010,-0.330,-0.035
6011,-0.335,-0.050
6012,-0.360,-0.065
6013,-0.370,-0.080
6014,-0.385,-0.110
6015,-0.425,-0.125
6016,-0.430,-0.120
6017,-0.415,-0.140
6018,-0.425,-0.145
6019,-0.455,-0.155
6020,-0.465,-0.165
6021,-0.470,-0.180
6022,-0.475,-0.175
6023,-0.470,-0.185
6024,-0.465,-0.185
6025,-0.470,-0.195
6026,-0.485,-0.210
6027,-0.505,-0.205
6028,-0.495,-0.200
6029,-0.495,-0.185
6030,-0.485,-0.190
6031,-0.490,-0.205
6032,-0.495,-0.215
6033,-0.500,-0.215
6034,-0.490,-0.205
6035,-0.490,-0.205
6036,-0.490,-0.200
6037,-0.480,-0.220
6038,-0.505,-0.220
6039,-0.490,-0.210
6040,-0.490,-0.200
6041,-0.475,-0.205
6042,-0.485,-0.210
6043,-0.475,-0.220
6044,-0.480,-0.215
6045,-0.510,-0.205
6046,-0.485,-0.195
6047,-0.475,-0.190
6048,-0.470,-0.190
6049,-0.470,-0.195
6050,-0.470,-0.200
6051,-0.475,-0.205
6052,-0.460,-0.195
6053,-0.455,-0.175
6054,-0.445,-0.180
6055,-0.445,-0.190
6056,-0.450,-0.200
6057,-0.455,-0.180
6058,-0.440,-0.180
6059,-0.435,-0.175
6060,-0.430,-0.170
6061,-0.445,-0.185
6062,-0.440,-0.180
6063,-0.445,-0.175
6064,-0.435,-0.175
6065,-0.435,-0.180
6066,-0.430,-0.170
6067,-0.440,-0.185
6068,-0.445,-0.185
6069,-0.445,-0.190
6070,-0.440,-0.175
6071,-0.430,-0.180
6072,-0.435,-0.185
6073,-0.450,-0.195
6074,-0.460,-0.210
6075,-0.450,-0.200
6076,-0.460,-0.200
6077,-0.445,-0.195
6078,-0.450,-0.195
6079,-0.460,-0.200
6080,-0.460,-0.205
6081,-0.465,-0.210
6082,-0.460,-0.210
6083,-0.455,-0.200
6084,-0.470,-0.210
6085,-0.475,-0.215
6086,-0.480,-0.230
6087,-0.495,-0.230
6088,-0.490,-0.220
6089,-0.475,-0.215
6090,-0.475,-0.240
6091,-0.490,-0.250
6092,-0.505,-0.250
6093,-0.515,-0.240
6094,-0.510,-0.235
6095,-0.500,-0.235
6096,-0.495,-0.240
6097,-0.505,-0.260
6098,-0.515,-0.260
6099,-0.520,-0.260
6100,-0.515,-0.255
6101,-0.500,-0.245
6102,-0.510,-0.250
6103,-0.515,-0.270
6104,-0.525,-0.270
6105,-0.520,-0.265
6106,-0.525,-0.270
6107,-0.515,-0.260
6108,-0.515,-0.255
6109,-0.520,-0.270
6110,-0.530,-0.270
6111,-0.535,-0.275
6112,-0.545,-0.265
6113,-0.530,-0.270
6114,-0.530,-0.275
6115,-0.545,-0.285
6116,-0.545,-0.295
6117,-0.550,-0.290
6118,-0.540,-0.260
6119,-0.540,-0.275
6120,-0.540,-0.265
6121,-0.545,-0.275
6122,-0.550,-0.295
6123,-0.545,-0.285
6124,-0.545,-0.280
6125,-0.540,-0.275
6126,-0.545,-0.285
6127,-0.545,-0.295
6128,-0.550,-0.300
6129,-0.565,-0.290
6130,-0.555,-0.280
6131,-0.550,-0.285
6132,-0.550,-0.280
6133,-0.545,-0.295
6134,-0.555,-0.300
6135,-0.545,-0.310
6136,-0.545,-0.280
6137,-0.525,-0.280
6138,-0.530,-0.280
6139,-0.525,-0.295
6140,-0.520,-0.300
6141,-0.515,-0.295
6142,-0.485,-0.280
6143,-0.460,-0.280
6144,-0.460,-0.270
6145,-0.465,-0.265
6146,-0.465,-0.270
6147,-0.475,-0.275
6148,-0.460,-0.260
6149,-0.440,-0.260
6150,-0.435,-0.260
6151,-0.435,-0.270
6152,-0.440,-0.285
6153,-0.450,-0.285
6154,-0.440,-0.260
6155,-0.425,-0.260
6156,-0.415,-0.275
6157,-0.420,-0.275
6158,-0.440,-0.295
6159,-0.450,-0.295
6160,-0.460,-0.295
6161,-0.460,-0.295
6162,-0.485,-0.315
6163,-0.485,-0.320
6164,-0.485,-0.335
6165,-0.475,-0.335
6166,-0.465,-0.315
6167,-0.465,-0.290
6168,-0.475,-0.270
6169,-0.500,-0.260
6170,-0.515,-0.280
6171,-0.530,-0.280
6172,-0.520,-0.265
6173,-0.525,-0.265
6174,-0.540,-0.270
6175,-0.555,-0.285
6176,-0.570,-0.305
6177,-0.580,-0.300
6178,-0.585,-0.295
6179,-0.580,-0.285
6180,-0.595,-0.285
6181,-0.600,-0.300
6182,-0.610,-0.295
6183,-0.610,-0.310
6184,-0.600,-0.290
6185,-0.600,-0.285
6186,-0.595,-0.285
6187,-0.605,-0.290
6188,-0.615,-0.305
6189,-0.620,-0.280
6190,-0.610,-0.285
6191,-0.600,-0.280
6192,-0.615,-0.285
6193,-0.625,-0.295
6194,-0.615,-0.305
6195,-0.610,-0.295
6196,-0.605,-0.280
6197,-0.580,-0.280
6198,-0.590,-0.270
6199,-0.590,-0.285
6200,-0.590,-0.300
6201,-0.600,-0.295
6202,-0.610,-0.270
6203,-0.635,-0.260
6204,-0.690,-0.285
6205,-0.735,-0.315
6206,-0.760,-0.325
6207,-0.730,-0.295
6208,-0.660,-0.265
6209,-0.560,-0.215
6210,-0.400,-0.170
6211,-0.100,-0.085
6212,0.265,0.075
6213,0.655,0.310
6214,1.030,0.570
6215,1.365,0.835
6216,1.600,1.080
6217,1.685,1.235
6218,1.595,1.240
6219,1.245,1.085
6220,0.725,0.765
6221,0.170,0.330
6222,-0.275,-0.125
6223,-0.565,-0.470
6224,-0.655,-0.650
6225,-0.695,-0.685
6226,-0.680,-0.625
6227,-0.645,-0.545
6228,-0.560,-0.455
6229,-0.495,-0.360
6230,-0.485,-0.290
6231,-0.515,-0.240
6232,-0.540,-0.225
6233,-0.545,-0.225
6234,-0.550,-0.255
6235,-0.550,-0.265
6236,-0.555,-0.270
6237,-0.570,-0.260
6238,-0.590,-0.245
6239,-0.580,-0.235
6240,-0.595,-0.255
6241,-0.600,-0.265
6242,-0.610,-0.270
6243,-0.625,-0.270
6244,-0.600,-0.260
6245,-0.605,-0.265
6246,-0.605,-0.250
6247,-0.615,-0.265
6248,-0.620,-0.260
6249,-0.630,-0.260
6250,-0.620,-0.255
6251,-0.605,-0.245
6252,-0.610,-0.250
6253,-0.610,-0.260
6254,-0.625,-0.265
6255,-0.630,-0.260
6256,-0.620,-0.240
6257,-0.615,-0.245
6258,-0.620,-0.245
6259,-0.620,-0.245
6260,-0.620,-0.260
6261,-0.630,-0.260
6262,-0.625,-0.235
6263,-0.610,-0.230
6264,-0.600,-0.240
6265,-0.615,-0.255
6266,-0.615,-0.245
6267,-0.605,-0.250
6268,-0.600,-0.240
6269,-0.585,-0.230
6270,-0.585,-0.220
6271,-0.590,-0.225
6272,-0.590,-0.230
6273,-0.590,-0.220
6274,-0.580,-0.210
6275,-0.575,-0.205
6276,-0.565,-0.200
6277,-0.560,-0.205
6278,-0.565,-0.205
6279,-0.560,-0.190
6280,-0.550,-0.180
6281,-0.520,-0.170
6282,-0.515,-0.170
6283,-0.525,-0.175
6284,-0.525,-0.185
6285,-0.510,-0.155
6286,-0.485,-0.145
6287,-0.465,-0.145
6288,-0.450,-0.145
6289,-0.445,-0.130
6290,-0.440,-0.135
6291,-0.430,-0.100
6292,-0.400,-0.090
6293,-0.385,-0.075
6294,-0.380,-0.075
6295,-0.365,-0.070
6296,-0.340,-0.070
6297,-0.325,-0.050
6298,-0.305,-0.030
6299,-0.275,-0.010
6300,-0.265,0.005
6301,-0.245,0.000
6302,-0.235,0.010
6303,-0.220,0.030
6304,-0.185,0.055
6305,-0.170,0.055
6306,-0.165,0.070
6307,-0.155,0.060
6308,-0.150,0.065
6309,-0.140,0.090
6310,-0.125,0.105
6311,-0.100,0.115
6312,-0.095,0.115
6313,-0.085,0.110
6314,-0.080,0.100
6315,-0.085,0.120
6316,-0.070,0.130
6317,-0.055,0.145
6318,-0.045,0.145
6319,-0.050,0.125
6320,-0.055,0.130
6321,-0.075,0.140
6322,-0.065,0.130
6323,-0.070,0.140
6324,-0.080,0.135
6325,-0.095,0.115
6326,-0.120,0.090
6327,-0.140,0.095
6328,-0.140,0.095
6329,-0.155,0.080
6330,-0.170,0.065
6331,-0.205,0.040
6332,-0.235,0.020
6333,-0.260,0.010
6334,-0.275,0.025
6335,-0.300,-0.010
6336,-0.315,-0.025
6337,-0.345,-0.055
6338,-0.360,-0.075
6339,-0.380,-0.090
6340,-0.395,-0.100
6341,-0.385,-0.105
6342,-0.415,-0.120
6343,-0.425,-0.135
6344,-0.440,-0.140
6345,-0.455,-0.145
6346,-0.450,-0.145
6347,-0.440,-0.145
6348,-0.455,-0.160
6349,-0.465,-0.165
6350,-0.475,-0.195
6351,-0.480,-0.190
6352,-0.470,-0.185
6353,-0.470,-0.180
6354,-0.475,-0.185
6355,-0.480,-0.200
6356,-0.485,-0.205
6357,-0.485,-0.205
6358,-0.470,-0.195
6359,-0.470,-0.195
6360,-0.470,-0.180
6361,-0.475,-0.200
6362,-0.485,-0.195
6363,-0.480,-0.190
6364,-0.475,-0.180
6365,-0.465,-0.185
6366,-0.460,-0.185
6367,-0.465,-0.190
6368,-0.480,-0.200
6369,-0.485,-0.190
6370,-0.470,-0.180
6371,-0.455,-0.180
6372,-0.445,-0.185
6373,-0.455,-0.190
6374,-0.465,-0.195
6375,-0.460,-0.190
6376,-0.455,-0.160
6377,-0.435,-0.160
6378,-0.440,-0.155
6379,-0.440,-0.170
6380,-0.450,-0.170
6381,-0.450,-0.175
6382,-0.440,-0.160
6383,-0.440,-0.160
6384,-0.440,-0.165
6385,-0.450,-0.165
6386,-0.445,-0.170
6387,-0.445,-0.170
6388,-0.430,-0.145
6389,-0.430,-0.155
6390,-0.420,-0.160
6391,-0.425,-0.160
6392,-0.425,-0.165
6393,-0.435,-0.145
6394,-0.420,-0.140
6395,-0.425,-0.130
6396,-0.430,-0.145
6397,-0.435,-0.140
6398,-0.435,-0.150
6399,-0.440,-0.160
6400,-0.435,-0.145
6401,-0.420,-0.135
6402,-0.415,-0.135
6403,-0.435,-0.155
6404,-0.440,-0.150
6405,-0.445,-0.160
6406,-0.445,-0.140
6407,-0.445,-0.140
6408,-0.445,-0.140
6409,-0.445,-0.150
6410,-0.460,-0.170
6411,-0.470,-0.155
6412,-0.460,-0.160
6413,-0.455,-0.155
6414,-0.460,-0.170
6415,-0.465,-0.180
6416,-0.475,-0.195
6417,-0.480,-0.185
6418,-0.465,-0.170
6419,-0.460,-0.160
6420,-0.470,-0.165
6421,-0.480,-0.180
6422,-0.480,-0.195
6423,-0.495,-0.190
6424,-0.480,-0.180
6425,-0.475,-0.185
6426,-0.475,-0.185
6427,-0.495,-0.200
6428,-0.495,-0.200
6429,-0.505,-0.205
6430,-0.505,-0.190
6431,-0.500,-0.200
6432,-0.500,-0.205
6433,-0.505,-0.210
6434,-0.510,-0.225
6435,-0.505,-0.220
6436,-0.500,-0.200
6437,-0.500,-0.205
6438,-0.485,-0.200
6439,-0.505,-0.210
6440,-0.520,-0.220
6441,-0.525,-0.210
6442,-0.510,-0.205
6443,-0.505,-0.210
6444,-0.510,-0.215
6445,-0.510,-0.220
6446,-0.525,-0.220
6447,-0.530,-0.220
6448,-0.520,-0.210
6449,-0.510,-0.215
6450,-0.505,-0.215
6451,-0.505,-0.225
6452,-0.515,-0.235
6453,-0.515,-0.235
6454,-0.505,-0.215
6455,-0.515,-0.210
6456,-0.510,-0.215
6457,-0.515,-0.220
6458,-0.515,-0.220
6459,-0.525,-0.205
6460,-0.505,-0.210
6461,-0.490,-0.200
6462,-0.500,-0.215
6463,-0.505,-0.215
6464,-0.500,-0.220
6465,-0.510,-0.220
6466,-0.500,-0.210
6467,-0.490,-0.215
6468,-0.475,-0.215
6469,-0.470,-0.220
6470,-0.480,-0.210
6471,-0.475,-0.210
6472,-0.455,-0.220
6473,-0.435,-0.205
6474,-0.440,-0.205
6475,-0.425,-0.210
6476,-0.420,-0.215
6477,-0.435,-0.205
6478,-0.415,-0.190
6479,-0.400,-0.180
6480,-0.405,-0.175
6481,-0.390,-0.200
6482,-0.390,-0.210
6483,-0.390,-0.195
6484,-0.390,-0.185
6485,-0.390,-0.185
6486,-0.385,-0.200
6487,-0.385,-0.200
6488,-0.390,-0.220
6489,-0.405,-0.220
6490,-0.395,-0.220
6491,-0.395,-0.205
6492,-0.410,-0.220
6493,-0.420,-0.225
6494,-0.435,-0.240
6495,-0.440,-0.245
6496,-0.440,-0.240
6497,-0.410,-0.240
6498,-0.405,-0.235
6499,-0.395,-0.235
6500,-0.415,-0.215
6501,-0.415,-0.190
6502,-0.435,-0.165
6503,-0.435,-0.165
6504,-0.445,-0.175
6505,-0.460,-0.180
6506,-0.480,-0.200
6507,-0.505,-0.195
6508,-0.505,-0.185
6509,-0.500,-0.190
6510,-0.505,-0.190
6511,-0.500,-0.200
6512,-0.520,-0.205
6513,-0.530,-0.195
6514,-0.530,-0.195
6515,-0.525,-0.195
6516,-0.525,-0.215
6517,-0.540,-0.215
6518,-0.545,-0.225
6519,-0.550,-0.210
6520,-0.535,-0.185
6521,-0.530,-0.200
6522,-0.530,-0.195
6523,-0.530,-0.205
6524,-0.540,-0.205
6525,-0.545,-0.195
6526,-0.545,-0.195
6527,-0.525,-0.185
6528,-0.530,-0.180
6529,-0.535,-0.195
6530,-0.535,-0.205
6531,-0.545,-0.190
6532,-0.525,-0.180
6533,-0.515,-0.175
