'sample interval','MLII','V1'
'0.00277778 sec','mV','mV'
0,-0.460,0.130
1,-0.460,0.130
2,-0.460,0.130
3,-0.460,0.130
4,-0.460,0.130
5,-0.460,0.130
6,-0.460,0.130
7,-0.460,0.130
8,-0.455,0.130
9,-0.455,0.140
10,-0.440,0.140
11,-0.435,0.145
12,-0.430,0.125
13,-0.445,0.120
14,-0.440,0.115
15,-0.435,0.130
16,-0.425,0.140
17,-0.415,0.145
18,-0.430,0.140
19,-0.435,0.125
20,-0.470,0.120
21,-0.455,0.130
22,-0.415,0.135
23,-0.425,0.130
24,-0.440,0.115
25,-0.445,0.110
26,-0.435,0.110
27,-0.435,0.140
28,-0.425,0.150
29,-0.420,0.140
30,-0.430,0.125
31,-0.440,0.125
32,-0.460,0.125
33,-0.435,0.125
34,-0.435,0.145
35,-0.415,0.140
36,-0.425,0.135
37,-0.435,0.120
38,-0.435,0.120
39,-0.435,0.130
40,-0.415,0.140
41,-0.410,0.140
42,-0.430,0.110
43,-0.435,0.110
44,-0.450,0.110
45,-0.430,0.115
46,-0.405,0.120
47,-0.410,0.125
48,-0.415,0.120
49,-0.425,0.105
50,-0.440,0.110
51,-0.430,0.115
52,-0.415,0.130
53,-0.415,0.125
54,-0.415,0.115
55,-0.435,0.100
56,-0.435,0.105
57,-0.430,0.115
58,-0.415,0.135
59,-0.405,0.125
60,-0.410,0.110
61,-0.440,0.110
62,-0.440,0.105
63,-0.425,0.115
64,-0.410,0.125
65,-0.410,0.125
66,-0.415,0.110
67,-0.425,0.085
68,-0.435,0.095
69,-0.430,0.105
70,-0.420,0.125
71,-0.400,0.120
72,-0.410,0.110
73,-0.425,0.090
74,-0.430,0.100
75,-0.430,0.110
76,-0.410,0.125
77,-0.405,0.110
78,-0.405,0.105
79,-0.415,0.100
80,-0.430,0.095
81,-0.435,0.110
82,-0.425,0.135
83,-0.395,0.125
84,-0.400,0.105
85,-0.405,0.100
86,-0.415,0.105
87,-0.410,0.115
88,-0.405,0.120
89,-0.395,0.130
90,-0.405,0.100
91,-0.415,0.100
92,-0.415,0.095
93,-0.415,0.110
94,-0.395,0.125
95,-0.395,0.115
96,-0.390,0.100
97,-0.400,0.095
98,-0.405,0.100
99,-0.400,0.110
100,-0.400,0.130
101,-0.385,0.130
102,-0.385,0.120
103,-0.405,0.115
104,-0.400,0.115
105,-0.385,0.135
106,-0.370,0.150
107,-0.345,0.160
108,-0.355,0.135
109,-0.355,0.130
110,-0.355,0.125
111,-0.340,0.145
112,-0.320,0.145
113,-0.295,0.140
114,-0.305,0.115
115,-0.320,0.085
116,-0.320,0.085
117,-0.310,0.095
118,-0.280,0.095
119,-0.275,0.080
120,-0.285,0.075
121,-0.300,0.070
122,-0.305,0.075
123,-0.305,0.090
124,-0.290,0.095
125,-0.275,0.100
126,-0.285,0.090
127,-0.305,0.075
128,-0.325,0.090
129,-0.320,0.105
130,-0.335,0.105
131,-0.335,0.095
132,-0.360,0.080
133,-0.365,0.070
134,-0.365,0.070
135,-0.360,0.090
136,-0.350,0.105
137,-0.355,0.090
138,-0.370,0.085
139,-0.355,0.075
140,-0.370,0.080
141,-0.355,0.100
142,-0.355,0.115
143,-0.355,0.110
144,-0.350,0.090
145,-0.355,0.080
146,-0.360,0.080
147,-0.360,0.095
148,-0.350,0.125
149,-0.335,0.115
150,-0.330,0.095
151,-0.335,0.090
152,-0.345,0.110
153,-0.330,0.145
154,-0.310,0.175
155,-0.310,0.210
156,-0.305,0.250
157,-0.335,0.275
158,-0.375,0.270
159,-0.400,0.290
160,-0.415,0.280
161,-0.420,0.225
162,-0.390,0.145
163,-0.350,0.035
164,-0.200,-0.075
165,0.090,-0.170
166,0.490,-0.230
167,0.960,-0.295
168,1.390,-0.295
169,1.755,-0.265
170,1.990,-0.185
171,2.090,-0.065
172,2.050,-0.005
173,1.720,0.040
174,1.080,0.030
175,0.440,0.005
176,-0.200,0.015
177,-0.640,0.050
178,-0.595,0.085
179,-0.490,0.105
180,-0.460,0.100
181,-0.495,0.090
182,-0.515,0.085
183,-0.500,0.100
184,-0.465,0.105
185,-0.440,0.125
186,-0.430,0.115
187,-0.375,0.105
188,-0.345,0.110
189,-0.305,0.130
190,-0.290,0.140
191,-0.250,0.130
192,-0.250,0.115
193,-0.270,0.110
194,-0.285,0.110
195,-0.280,0.120
196,-0.255,0.120
197,-0.235,0.120
198,-0.255,0.110
199,-0.260,0.100
200,-0.255,0.105
201,-0.250,0.125
202,-0.245,0.135
203,-0.230,0.130
204,-0.230,0.110
205,-0.250,0.115
206,-0.260,0.115
207,-0.250,0.120
208,-0.225,0.130
209,-0.215,0.130
210,-0.220,0.125
211,-0.240,0.100
212,-0.235,0.105
213,-0.235,0.110
214,-0.210,0.130
215,-0.195,0.110
216,-0.200,0.105
217,-0.215,0.100
218,-0.215,0.110
219,-0.210,0.115
220,-0.195,0.125
221,-0.195,0.115
222,-0.210,0.110
223,-0.220,0.105
224,-0.215,0.105
225,-0.195,0.115
226,-0.175,0.130
227,-0.165,0.120
228,-0.185,0.105
229,-0.190,0.115
230,-0.195,0.105
231,-0.195,0.105
232,-0.175,0.130
233,-0.170,0.130
234,-0.160,0.110
235,-0.170,0.095
236,-0.190,0.105
237,-0.175,0.125
238,-0.150,0.140
239,-0.135,0.125
240,-0.140,0.115
241,-0.135,0.110
242,-0.145,0.110
243,-0.130,0.115
244,-0.115,0.130
245,-0.105,0.115
246,-0.100,0.115
247,-0.100,0.105
248,-0.115,0.105
249,-0.095,0.115
250,-0.060,0.135
251,-0.050,0.115
252,-0.055,0.115
253,-0.050,0.090
254,-0.050,0.095
255,-0.030,0.120
256,-0.010,0.110
257,0.000,0.130
258,0.015,0.110
259,-0.005,0.095
260,0.025,0.095
261,0.035,0.105
262,0.060,0.100
263,0.085,0.100
264,0.105,0.095
265,0.100,0.080
266,0.110,0.090
267,0.130,0.105
268,0.170,0.105
269,0.205,0.110
270,0.215,0.090
271,0.235,0.085
272,0.250,0.090
273,0.285,0.095
274,0.305,0.110
275,0.345,0.105
276,0.360,0.090
277,0.380,0.070
278,0.395,0.075
279,0.435,0.090
280,0.460,0.095
281,0.495,0.085
282,0.515,0.085
283,0.535,0.065
284,0.540,0.070
285,0.580,0.070
286,0.625,0.080
287,0.655,0.070
288,0.670,0.050
289,0.690,0.055
290,0.700,0.060
291,0.730,0.080
292,0.750,0.080
293,0.785,0.085
294,0.805,0.070
295,0.800,0.070
296,0.795,0.060
297,0.805,0.090
298,0.810,0.095
299,0.790,0.095
300,0.760,0.095
301,0.720,0.075
302,0.675,0.085
303,0.630,0.090
304,0.580,0.110
305,0.550,0.105
306,0.480,0.110
307,0.420,0.095
308,0.335,0.105
309,0.285,0.120
310,0.230,0.130
311,0.170,0.135
312,0.105,0.110
313,0.040,0.100
314,-0.040,0.095
315,-0.075,0.105
316,-0.100,0.115
317,-0.135,0.105
318,-0.180,0.115
319,-0.230,0.105
320,-0.260,0.100
321,-0.275,0.115
322,-0.280,0.120
323,-0.270,0.115
324,-0.295,0.105
325,-0.325,0.095
326,-0.355,0.095
327,-0.350,0.105
328,-0.350,0.115
329,-0.350,0.120
330,-0.370,0.115
331,-0.390,0.095
332,-0.395,0.100
333,-0.390,0.110
334,-0.380,0.110
335,-0.385,0.120
336,-0.380,0.100
337,-0.410,0.110
338,-0.410,0.100
339,-0.415,0.130
340,-0.410,0.125
341,-0.390,0.115
342,-0.395,0.120
343,-0.410,0.100
344,-0.425,0.105
345,-0.415,0.120
346,-0.400,0.135
347,-0.385,0.120
348,-0.395,0.120
349,-0.410,0.110
350,-0.420,0.095
351,-0.405,0.115
352,-0.400,0.135
353,-0.390,0.130
354,-0.400,0.115
355,-0.405,0.105
356,-0.425,0.115
357,-0.430,0.120
358,-0.395,0.140
359,-0.395,0.135
360,-0.400,0.120
361,-0.425,0.115
362,-0.420,0.110
363,-0.425,0.130
364,-0.400,0.145
365,-0.395,0.130
366,-0.395,0.130
367,-0.405,0.120
368,-0.420,0.120
369,-0.420,0.135
370,-0.420,0.150
371,-0.405,0.130
372,-0.410,0.125
373,-0.410,0.115
374,-0.430,0.115
375,-0.420,0.135
376,-0.405,0.140
377,-0.400,0.140
378,-0.420,0.125
379,-0.425,0.120
380,-0.435,0.130
381,-0.430,0.140
382,-0.420,0.135
383,-0.400,0.150
384,-0.410,0.140
385,-0.440,0.130
386,-0.440,0.130
387,-0.430,0.145
388,-0.420,0.150
389,-0.430,0.150
390,-0.440,0.140
391,-0.455,0.120
392,-0.455,0.125
393,-0.455,0.135
394,-0.435,0.155
395,-0.425,0.150
396,-0.440,0.130
397,-0.455,0.125
398,-0.465,0.135
399,-0.455,0.150
400,-0.445,0.165
401,-0.430,0.155
402,-0.455,0.135
403,-0.470,0.130
404,-0.470,0.140
405,-0.465,0.155
406,-0.460,0.160
407,-0.450,0.150
408,-0.460,0.145
409,-0.455,0.140
410,-0.465,0.135
411,-0.460,0.155
412,-0.460,0.175
413,-0.450,0.165
414,-0.455,0.155
415,-0.470,0.150
416,-0.480,0.145
417,-0.480,0.160
418,-0.460,0.165
419,-0.450,0.175
420,-0.450,0.155
421,-0.465,0.150
422,-0.470,0.155
423,-0.470,0.175
424,-0.455,0.185
425,-0.440,0.190
426,-0.450,0.165
427,-0.460,0.155
428,-0.470,0.160
429,-0.460,0.170
430,-0.455,0.175
431,-0.460,0.175
432,-0.450,0.180
433,-0.465,0.155
434,-0.480,0.170
435,-0.465,0.185
436,-0.445,0.195
437,-0.445,0.195
438,-0.455,0.185
439,-0.475,0.170
440,-0.465,0.185
441,-0.470,0.195
442,-0.445,0.210
443,-0.450,0.195
444,-0.455,0.190
445,-0.465,0.190
446,-0.475,0.185
447,-0.450,0.210
448,-0.455,0.215
449,-0.435,0.210
450,-0.455,0.205
451,-0.475,0.200
452,-0.470,0.215
453,-0.460,0.210
454,-0.460,0.230
455,-0.450,0.225
456,-0.440,0.220
457,-0.470,0.210
458,-0.450,0.205
459,-0.455,0.225
460,-0.435,0.240
461,-0.430,0.240
462,-0.430,0.230
463,-0.445,0.215
464,-0.445,0.230
465,-0.455,0.230
466,-0.430,0.250
467,-0.420,0.255
468,-0.425,0.240
469,-0.450,0.220
470,-0.445,0.230
471,-0.445,0.250
472,-0.425,0.255
473,-0.425,0.265
474,-0.445,0.245
475,-0.430,0.235
476,-0.460,0.250
477,-0.435,0.260
478,-0.440,0.270
479,-0.430,0.270
480,-0.435,0.255
481,-0.445,0.245
482,-0.445,0.265
483,-0.435,0.260
484,-0.435,0.280
485,-0.430,0.275
486,-0.425,0.265
487,-0.450,0.260
488,-0.445,0.260
489,-0.430,0.280
490,-0.425,0.285
491,-0.420,0.290
492,-0.425,0.280
493,-0.435,0.270
494,-0.435,0.270
495,-0.435,0.290
496,-0.420,0.300
497,-0.405,0.300
498,-0.425,0.295
499,-0.435,0.280
500,-0.440,0.275
501,-0.425,0.300
502,-0.410,0.315
503,-0.400,0.295
504,-0.400,0.300
505,-0.415,0.285
506,-0.425,0.310
507,-0.420,0.315
508,-0.405,0.325
509,-0.400,0.325
510,-0.415,0.325
511,-0.415,0.310
512,-0.420,0.315
513,-0.420,0.315
514,-0.405,0.345
515,-0.390,0.350
516,-0.405,0.345
517,-0.415,0.350
518,-0.405,0.355
519,-0.405,0.380
520,-0.380,0.390
521,-0.360,0.390
522,-0.355,0.370
523,-0.360,0.355
524,-0.360,0.355
525,-0.335,0.365
526,-0.335,0.375
527,-0.325,0.360
528,-0.325,0.345
529,-0.320,0.315
530,-0.315,0.320
531,-0.310,0.325
532,-0.305,0.345
533,-0.305,0.350
534,-0.305,0.345
535,-0.325,0.345
536,-0.345,0.355
537,-0.330,0.365
538,-0.310,0.380
539,-0.315,0.370
540,-0.330,0.365
541,-0.350,0.370
542,-0.375,0.385
543,-0.370,0.390
544,-0.375,0.390
545,-0.370,0.380
546,-0.365,0.365
547,-0.375,0.375
548,-0.395,0.370
549,-0.385,0.385
550,-0.370,0.410
551,-0.350,0.400
552,-0.365,0.385
553,-0.375,0.395
554,-0.385,0.395
555,-0.360,0.405
556,-0.365,0.415
557,-0.360,0.405
558,-0.350,0.405
559,-0.365,0.400
560,-0.365,0.410
561,-0.355,0.430
562,-0.345,0.440
563,-0.330,0.445
564,-0.325,0.450
565,-0.335,0.460
566,-0.335,0.490
567,-0.325,0.535
568,-0.330,0.595
569,-0.325,0.625
570,-0.355,0.640
571,-0.395,0.640
572,-0.435,0.625
573,-0.455,0.595
574,-0.430,0.540
575,-0.360,0.440
576,-0.240,0.330
577,0.000,0.210
578,0.360,0.115
579,0.850,0.060
580,1.340,0.070
581,1.730,0.105
582,2.000,0.180
583,2.110,0.265
584,2.015,0.350
585,1.705,0.415
586,1.065,0.430
587,0.425,0.415
588,-0.215,0.405
589,-0.660,0.440
590,-0.605,0.470
591,-0.495,0.500
592,-0.450,0.530
593,-0.465,0.520
594,-0.500,0.500
595,-0.495,0.505
596,-0.480,0.510
597,-0.440,0.540
598,-0.380,0.550
599,-0.315,0.550
600,-0.285,0.530
601,-0.270,0.535
602,-0.265,0.530
603,-0.260,0.545
604,-0.240,0.565
605,-0.240,0.560
606,-0.235,0.550
607,-0.270,0.550
608,-0.255,0.560
609,-0.255,0.560
610,-0.240,0.580
611,-0.225,0.570
612,-0.220,0.560
613,-0.235,0.550
614,-0.235,0.550
615,-0.230,0.580
616,-0.205,0.585
617,-0.210,0.580
618,-0.200,0.570
619,-0.215,0.565
620,-0.230,0.570
621,-0.215,0.580
622,-0.200,0.595
623,-0.200,0.590
624,-0.200,0.585
625,-0.210,0.570
626,-0.190,0.590
627,-0.190,0.590
628,-0.185,0.625
629,-0.170,0.605
630,-0.160,0.590
631,-0.175,0.590
632,-0.180,0.575
633,-0.155,0.600
634,-0.145,0.620
635,-0.140,0.610
636,-0.140,0.615
637,-0.165,0.600
638,-0.150,0.605
639,-0.165,0.615
640,-0.140,0.625
641,-0.130,0.630
642,-0.125,0.605
643,-0.140,0.605
644,-0.145,0.615
645,-0.135,0.630
646,-0.130,0.645
647,-0.110,0.635
648,-0.110,0.605
649,-0.105,0.600
650,-0.100,0.605
651,-0.100,0.630
652,-0.070,0.640
653,-0.050,0.635
654,-0.045,0.625
655,-0.055,0.615
656,-0.060,0.620
657,-0.035,0.645
658,-0.020,0.655
659,0.005,0.655
660,0.010,0.635
661,0.005,0.625
662,0.005,0.635
663,0.015,0.650
664,0.055,0.665
665,0.055,0.650
666,0.075,0.640
667,0.080,0.620
668,0.090,0.635
669,0.120,0.655
670,0.135,0.660
671,0.175,0.650
672,0.185,0.645
673,0.190,0.630
674,0.190,0.640
675,0.210,0.655
676,0.255,0.650
677,0.275,0.650
678,0.310,0.640
679,0.315,0.640
680,0.340,0.625
681,0.370,0.645
682,0.415,0.660
683,0.450,0.655
684,0.475,0.645
685,0.505,0.635
686,0.525,0.640
687,0.550,0.650
688,0.605,0.655
689,0.640,0.645
690,0.665,0.640
691,0.680,0.630
692,0.690,0.635
693,0.720,0.650
694,0.770,0.650
695,0.795,0.655
696,0.805,0.645
697,0.825,0.640
698,0.840,0.635
699,0.855,0.650
700,0.880,0.675
701,0.895,0.675
702,0.860,0.670
703,0.835,0.665
704,0.820,0.665
705,0.790,0.675
706,0.760,0.690
707,0.725,0.705
708,0.665,0.690
709,0.595,0.680
710,0.515,0.695
711,0.455,0.700
712,0.395,0.710
713,0.340,0.700
714,0.280,0.700
715,0.205,0.690
716,0.125,0.695
717,0.085,0.705
718,0.050,0.715
719,0.005,0.725
720,-0.065,0.710
721,-0.105,0.705
722,-0.135,0.695
723,-0.155,0.720
724,-0.170,0.720
725,-0.175,0.720
726,-0.210,0.715
727,-0.240,0.705
728,-0.255,0.710
729,-0.255,0.720
730,-0.255,0.735
731,-0.265,0.725
732,-0.280,0.720
733,-0.300,0.695
734,-0.305,0.710
735,-0.290,0.725
736,-0.285,0.720
737,-0.290,0.725
738,-0.305,0.720
739,-0.305,0.725
740,-0.335,0.710
741,-0.320,0.715
742,-0.305,0.740
743,-0.300,0.730
744,-0.290,0.720
745,-0.315,0.715
746,-0.315,0.715
747,-0.315,0.720
748,-0.305,0.745
749,-0.295,0.730
750,-0.305,0.710
751,-0.310,0.710
752,-0.315,0.725
753,-0.310,0.730
754,-0.295,0.755
755,-0.290,0.755
756,-0.300,0.725
757,-0.305,0.715
758,-0.305,0.720
759,-0.310,0.730
760,-0.290,0.740
761,-0.275,0.740
762,-0.290,0.720
763,-0.305,0.720
764,-0.310,0.730
765,-0.290,0.730
766,-0.270,0.760
767,-0.275,0.745
768,-0.285,0.730
769,-0.295,0.730
770,-0.305,0.710
771,-0.290,0.750
772,-0.280,0.760
773,-0.275,0.755
774,-0.280,0.735
775,-0.305,0.725
776,-0.305,0.720
777,-0.290,0.725
778,-0.300,0.740
779,-0.280,0.745
780,-0.285,0.735
781,-0.295,0.725
782,-0.300,0.725
783,-0.290,0.720
784,-0.290,0.735
785,-0.270,0.720
786,-0.295,0.715
787,-0.310,0.705
788,-0.320,0.710
789,-0.310,0.725
790,-0.295,0.745
791,-0.275,0.745
792,-0.290,0.735
793,-0.300,0.725
794,-0.325,0.720
795,-0.310,0.720
796,-0.305,0.740
797,-0.295,0.725
798,-0.295,0.720
799,-0.310,0.700
800,-0.315,0.720
801,-0.315,0.725
802,-0.295,0.735
803,-0.290,0.715
804,-0.295,0.720
805,-0.310,0.715
806,-0.320,0.715
807,-0.325,0.725
808,-0.300,0.730
809,-0.300,0.730
810,-0.300,0.720
811,-0.310,0.705
812,-0.320,0.715
813,-0.305,0.720
814,-0.305,0.730
815,-0.295,0.715
816,-0.295,0.715
817,-0.305,0.700
818,-0.310,0.715
819,-0.310,0.710
820,-0.305,0.730
821,-0.300,0.725
822,-0.295,0.710
823,-0.305,0.695
824,-0.305,0.695
825,-0.300,0.715
826,-0.280,0.720
827,-0.280,0.725
828,-0.285,0.705
829,-0.295,0.695
830,-0.295,0.695
831,-0.300,0.700
832,-0.275,0.720
833,-0.295,0.715
834,-0.280,0.695
835,-0.300,0.690
836,-0.305,0.690
837,-0.295,0.700
838,-0.275,0.715
839,-0.280,0.705
840,-0.265,0.690
841,-0.285,0.685
842,-0.305,0.685
843,-0.290,0.710
844,-0.285,0.715
845,-0.260,0.715
846,-0.275,0.695
847,-0.280,0.690
848,-0.285,0.685
849,-0.275,0.690
850,-0.265,0.705
851,-0.270,0.700
852,-0.270,0.700
853,-0.295,0.685
854,-0.290,0.680
855,-0.295,0.695
856,-0.265,0.705
857,-0.255,0.685
858,-0.255,0.675
859,-0.285,0.665
860,-0.285,0.665
861,-0.285,0.685
862,-0.260,0.690
863,-0.255,0.690
864,-0.255,0.680
865,-0.270,0.675
866,-0.285,0.665
867,-0.270,0.675
868,-0.250,0.695
869,-0.260,0.685
870,-0.255,0.680
871,-0.270,0.670
872,-0.285,0.670
873,-0.265,0.670
874,-0.250,0.700
875,-0.240,0.675
876,-0.245,0.680
877,-0.270,0.665
878,-0.265,0.670
879,-0.255,0.670
880,-0.240,0.695
881,-0.230,0.680
882,-0.235,0.660
883,-0.255,0.655
884,-0.270,0.655
885,-0.255,0.675
886,-0.250,0.675
887,-0.220,0.680
888,-0.235,0.655
889,-0.265,0.650
890,-0.250,0.660
891,-0.260,0.660
892,-0.240,0.670
893,-0.225,0.665
894,-0.225,0.650
895,-0.235,0.660
896,-0.240,0.660
897,-0.235,0.650
898,-0.230,0.670
899,-0.225,0.655
900,-0.225,0.650
901,-0.240,0.635
902,-0.245,0.640
903,-0.235,0.650
904,-0.220,0.675
905,-0.215,0.660
906,-0.220,0.650
907,-0.220,0.660
908,-0.225,0.660
909,-0.220,0.695
910,-0.195,0.695
911,-0.175,0.675
912,-0.175,0.670
913,-0.180,0.640
914,-0.180,0.635
915,-0.175,0.650
916,-0.170,0.645
917,-0.150,0.635
918,-0.150,0.615
919,-0.140,0.595
920,-0.145,0.600
921,-0.150,0.625
922,-0.130,0.625
923,-0.130,0.630
924,-0.135,0.610
925,-0.135,0.610
926,-0.150,0.595
927,-0.150,0.620
928,-0.155,0.620
929,-0.155,0.620
930,-0.170,0.600
931,-0.195,0.580
932,-0.215,0.600
933,-0.210,0.610
934,-0.185,0.615
935,-0.180,0.610
936,-0.195,0.610
937,-0.210,0.590
938,-0.220,0.595
939,-0.210,0.615
940,-0.180,0.620
941,-0.170,0.610
942,-0.185,0.600
943,-0.205,0.590
944,-0.205,0.595
945,-0.200,0.610
946,-0.180,0.615
947,-0.175,0.620
948,-0.180,0.615
949,-0.185,0.595
950,-0.180,0.610
951,-0.160,0.655
952,-0.140,0.720
953,-0.145,0.745
954,-0.160,0.760
955,-0.225,0.765
956,-0.260,0.755
957,-0.295,0.740
958,-0.290,0.705
959,-0.260,0.610
960,-0.165,0.505
961,0.030,0.385
962,0.390,0.290
963,0.875,0.225
964,1.385,0.215
965,1.795,0.260
966,2.050,0.345
967,2.110,0.455
968,1.910,0.525
969,1.390,0.575
970,0.750,0.565
971,0.110,0.560
972,-0.530,0.560
973,-0.490,0.570
974,-0.370,0.585
975,-0.330,0.595
976,-0.320,0.610
977,-0.340,0.595
978,-0.340,0.585
979,-0.330,0.580
980,-0.305,0.580
981,-0.240,0.600
982,-0.160,0.610
983,-0.120,0.600
984,-0.100,0.595
985,-0.105,0.570
986,-0.120,0.580
987,-0.105,0.590
988,-0.095,0.595
989,-0.075,0.600
990,-0.085,0.570
991,-0.100,0.570
992,-0.100,0.575
993,-0.105,0.575
994,-0.070,0.590
995,-0.065,0.580
996,-0.060,0.580
997,-0.080,0.565
998,-0.095,0.565
999,-0.055,0.595
1000,-0.040,0.575
1001,-0.040,0.565
1002,-0.055,0.545
1003,-0.060,0.560
1004,-0.060,0.580
1005,-0.040,0.580
1006,-0.030,0.580
1007,-0.030,0.560
1008,-0.040,0.540
1009,-0.065,0.540
1010,-0.040,0.550
1011,-0.025,0.560
1012,-0.025,0.550
1013,-0.015,0.550
1014,-0.020,0.550
1015,-0.025,0.550
1016,-0.010,0.560
1017,0.000,0.570
1018,0.020,0.565
1019,0.005,0.540
1020,0.000,0.535
1021,0.005,0.535
1022,0.015,0.540
1023,0.030,0.555
1024,0.045,0.550
1025,0.060,0.540
1026,0.035,0.525
1027,0.020,0.520
1028,0.035,0.545
1029,0.055,0.540
1030,0.060,0.530
1031,0.050,0.515
1032,0.055,0.515
1033,0.060,0.525
1034,0.075,0.530
1035,0.090,0.540
1036,0.100,0.520
1037,0.105,0.505
1038,0.105,0.505
1039,0.100,0.510
1040,0.115,0.520
1041,0.150,0.520
1042,0.160,0.515
1043,0.165,0.495
1044,0.170,0.495
1045,0.170,0.490
1046,0.180,0.495
1047,0.210,0.500
1048,0.230,0.500
1049,0.255,0.475
1050,0.250,0.470
1051,0.250,0.470
1052,0.270,0.490
1053,0.300,0.500
1054,0.340,0.495
1055,0.345,0.475
1056,0.350,0.460
1057,0.350,0.455
1058,0.385,0.470
1059,0.410,0.485
1060,0.450,0.470
1061,0.460,0.440
1062,0.475,0.430
1063,0.495,0.440
1064,0.530,0.450
1065,0.565,0.450
1066,0.590,0.445
1067,0.615,0.435
1068,0.625,0.415
1069,0.645,0.410
1070,0.675,0.420
1071,0.705,0.435
1072,0.735,0.425
1073,0.755,0.415
1074,0.765,0.390
1075,0.800,0.395
1076,0.810,0.405
1077,0.845,0.410
1078,0.880,0.410
1079,0.880,0.395
1080,0.895,0.390
1081,0.900,0.395
1082,0.920,0.405
1083,0.940,0.420
1084,0.940,0.415
1085,0.930,0.420
1086,0.895,0.415
1087,0.850,0.420
1088,0.820,0.435
1089,0.795,0.450
1090,0.755,0.455
1091,0.695,0.450
1092,0.625,0.435
1093,0.550,0.440
1094,0.510,0.445
1095,0.450,0.460
1096,0.400,0.455
1097,0.325,0.445
1098,0.270,0.430
1099,0.205,0.435
1100,0.140,0.455
1101,0.115,0.445
1102,0.090,0.440
1103,0.030,0.430
1104,-0.015,0.425
1105,-0.045,0.440
1106,-0.070,0.435
1107,-0.085,0.445
1108,-0.095,0.430
1109,-0.125,0.430
1110,-0.160,0.420
1111,-0.175,0.415
1112,-0.185,0.435
1113,-0.190,0.450
1114,-0.195,0.435
1115,-0.205,0.420
1116,-0.230,0.415
1117,-0.250,0.420
1118,-0.250,0.435
1119,-0.230,0.445
1120,-0.235,0.435
1121,-0.240,0.420
1122,-0.250,0.410
1123,-0.255,0.410
1124,-0.265,0.420
1125,-0.245,0.440
1126,-0.235,0.420
1127,-0.240,0.405
1128,-0.265,0.395
1129,-0.270,0.400
1130,-0.265,0.410
1131,-0.245,0.425
1132,-0.240,0.405
1133,-0.240,0.395
1134,-0.255,0.375
1135,-0.265,0.390
1136,-0.260,0.400
1137,-0.240,0.415
1138,-0.240,0.400
1139,-0.255,0.385
1140,-0.275,0.385
1141,-0.260,0.390
1142,-0.270,0.395
1143,-0.255,0.405
1144,-0.255,0.400
1145,-0.265,0.400
1146,-0.260,0.370
1147,-0.260,0.380
1148,-0.260,0.390
1149,-0.250,0.410
1150,-0.235,0.385
1151,-0.245,0.385
1152,-0.265,0.365
1153,-0.265,0.380
1154,-0.255,0.395
1155,-0.255,0.400
1156,-0.250,0.390
1157,-0.250,0.365
1158,-0.265,0.375
1159,-0.260,0.360
1160,-0.265,0.390
1161,-0.255,0.390
1162,-0.250,0.385
1163,-0.250,0.370
1164,-0.265,0.350
1165,-0.265,0.370
1166,-0.270,0.370
1167,-0.260,0.375
1168,-0.260,0.360
1169,-0.260,0.360
1170,-0.270,0.350
1171,-0.290,0.355
1172,-0.275,0.365
1173,-0.270,0.385
1174,-0.265,0.370
1175,-0.275,0.350
1176,-0.290,0.340
1177,-0.300,0.335
1178,-0.305,0.350
1179,-0.295,0.360
1180,-0.285,0.355
1181,-0.285,0.350
1182,-0.310,0.340
1183,-0.310,0.340
1184,-0.310,0.350
1185,-0.300,0.360
1186,-0.300,0.350
1187,-0.295,0.345
1188,-0.310,0.330
1189,-0.320,0.325
1190,-0.320,0.345
1191,-0.305,0.355
1192,-0.305,0.345
1193,-0.315,0.330
1194,-0.340,0.330
1195,-0.340,0.320
1196,-0.350,0.335
1197,-0.330,0.345
1198,-0.325,0.335
1199,-0.340,0.325
1200,-0.360,0.315
1201,-0.360,0.315
1202,-0.345,0.325
1203,-0.335,0.335
1204,-0.335,0.325
1205,-0.330,0.320
1206,-0.345,0.305
1207,-0.350,0.300
1208,-0.350,0.320
1209,-0.345,0.320
1210,-0.345,0.320
1211,-0.350,0.305
1212,-0.350,0.285
1213,-0.355,0.285
1214,-0.345,0.315
1215,-0.335,0.315
1216,-0.320,0.310
1217,-0.340,0.300
1218,-0.355,0.285
1219,-0.365,0.290
1220,-0.370,0.300
1221,-0.355,0.310
1222,-0.350,0.305
1223,-0.345,0.295
1224,-0.350,0.270
1225,-0.360,0.280
1226,-0.385,0.295
1227,-0.360,0.300
1228,-0.340,0.305
1229,-0.365,0.285
1230,-0.370,0.275
1231,-0.360,0.270
1232,-0.365,0.290
1233,-0.365,0.300
1234,-0.345,0.290
1235,-0.370,0.270
1236,-0.370,0.275
1237,-0.380,0.280
1238,-0.375,0.290
1239,-0.365,0.290
1240,-0.355,0.285
1241,-0.355,0.270
1242,-0.380,0.255
1243,-0.380,0.255
1244,-0.365,0.260
1245,-0.360,0.275
1246,-0.355,0.280
1247,-0.370,0.275
1248,-0.370,0.255
1249,-0.380,0.255
1250,-0.375,0.275
1251,-0.365,0.275
1252,-0.360,0.270
1253,-0.365,0.255
1254,-0.395,0.250
1255,-0.390,0.250
1256,-0.380,0.265
1257,-0.385,0.275
1258,-0.365,0.255
1259,-0.370,0.250
1260,-0.380,0.240
1261,-0.395,0.250
1262,-0.385,0.250
1263,-0.375,0.265
1264,-0.365,0.265
1265,-0.370,0.275
1266,-0.370,0.255
1267,-0.385,0.265
1268,-0.375,0.290
1269,-0.340,0.295
1270,-0.335,0.285
1271,-0.320,0.265
1272,-0.325,0.245
1273,-0.335,0.235
1274,-0.335,0.235
1275,-0.325,0.235
1276,-0.290,0.215
1277,-0.290,0.200
1278,-0.295,0.195
1279,-0.315,0.195
1280,-0.320,0.220
1281,-0.310,0.230
1282,-0.310,0.220
1283,-0.315,0.215
1284,-0.330,0.200
1285,-0.350,0.215
1286,-0.360,0.220
1287,-0.360,0.240
1288,-0.360,0.220
1289,-0.395,0.200
1290,-0.415,0.205
1291,-0.440,0.195
1292,-0.425,0.220
1293,-0.420,0.230
1294,-0.400,0.220
1295,-0.405,0.215
1296,-0.435,0.200
1297,-0.430,0.195
1298,-0.425,0.205
1299,-0.400,0.210
1300,-0.400,0.210
1301,-0.395,0.200
1302,-0.420,0.190
1303,-0.425,0.185
1304,-0.415,0.195
1305,-0.400,0.205
1306,-0.400,0.195
1307,-0.400,0.200
1308,-0.410,0.200
1309,-0.405,0.215
1310,-0.390,0.245
1311,-0.385,0.285
1312,-0.380,0.330
1313,-0.410,0.350
1314,-0.435,0.370
1315,-0.490,0.370
1316,-0.505,0.380
1317,-0.510,0.350
1318,-0.510,0.280
1319,-0.470,0.175
1320,-0.355,0.060
1321,-0.100,-0.050
1322,0.295,-0.160
1323,0.770,-0.220
1324,1.240,-0.230
1325,1.645,-0.205
1326,1.870,-0.120
1327,1.950,-0.005
1328,1.850,0.080
1329,1.490,0.145
1330,0.850,0.140
1331,0.210,0.125
1332,-0.430,0.130
1333,-0.815,0.160
1334,-0.700,0.200
1335,-0.580,0.215
1336,-0.575,0.210
1337,-0.625,0.200
1338,-0.640,0.170
1339,-0.620,0.180
1340,-0.575,0.210
1341,-0.525,0.230
1342,-0.465,0.225
1343,-0.425,0.210
1344,-0.395,0.195
1345,-0.400,0.190
1346,-0.395,0.205
1347,-0.390,0.210
1348,-0.385,0.195
1349,-0.385,0.195
1350,-0.395,0.185
1351,-0.405,0.175
1352,-0.410,0.185
1353,-0.395,0.195
1354,-0.380,0.195
1355,-0.380,0.180
1356,-0.400,0.185
1357,-0.400,0.185
1358,-0.395,0.185
1359,-0.385,0.200
1360,-0.365,0.200
1361,-0.375,0.175
1362,-0.405,0.165
1363,-0.400,0.170
1364,-0.385,0.170
1365,-0.390,0.195
1366,-0.375,0.175
1367,-0.380,0.175
1368,-0.375,0.160
1369,-0.390,0.165
1370,-0.375,0.165
1371,-0.360,0.175
1372,-0.365,0.165
1373,-0.355,0.160
1374,-0.385,0.145
1375,-0.365,0.155
1376,-0.365,0.165
1377,-0.360,0.175
1378,-0.335,0.160
1379,-0.355,0.160
1380,-0.350,0.150
1381,-0.365,0.155
1382,-0.345,0.160
1383,-0.335,0.180
1384,-0.335,0.165
1385,-0.345,0.165
1386,-0.345,0.145
1387,-0.350,0.145
1388,-0.350,0.145
1389,-0.330,0.165
1390,-0.310,0.155
1391,-0.310,0.145
1392,-0.330,0.130
1393,-0.330,0.130
1394,-0.315,0.145
1395,-0.295,0.150
1396,-0.290,0.150
1397,-0.280,0.135
1398,-0.290,0.125
1399,-0.290,0.130
1400,-0.280,0.135
1401,-0.265,0.150
1402,-0.240,0.145
1403,-0.235,0.120
1404,-0.245,0.120
1405,-0.240,0.130
1406,-0.225,0.120
1407,-0.195,0.145
1408,-0.190,0.120
1409,-0.170,0.135
1410,-0.175,0.115
1411,-0.180,0.105
1412,-0.155,0.130
1413,-0.135,0.140
1414,-0.100,0.140
1415,-0.100,0.110
1416,-0.090,0.115
1417,-0.080,0.105
1418,-0.060,0.115
1419,-0.015,0.120
1420,0.010,0.115
1421,0.025,0.105
1422,0.030,0.090
1423,0.045,0.090
1424,0.090,0.110
1425,0.115,0.120
1426,0.155,0.120
1427,0.180,0.095
1428,0.180,0.085
1429,0.190,0.085
1430,0.230,0.090
1431,0.265,0.105
1432,0.300,0.095
1433,0.325,0.075
1434,0.335,0.075
1435,0.350,0.070
1436,0.390,0.075
1437,0.445,0.080
1438,0.460,0.070
1439,0.470,0.060
1440,0.490,0.050
1441,0.495,0.050
1442,0.530,0.060
1443,0.560,0.075
1444,0.600,0.065
1445,0.590,0.045
1446,0.595,0.045
1447,0.585,0.060
1448,0.595,0.070
1449,0.590,0.085
1450,0.580,0.090
1451,0.530,0.085
1452,0.485,0.075
1453,0.425,0.090
1454,0.380,0.095
1455,0.335,0.105
1456,0.280,0.100
1457,0.195,0.095
1458,0.120,0.085
1459,0.050,0.090
1460,-0.010,0.095
1461,-0.070,0.115
1462,-0.125,0.090
1463,-0.180,0.100
1464,-0.260,0.090
1465,-0.315,0.080
1466,-0.365,0.085
1467,-0.385,0.100
1468,-0.400,0.105
1469,-0.435,0.095
1470,-0.500,0.080
1471,-0.525,0.080
1472,-0.535,0.090
1473,-0.540,0.105
1474,-0.550,0.085
1475,-0.570,0.080
1476,-0.595,0.060
1477,-0.610,0.070
1478,-0.630,0.085
1479,-0.620,0.090
1480,-0.625,0.080
1481,-0.630,0.065
1482,-0.645,0.060
1483,-0.660,0.065
1484,-0.665,0.075
1485,-0.650,0.095
1486,-0.640,0.080
1487,-0.660,0.070
1488,-0.670,0.055
1489,-0.695,0.055
1490,-0.680,0.075
1491,-0.670,0.080
1492,-0.665,0.070
1493,-0.680,0.070
1494,-0.700,0.060
1495,-0.695,0.060
1496,-0.705,0.075
1497,-0.680,0.085
1498,-0.680,0.070
1499,-0.690,0.065
1500,-0.705,0.045
1501,-0.695,0.050
1502,-0.685,0.070
1503,-0.675,0.090
1504,-0.665,0.070
1505,-0.660,0.055
1506,-0.675,0.045
1507,-0.685,0.045
1508,-0.685,0.055
1509,-0.665,0.075
1510,-0.665,0.075
1511,-0.680,0.050
1512,-0.690,0.050
1513,-0.700,0.040
1514,-0.690,0.055
1515,-0.680,0.075
1516,-0.680,0.060
1517,-0.680,0.055
1518,-0.680,0.050
1519,-0.690,0.050
1520,-0.695,0.050
1521,-0.680,0.065
1522,-0.665,0.055
1523,-0.670,0.050
1524,-0.685,0.040
1525,-0.695,0.035
1526,-0.710,0.050
1527,-0.700,0.050
1528,-0.690,0.045
1529,-0.680,0.045
1530,-0.705,0.030
1531,-0.720,0.045
1532,-0.720,0.035
1533,-0.705,0.060
1534,-0.685,0.045
1535,-0.700,0.040
1536,-0.715,0.025
1537,-0.715,0.035
1538,-0.715,0.035
1539,-0.705,0.055
1540,-0.705,0.030
1541,-0.705,0.025
1542,-0.720,0.015
1543,-0.730,0.025
1544,-0.735,0.045
1545,-0.720,0.050
1546,-0.715,0.035
1547,-0.725,0.015
1548,-0.730,0.015
1549,-0.735,0.020
1550,-0.740,0.025
1551,-0.720,0.045
1552,-0.720,0.020
1553,-0.725,0.010
1554,-0.750,0.005
1555,-0.755,0.015
1556,-0.750,0.030
1557,-0.730,0.040
1558,-0.730,0.020
1559,-0.730,0.015
1560,-0.770,0.005
1561,-0.755,0.010
1562,-0.760,0.010
1563,-0.745,0.030
1564,-0.750,0.030
1565,-0.740,0.020
1566,-0.760,0.000
1567,-0.775,0.000
1568,-0.755,0.005
1569,-0.735,0.015
1570,-0.725,0.020
1571,-0.730,0.005
1572,-0.750,-0.015
1573,-0.760,-0.005
1574,-0.750,0.005
1575,-0.730,0.010
1576,-0.725,0.010
1577,-0.730,0.005
1578,-0.750,-0.010
1579,-0.765,-0.005
1580,-0.755,0.015
1581,-0.740,0.005
1582,-0.725,0.015
1583,-0.735,0.005
1584,-0.760,-0.010
1585,-0.760,-0.010
1586,-0.740,0.005
1587,-0.740,0.010
1588,-0.735,0.010
1589,-0.750,-0.010
1590,-0.755,-0.020
1591,-0.755,0.000
1592,-0.755,0.000
1593,-0.740,0.005
1594,-0.745,0.005
1595,-0.750,-0.010
1596,-0.755,-0.020
1597,-0.755,0.000
1598,-0.755,-0.005
1599,-0.750,0.015
1600,-0.740,-0.005
1601,-0.755,-0.010
1602,-0.740,-0.020
1603,-0.755,-0.015
1604,-0.760,-0.005
1605,-0.740,0.015
1606,-0.725,-0.005
1607,-0.740,-0.015
1608,-0.750,-0.015
1609,-0.745,-0.025
1610,-0.750,-0.015
1611,-0.735,0.005
1612,-0.735,-0.005
1613,-0.740,-0.020
1614,-0.760,-0.030
1615,-0.760,-0.025
1616,-0.740,-0.010
1617,-0.725,0.005
1618,-0.725,-0.005
1619,-0.720,-0.015
1620,-0.740,-0.020
1621,-0.745,-0.015
1622,-0.745,-0.010
1623,-0.720,-0.005
1624,-0.715,-0.010
1625,-0.735,-0.015
1626,-0.745,-0.030
1627,-0.745,-0.025
1628,-0.740,-0.010
1629,-0.725,-0.010
1630,-0.725,-0.015
1631,-0.730,-0.025
1632,-0.740,-0.030
1633,-0.735,-0.020
1634,-0.730,-0.010
1635,-0.715,-0.005
1636,-0.710,-0.015
1637,-0.715,-0.025
1638,-0.725,-0.035
1639,-0.745,-0.025
1640,-0.735,-0.020
1641,-0.715,-0.010
1642,-0.710,-0.005
1643,-0.710,-0.020
1644,-0.720,-0.015
1645,-0.715,-0.010
1646,-0.715,0.015
1647,-0.695,0.045
1648,-0.670,0.030
1649,-0.685,0.015
1650,-0.690,-0.005
1651,-0.670,-0.025
1652,-0.660,-0.010
1653,-0.645,0.000
1654,-0.645,-0.020
1655,-0.645,-0.055
1656,-0.640,-0.070
1657,-0.635,-0.070
1658,-0.650,-0.040
1659,-0.630,-0.045
1660,-0.625,-0.030
1661,-0.625,-0.055
1662,-0.640,-0.055
1663,-0.650,-0.055
1664,-0.645,-0.035
1665,-0.660,-0.025
1666,-0.660,-0.035
1667,-0.680,-0.055
1668,-0.710,-0.055
1669,-0.715,-0.060
1670,-0.710,-0.045
1671,-0.700,-0.045
1672,-0.685,-0.045
1673,-0.700,-0.050
1674,-0.700,-0.050
1675,-0.715,-0.055
1676,-0.695,-0.050
1677,-0.690,-0.030
1678,-0.690,-0.045
1679,-0.700,-0.055
1680,-0.700,-0.065
1681,-0.710,-0.060
1682,-0.700,-0.050
1683,-0.675,-0.030
1684,-0.660,-0.025
1685,-0.670,-0.040
1686,-0.680,-0.050
1687,-0.675,-0.035
1688,-0.660,0.005
1689,-0.645,0.050
1690,-0.650,0.095
1691,-0.670,0.115
1692,-0.705,0.145
1693,-0.745,0.145
1694,-0.775,0.140
1695,-0.770,0.105
1696,-0.745,0.035
1697,-0.700,-0.080
1698,-0.565,-0.210
1699,-0.285,-0.340
1700,0.170,-0.440
1701,0.690,-0.505
1702,1.200,-0.505
1703,1.590,-0.425
1704,1.800,-0.340
1705,1.800,-0.210
1706,1.505,-0.125
1707,0.865,-0.100
1708,0.225,-0.125
1709,-0.415,-0.130
1710,-1.050,-0.110
1711,-0.960,-0.065
1712,-0.840,-0.035
1713,-0.800,-0.015
1714,-0.820,-0.045
1715,-0.835,-0.065
1716,-0.840,-0.055
1717,-0.810,-0.045
1718,-0.770,-0.030
1719,-0.705,-0.010
1720,-0.655,-0.025
1721,-0.640,-0.040
1722,-0.635,-0.055
1723,-0.645,-0.055
1724,-0.625,-0.040
1725,-0.620,-0.015
1726,-0.600,-0.020
1727,-0.620,-0.050
1728,-0.620,-0.060
1729,-0.620,-0.060
1730,-0.605,-0.025
1731,-0.585,-0.025
1732,-0.585,-0.035
1733,-0.595,-0.050
1734,-0.605,-0.065
1735,-0.600,-0.055
1736,-0.595,-0.045
1737,-0.565,-0.025
1738,-0.580,-0.040
1739,-0.580,-0.050
1740,-0.585,-0.065
1741,-0.590,-0.050
1742,-0.570,-0.050
1743,-0.550,-0.030
1744,-0.545,-0.045
1745,-0.545,-0.065
1746,-0.565,-0.070
1747,-0.560,-0.065
1748,-0.555,-0.055
1749,-0.525,-0.050
1750,-0.535,-0.040
1751,-0.525,-0.065
1752,-0.545,-0.075
1753,-0.550,-0.065
1754,-0.535,-0.055
1755,-0.515,-0.040
1756,-0.505,-0.060
1757,-0.500,-0.060
1758,-0.500,-0.085
1759,-0.510,-0.070
1760,-0.490,-0.060
1761,-0.475,-0.055
1762,-0.460,-0.060
1763,-0.455,-0.070
1764,-0.460,-0.075
1765,-0.460,-0.075
1766,-0.440,-0.075
1767,-0.420,-0.065
1768,-0.400,-0.070
1769,-0.405,-0.080
1770,-0.395,-0.085
1771,-0.390,-0.085
1772,-0.375,-0.065
1773,-0.345,-0.065
1774,-0.330,-0.075
1775,-0.325,-0.090
1776,-0.315,-0.105
1777,-0.300,-0.100
1778,-0.280,-0.085
1779,-0.270,-0.080
1780,-0.220,-0.090
1781,-0.200,-0.095
1782,-0.185,-0.105
1783,-0.175,-0.105
1784,-0.140,-0.090
1785,-0.090,-0.085
1786,-0.065,-0.090
1787,-0.055,-0.110
1788,-0.035,-0.120
1789,-0.010,-0.115
1790,0.015,-0.110
1791,0.075,-0.105
1792,0.115,-0.120
1793,0.130,-0.120
1794,0.145,-0.135
1795,0.175,-0.130
1796,0.215,-0.120
1797,0.260,-0.115
1798,0.285,-0.130
1799,0.310,-0.145
1800,0.315,-0.145
1801,0.330,-0.145
1802,0.380,-0.120
1803,0.410,-0.115
1804,0.450,-0.135
1805,0.465,-0.150
1806,0.480,-0.155
1807,0.485,-0.155
1808,0.510,-0.140
1809,0.530,-0.120
1810,0.540,-0.125
1811,0.515,-0.130
1812,0.480,-0.135
1813,0.460,-0.125
1814,0.430,-0.090
1815,0.395,-0.085
1816,0.345,-0.090
1817,0.280,-0.110
1818,0.205,-0.105
1819,0.140,-0.100
1820,0.075,-0.100
1821,0.025,-0.085
1822,-0.040,-0.090
1823,-0.110,-0.100
1824,-0.185,-0.110
1825,-0.245,-0.110
1826,-0.305,-0.090
1827,-0.340,-0.085
1828,-0.385,-0.090
1829,-0.420,-0.095
1830,-0.475,-0.115
1831,-0.515,-0.110
1832,-0.545,-0.105
1833,-0.550,-0.075
1834,-0.560,-0.085
1835,-0.585,-0.110
1836,-0.605,-0.115
1837,-0.630,-0.110
1838,-0.640,-0.095
1839,-0.635,-0.070
1840,-0.635,-0.090
1841,-0.650,-0.110
1842,-0.665,-0.110
1843,-0.680,-0.110
1844,-0.685,-0.090
1845,-0.675,-0.090
1846,-0.665,-0.095
1847,-0.670,-0.130
1848,-0.685,-0.120
1849,-0.710,-0.115
1850,-0.695,-0.095
1851,-0.680,-0.090
1852,-0.675,-0.100
1853,-0.680,-0.105
1854,-0.705,-0.115
1855,-0.715,-0.105
1856,-0.705,-0.095
1857,-0.680,-0.080
1858,-0.685,-0.090
1859,-0.690,-0.110
1860,-0.690,-0.125
1861,-0.710,-0.115
1862,-0.705,-0.105
1863,-0.685,-0.095
1864,-0.675,-0.095
1865,-0.680,-0.110
1866,-0.690,-0.120
1867,-0.705,-0.110
1868,-0.695,-0.095
1869,-0.660,-0.095
1870,-0.665,-0.090
1871,-0.675,-0.105
1872,-0.680,-0.120
1873,-0.690,-0.120
1874,-0.680,-0.100
1875,-0.655,-0.090
1876,-0.645,-0.105
1877,-0.665,-0.115
1878,-0.670,-0.120
1879,-0.700,-0.125
1880,-0.670,-0.100
1881,-0.655,-0.085
1882,-0.645,-0.110
1883,-0.650,-0.115
1884,-0.670,-0.130
1885,-0.675,-0.120
1886,-0.675,-0.105
1887,-0.660,-0.100
1888,-0.645,-0.115
1889,-0.660,-0.125
1890,-0.665,-0.125
1891,-0.680,-0.115
1892,-0.675,-0.105
1893,-0.660,-0.105
1894,-0.645,-0.110
1895,-0.655,-0.115
1896,-0.655,-0.130
1897,-0.670,-0.120
1898,-0.665,-0.115
1899,-0.645,-0.100
1900,-0.645,-0.110
1901,-0.645,-0.130
1902,-0.660,-0.115
1903,-0.685,-0.115
1904,-0.670,-0.115
1905,-0.650,-0.100
1906,-0.640,-0.110
1907,-0.650,-0.125
1908,-0.675,-0.130
1909,-0.665,-0.125
1910,-0.660,-0.115
1911,-0.655,-0.100
1912,-0.650,-0.100
1913,-0.655,-0.120
1914,-0.670,-0.140
1915,-0.685,-0.125
1916,-0.680,-0.125
1917,-0.660,-0.105
1918,-0.655,-0.125
1919,-0.660,-0.135
1920,-0.670,-0.145
1921,-0.670,-0.125
1922,-0.665,-0.115
1923,-0.665,-0.110
1924,-0.665,-0.120
1925,-0.660,-0.115
1926,-0.670,-0.135
1927,-0.685,-0.140
1928,-0.670,-0.125
1929,-0.650,-0.115
1930,-0.640,-0.125
1931,-0.660,-0.135
1932,-0.665,-0.125
1933,-0.675,-0.140
1934,-0.660,-0.120
1935,-0.655,-0.110
1936,-0.645,-0.115
1937,-0.650,-0.125
1938,-0.670,-0.140
1939,-0.660,-0.140
1940,-0.650,-0.130
1941,-0.640,-0.115
1942,-0.650,-0.120
1943,-0.650,-0.125
1944,-0.660,-0.145
1945,-0.675,-0.135
1946,-0.655,-0.130
1947,-0.635,-0.110
1948,-0.630,-0.125
1949,-0.635,-0.130
1950,-0.655,-0.145
1951,-0.665,-0.140
1952,-0.660,-0.140
1953,-0.635,-0.115
1954,-0.630,-0.130
1955,-0.635,-0.125
1956,-0.655,-0.145
1957,-0.645,-0.140
1958,-0.625,-0.135
1959,-0.625,-0.120
1960,-0.610,-0.125
1961,-0.630,-0.140
1962,-0.640,-0.155
1963,-0.645,-0.150
1964,-0.635,-0.140
1965,-0.630,-0.120
1966,-0.610,-0.125
1967,-0.610,-0.130
1968,-0.620,-0.145
1969,-0.630,-0.145
1970,-0.620,-0.130
1971,-0.620,-0.135
1972,-0.615,-0.130
1973,-0.605,-0.135
1974,-0.620,-0.150
1975,-0.635,-0.150
1976,-0.620,-0.135
1977,-0.605,-0.115
1978,-0.590,-0.125
1979,-0.600,-0.145
1980,-0.635,-0.140
1981,-0.625,-0.140
1982,-0.610,-0.130
1983,-0.600,-0.120
1984,-0.595,-0.130
1985,-0.605,-0.135
1986,-0.605,-0.145
1987,-0.610,-0.145
1988,-0.600,-0.115
1989,-0.590,-0.115
1990,-0.595,-0.125
1991,-0.600,-0.135
1992,-0.615,-0.150
1993,-0.615,-0.145
1994,-0.610,-0.130
1995,-0.580,-0.115
1996,-0.565,-0.130
1997,-0.580,-0.135
1998,-0.600,-0.145
1999,-0.595,-0.145
2000,-0.585,-0.125
2001,-0.580,-0.120
2002,-0.570,-0.125
2003,-0.570,-0.145
2004,-0.595,-0.155
2005,-0.585,-0.140
2006,-0.580,-0.130
2007,-0.570,-0.120
2008,-0.570,-0.120
2009,-0.575,-0.135
2010,-0.575,-0.150
2011,-0.595,-0.145
2012,-0.585,-0.130
2013,-0.560,-0.115
2014,-0.555,-0.135
2015,-0.570,-0.140
2016,-0.580,-0.145
2017,-0.580,-0.130
2018,-0.575,-0.130
2019,-0.575,-0.125
2020,-0.555,-0.130
2021,-0.560,-0.120
2022,-0.580,-0.135
2023,-0.570,-0.150
2024,-0.570,-0.135
2025,-0.555,-0.115
2026,-0.540,-0.125
2027,-0.545,-0.135
2028,-0.560,-0.130
2029,-0.560,-0.120
2030,-0.540,-0.100
2031,-0.525,-0.075
2032,-0.510,-0.075
2033,-0.515,-0.090
2034,-0.525,-0.105
2035,-0.510,-0.110
2036,-0.485,-0.110
2037,-0.470,-0.105
2038,-0.455,-0.110
2039,-0.475,-0.135
2040,-0.480,-0.150
2041,-0.475,-0.165
2042,-0.460,-0.160
2043,-0.440,-0.145
2044,-0.445,-0.150
2045,-0.455,-0.160
2046,-0.480,-0.155
2047,-0.485,-0.145
2048,-0.470,-0.130
2049,-0.465,-0.125
2050,-0.445,-0.130
2051,-0.485,-0.150
2052,-0.500,-0.140
2053,-0.510,-0.145
2054,-0.515,-0.125
2055,-0.500,-0.120
2056,-0.515,-0.125
2057,-0.520,-0.140
2058,-0.530,-0.150
2059,-0.530,-0.140
2060,-0.520,-0.125
2061,-0.505,-0.125
2062,-0.490,-0.135
2063,-0.515,-0.135
2064,-0.510,-0.140
2065,-0.525,-0.140
2066,-0.515,-0.125
2067,-0.490,-0.115
2068,-0.495,-0.120
2069,-0.495,-0.130
2070,-0.505,-0.150
2071,-0.515,-0.140
2072,-0.485,-0.115
2073,-0.480,-0.100
2074,-0.460,-0.110
2075,-0.465,-0.100
2076,-0.475,-0.080
2077,-0.485,-0.045
2078,-0.470,0.010
2079,-0.465,0.075
2080,-0.495,0.090
2081,-0.520,0.085
2082,-0.570,0.060
2083,-0.590,0.040
2084,-0.585,-0.005
2085,-0.545,-0.050
2086,-0.470,-0.160
2087,-0.325,-0.270
2088,-0.080,-0.385
2089,0.295,-0.490
2090,0.765,-0.545
2091,1.260,-0.545
2092,1.655,-0.490
2093,1.940,-0.430
2094,2.035,-0.340
2095,1.970,-0.255
2096,1.660,-0.195
2097,1.070,-0.175
2098,0.430,-0.175
2099,-0.210,-0.200
2100,-0.760,-0.195
2101,-0.775,-0.145
2102,-0.665,-0.115
2103,-0.610,-0.090
2104,-0.605,-0.100
2105,-0.630,-0.125
2106,-0.640,-0.130
2107,-0.615,-0.115
2108,-0.610,-0.100
2109,-0.550,-0.080
2110,-0.500,-0.085
2111,-0.440,-0.090
2112,-0.420,-0.105
2113,-0.425,-0.100
2114,-0.410,-0.075
2115,-0.400,-0.075
2116,-0.395,-0.095
2117,-0.400,-0.085
2118,-0.410,-0.105
2119,-0.405,-0.095
2120,-0.400,-0.080
2121,-0.385,-0.065
2122,-0.365,-0.070
2123,-0.380,-0.100
2124,-0.385,-0.095
2125,-0.385,-0.095
2126,-0.380,-0.085
2127,-0.360,-0.060
2128,-0.355,-0.075
2129,-0.360,-0.080
2130,-0.380,-0.095
2131,-0.370,-0.095
2132,-0.360,-0.075
2133,-0.340,-0.070
2134,-0.345,-0.070
2135,-0.340,-0.090
2136,-0.350,-0.100
2137,-0.360,-0.095
2138,-0.340,-0.080
2139,-0.325,-0.070
2140,-0.310,-0.080
2141,-0.320,-0.095
2142,-0.340,-0.095
2143,-0.335,-0.085
2144,-0.330,-0.085
2145,-0.310,-0.075
2146,-0.310,-0.075
2147,-0.310,-0.085
2148,-0.325,-0.095
2149,-0.330,-0.085
2150,-0.315,-0.080
2151,-0.285,-0.060
2152,-0.290,-0.070
2153,-0.290,-0.080
2154,-0.295,-0.085
2155,-0.305,-0.090
2156,-0.285,-0.085
2157,-0.265,-0.080
2158,-0.255,-0.090
2159,-0.250,-0.100
2160,-0.270,-0.105
2161,-0.280,-0.095
2162,-0.265,-0.085
2163,-0.240,-0.065
2164,-0.230,-0.070
2165,-0.230,-0.080
2166,-0.235,-0.105
2167,-0.250,-0.100
2168,-0.225,-0.085
2169,-0.200,-0.080
2170,-0.195,-0.070
2171,-0.200,-0.095
2172,-0.205,-0.100
2173,-0.210,-0.095
2174,-0.190,-0.090
2175,-0.165,-0.070
2176,-0.145,-0.080
2177,-0.135,-0.095
2178,-0.155,-0.100
2179,-0.140,-0.105
2180,-0.120,-0.095
2181,-0.090,-0.070
2182,-0.075,-0.080
2183,-0.075,-0.095
2184,-0.080,-0.100
2185,-0.065,-0.105
2186,-0.040,-0.090
2187,-0.015,-0.080
2188,0.010,-0.090
2189,0.015,-0.100
2190,0.025,-0.110
2191,0.040,-0.105
2192,0.070,-0.090
2193,0.100,-0.085
2194,0.135,-0.100
2195,0.150,-0.100
2196,0.170,-0.105
2197,0.180,-0.115
2198,0.220,-0.105
2199,0.265,-0.085
2200,0.300,-0.095
2201,0.320,-0.115
2202,0.330,-0.120
2203,0.335,-0.120
2204,0.365,-0.105
2205,0.410,-0.100
2206,0.455,-0.105
2207,0.470,-0.110
2208,0.495,-0.135
2209,0.515,-0.120
2210,0.545,-0.115
2211,0.595,-0.105
2212,0.635,-0.115
2213,0.650,-0.130
2214,0.655,-0.130
2215,0.660,-0.125
2216,0.700,-0.110
2217,0.725,-0.105
2218,0.755,-0.105
2219,0.760,-0.110
2220,0.735,-0.120
2221,0.710,-0.110
2222,0.715,-0.095
2223,0.710,-0.070
2224,0.670,-0.075
2225,0.620,-0.085
2226,0.575,-0.105
2227,0.520,-0.080
2228,0.465,-0.075
2229,0.410,-0.070
2230,0.375,-0.075
2231,0.310,-0.070
2232,0.240,-0.090
2233,0.155,-0.085
2234,0.090,-0.070
2235,0.065,-0.065
2236,0.010,-0.060
2237,-0.060,-0.065
2238,-0.120,-0.075
2239,-0.175,-0.065
2240,-0.210,-0.065
2241,-0.235,-0.040
2242,-0.270,-0.055
2243,-0.290,-0.070
2244,-0.340,-0.075
2245,-0.360,-0.075
2246,-0.375,-0.060
2247,-0.380,-0.050
2248,-0.390,-0.055
2249,-0.420,-0.070
2250,-0.425,-0.075
2251,-0.445,-0.085
2252,-0.445,-0.050
2253,-0.440,-0.040
2254,-0.435,-0.060
2255,-0.450,-0.060
2256,-0.475,-0.075
2257,-0.500,-0.075
2258,-0.485,-0.060
2259,-0.475,-0.040
2260,-0.480,-0.055
2261,-0.480,-0.070
2262,-0.495,-0.080
2263,-0.500,-0.070
2264,-0.485,-0.050
2265,-0.475,-0.045
2266,-0.475,-0.055
2267,-0.480,-0.055
2268,-0.495,-0.065
2269,-0.505,-0.070
2270,-0.500,-0.060
2271,-0.475,-0.035
2272,-0.470,-0.050
2273,-0.485,-0.060
2274,-0.500,-0.055
2275,-0.490,-0.060
2276,-0.485,-0.060
2277,-0.475,-0.035
2278,-0.480,-0.055
2279,-0.470,-0.055
2280,-0.485,-0.065
2281,-0.485,-0.065
2282,-0.480,-0.040
2283,-0.465,-0.025
2284,-0.460,-0.030
2285,-0.475,-0.045
2286,-0.475,-0.055
2287,-0.490,-0.055
2288,-0.465,-0.040
2289,-0.465,-0.035
2290,-0.460,-0.040
2291,-0.460,-0.050
2292,-0.475,-0.075
2293,-0.485,-0.060
2294,-0.475,-0.055
2295,-0.455,-0.035
2296,-0.450,-0.055
2297,-0.460,-0.065
2298,-0.465,-0.075
2299,-0.485,-0.065
2300,-0.470,-0.045
2301,-0.460,-0.035
2302,-0.455,-0.040
2303,-0.455,-0.045
2304,-0.475,-0.055
2305,-0.475,-0.060
2306,-0.485,-0.045
2307,-0.465,-0.045
2308,-0.450,-0.045
2309,-0.460,-0.055
2310,-0.480,-0.070
2311,-0.495,-0.060
2312,-0.480,-0.045
2313,-0.465,-0.040
2314,-0.455,-0.055
2315,-0.485,-0.050
2316,-0.490,-0.065
2317,-0.495,-0.045
2318,-0.480,-0.045
2319,-0.470,-0.040
2320,-0.470,-0.035
2321,-0.470,-0.045
2322,-0.495,-0.050
2323,-0.505,-0.045
2324,-0.505,-0.040
2325,-0.480,-0.035
2326,-0.475,-0.045
2327,-0.470,-0.055
2328,-0.485,-0.060
2329,-0.505,-0.065
2330,-0.490,-0.040
2331,-0.485,-0.025
2332,-0.480,-0.030
2333,-0.480,-0.050
2334,-0.495,-0.060
2335,-0.510,-0.060
2336,-0.500,-0.035
2337,-0.490,-0.030
2338,-0.480,-0.030
2339,-0.490,-0.055
2340,-0.490,-0.050
2341,-0.495,-0.045
2342,-0.475,-0.030
2343,-0.475,-0.035
2344,-0.470,-0.040
2345,-0.480,-0.040
2346,-0.495,-0.055
2347,-0.500,-0.045
2348,-0.490,-0.050
2349,-0.470,-0.020
2350,-0.480,-0.035
2351,-0.465,-0.045
2352,-0.480,-0.055
2353,-0.490,-0.055
2354,-0.485,-0.050
2355,-0.470,-0.025
2356,-0.470,-0.035
2357,-0.480,-0.050
2358,-0.485,-0.045
2359,-0.485,-0.050
2360,-0.480,-0.035
2361,-0.465,-0.030
2362,-0.455,-0.030
2363,-0.455,-0.040
2364,-0.475,-0.055
2365,-0.480,-0.045
2366,-0.475,-0.040
2367,-0.455,-0.025
2368,-0.450,-0.025
2369,-0.475,-0.040
2370,-0.475,-0.045
2371,-0.490,-0.050
2372,-0.480,-0.050
2373,-0.460,-0.020
2374,-0.450,-0.025
2375,-0.460,-0.050
2376,-0.480,-0.055
2377,-0.490,-0.050
2378,-0.470,-0.050
2379,-0.445,-0.025
2380,-0.440,-0.025
2381,-0.445,-0.045
2382,-0.465,-0.050
2383,-0.470,-0.045
2384,-0.470,-0.035
2385,-0.460,-0.030
2386,-0.440,-0.035
2387,-0.440,-0.040
2388,-0.450,-0.040
2389,-0.465,-0.040
2390,-0.465,-0.035
2391,-0.440,-0.025
2392,-0.440,-0.025
2393,-0.460,-0.025
2394,-0.460,-0.045
2395,-0.465,-0.050
2396,-0.455,-0.035
2397,-0.430,-0.030
2398,-0.430,-0.020
2399,-0.435,-0.045
2400,-0.455,-0.060
2401,-0.470,-0.040
2402,-0.435,-0.040
2403,-0.425,-0.030
2404,-0.410,-0.025
2405,-0.415,-0.040
2406,-0.445,-0.055
2407,-0.450,-0.050
2408,-0.445,-0.040
2409,-0.430,-0.030
2410,-0.415,-0.035
2411,-0.415,-0.045
2412,-0.435,-0.055
2413,-0.450,-0.035
2414,-0.435,-0.025
2415,-0.420,-0.020
2416,-0.410,-0.020
2417,-0.405,-0.040
2418,-0.425,-0.040
2419,-0.430,-0.030
2420,-0.430,-0.020
2421,-0.420,-0.005
2422,-0.405,-0.005
2423,-0.405,-0.025
2424,-0.415,-0.030
2425,-0.415,-0.055
2426,-0.415,-0.035
2427,-0.410,-0.030
2428,-0.385,-0.035
2429,-0.390,-0.045
2430,-0.410,-0.050
2431,-0.425,-0.045
2432,-0.410,-0.025
2433,-0.405,-0.015
2434,-0.405,-0.015
2435,-0.400,-0.040
2436,-0.425,-0.040
2437,-0.425,-0.030
2438,-0.405,-0.025
2439,-0.400,-0.015
2440,-0.405,-0.005
2441,-0.395,-0.020
2442,-0.400,-0.010
2443,-0.400,-0.005
2444,-0.395,0.015
2445,-0.365,0.030
2446,-0.355,0.010
2447,-0.355,0.000
2448,-0.370,-0.005
2449,-0.370,-0.005
2450,-0.340,0.000
2451,-0.320,0.010
2452,-0.315,-0.020
2453,-0.325,-0.020
2454,-0.345,-0.030
2455,-0.355,-0.050
2456,-0.330,-0.035
2457,-0.320,-0.035
2458,-0.280,-0.050
2459,-0.295,-0.050
2460,-0.320,-0.055
2461,-0.335,-0.050
2462,-0.320,-0.030
2463,-0.300,-0.020
2464,-0.295,-0.020
2465,-0.315,-0.030
2466,-0.330,-0.025
2467,-0.350,-0.030
2468,-0.345,-0.010
2469,-0.340,-0.010
2470,-0.340,-0.020
2471,-0.355,-0.030
2472,-0.375,-0.035
2473,-0.385,-0.035
2474,-0.375,-0.010
2475,-0.370,-0.020
2476,-0.355,-0.015
2477,-0.360,-0.035
2478,-0.375,-0.035
2479,-0.370,-0.025
2480,-0.370,-0.010
2481,-0.355,0.000
2482,-0.360,-0.005
2483,-0.355,-0.015
2484,-0.365,-0.035
2485,-0.380,-0.025
2486,-0.375,-0.010
2487,-0.350,0.005
2488,-0.350,-0.010
2489,-0.330,-0.010
2490,-0.345,-0.010
2491,-0.345,-0.015
2492,-0.340,0.015
2493,-0.315,0.040
2494,-0.320,0.065
2495,-0.310,0.085
2496,-0.335,0.110
2497,-0.355,0.160
2498,-0.370,0.205
2499,-0.395,0.220
2500,-0.405,0.200
2501,-0.435,0.165
2502,-0.450,0.110
2503,-0.425,0.040
2504,-0.315,-0.060
2505,-0.090,-0.145
2506,0.285,-0.260
2507,0.750,-0.360
2508,1.225,-0.405
2509,1.645,-0.360
2510,1.950,-0.280
2511,2.075,-0.165
2512,2.015,-0.085
2513,1.670,-0.040
2514,1.045,-0.040
2515,0.405,-0.040
2516,-0.235,-0.040
2517,-0.615,-0.010
2518,-0.615,-0.005
2519,-0.530,0.010
2520,-0.500,0.015
2521,-0.510,0.020
2522,-0.515,0.025
2523,-0.510,0.030
2524,-0.500,0.025
2525,-0.475,0.015
2526,-0.470,0.005
2527,-0.440,0.020
2528,-0.390,0.025
2529,-0.330,0.035
2530,-0.280,0.040
2531,-0.260,0.030
2532,-0.285,0.015
2533,-0.275,0.025
2534,-0.280,0.035
2535,-0.270,0.040
2536,-0.245,0.035
2537,-0.250,0.005
2538,-0.255,0.005
2539,-0.260,0.000
2540,-0.250,0.020
2541,-0.230,0.030
2542,-0.220,0.030
2543,-0.240,0.020
2544,-0.230,0.000
2545,-0.245,-0.005
2546,-0.230,0.020
2547,-0.210,0.030
2548,-0.200,0.020
2549,-0.200,0.020
2550,-0.215,0.010
2551,-0.215,0.010
2552,-0.210,0.035
2553,-0.185,0.035
2554,-0.180,0.030
2555,-0.185,0.020
2556,-0.205,0.015
2557,-0.205,0.010
2558,-0.190,0.020
2559,-0.170,0.045
2560,-0.160,0.035
2561,-0.165,0.035
2562,-0.180,0.010
2563,-0.180,0.025
2564,-0.165,0.035
2565,-0.155,0.035
2566,-0.135,0.020
2567,-0.150,0.015
2568,-0.150,0.000
2569,-0.155,0.005
2570,-0.155,0.020
2571,-0.145,0.035
2572,-0.130,0.025
2573,-0.145,0.030
2574,-0.150,0.015
2575,-0.145,0.020
2576,-0.120,0.020
2577,-0.105,0.040
2578,-0.095,0.030
2579,-0.110,0.010
2580,-0.100,0.005
2581,-0.115,0.020
2582,-0.090,0.020
2583,-0.075,0.040
2584,-0.060,0.025
2585,-0.060,0.010
2586,-0.060,0.005
2587,-0.070,-0.005
2588,-0.035,0.020
2589,-0.010,0.030
2590,-0.005,0.025
2591,-0.005,0.015
2592,0.010,0.010
2593,0.010,0.000
2594,0.025,0.020
2595,0.045,0.020
2596,0.055,0.025
2597,0.060,0.000
2598,0.065,0.005
2599,0.070,0.000
2600,0.100,0.015
2601,0.135,0.020
2602,0.155,0.015
2603,0.170,0.005
2604,0.160,0.005
2605,0.195,-0.005
2606,0.215,0.005
2607,0.260,0.020
2608,0.285,-0.005
2609,0.300,-0.005
2610,0.310,-0.020
2611,0.310,-0.010
2612,0.365,-0.010
2613,0.410,-0.005
2614,0.445,-0.005
2615,0.455,-0.030
2616,0.475,-0.025
2617,0.505,-0.020
2618,0.540,-0.020
2619,0.580,-0.015
2620,0.615,-0.020
2621,0.630,-0.025
2622,0.645,-0.035
2623,0.665,-0.045
2624,0.705,-0.035
2625,0.750,-0.025
2626,0.770,-0.030
2627,0.795,-0.030
2628,0.800,-0.060
2629,0.815,-0.055
2630,0.850,-0.030
2631,0.880,-0.020
2632,0.890,-0.025
2633,0.895,-0.025
2634,0.880,-0.030
2635,0.865,-0.025
2636,0.855,-0.005
2637,0.855,0.005
2638,0.835,0.010
2639,0.780,0.005
2640,0.720,0.000
2641,0.670,0.010
2642,0.610,0.020
2643,0.580,0.035
2644,0.515,0.035
2645,0.450,0.015
2646,0.355,0.025
2647,0.285,0.020
2648,0.225,0.040
2649,0.175,0.040
2650,0.115,0.040
2651,0.055,0.030
2652,-0.005,0.025
2653,-0.060,0.030
2654,-0.100,0.045
2655,-0.105,0.050
2656,-0.135,0.050
2657,-0.170,0.040
2658,-0.205,0.030
2659,-0.240,0.035
2660,-0.255,0.055
2661,-0.245,0.060
2662,-0.250,0.055
2663,-0.265,0.035
2664,-0.290,0.035
2665,-0.300,0.035
2666,-0.300,0.040
2667,-0.295,0.065
2668,-0.290,0.050
2669,-0.305,0.035
2670,-0.325,0.025
2671,-0.335,0.035
2672,-0.325,0.035
2673,-0.315,0.060
2674,-0.315,0.040
2675,-0.315,0.040
2676,-0.330,0.035
2677,-0.335,0.045
2678,-0.350,0.060
2679,-0.320,0.065
2680,-0.320,0.050
2681,-0.315,0.045
2682,-0.335,0.030
2683,-0.340,0.030
2684,-0.345,0.055
2685,-0.325,0.060
2686,-0.315,0.065
2687,-0.315,0.040
2688,-0.325,0.030
2689,-0.325,0.035
2690,-0.325,0.050
2691,-0.315,0.070
2692,-0.310,0.060
2693,-0.305,0.040
2694,-0.325,0.035
2695,-0.325,0.045
2696,-0.320,0.050
2697,-0.315,0.065
2698,-0.305,0.070
2699,-0.305,0.045
2700,-0.325,0.035
2701,-0.320,0.030
2702,-0.310,0.035
2703,-0.300,0.070
2704,-0.290,0.060
2705,-0.305,0.045
2706,-0.315,0.035
2707,-0.320,0.030
2708,-0.305,0.055
2709,-0.300,0.065
2710,-0.285,0.055
2711,-0.290,0.035
2712,-0.310,0.025
2713,-0.310,0.040
2714,-0.310,0.050
2715,-0.300,0.065
2716,-0.285,0.055
2717,-0.295,0.040
2718,-0.310,0.030
2719,-0.305,0.035
2720,-0.320,0.050
2721,-0.300,0.060
2722,-0.295,0.055
2723,-0.310,0.040
2724,-0.340,0.045
2725,-0.330,0.040
2726,-0.325,0.050
2727,-0.315,0.055
2728,-0.300,0.050
2729,-0.305,0.040
2730,-0.310,0.030
2731,-0.335,0.030
2732,-0.320,0.045
2733,-0.310,0.070
2734,-0.310,0.050
2735,-0.310,0.045
2736,-0.335,0.025
2737,-0.335,0.030
2738,-0.345,0.050
2739,-0.325,0.060
2740,-0.305,0.055
2741,-0.320,0.035
2742,-0.340,0.020
2743,-0.340,0.040
2744,-0.340,0.050
2745,-0.325,0.065
2746,-0.325,0.050
2747,-0.335,0.030
2748,-0.330,0.025
2749,-0.340,0.035
2750,-0.330,0.050
2751,-0.330,0.045
2752,-0.320,0.045
2753,-0.320,0.035
2754,-0.340,0.010
2755,-0.335,0.030
2756,-0.330,0.040
2757,-0.315,0.055
2758,-0.310,0.045
2759,-0.325,0.035
2760,-0.340,0.035
2761,-0.355,0.030
2762,-0.345,0.035
2763,-0.335,0.060
2764,-0.325,0.045
2765,-0.325,0.025
2766,-0.325,0.030
2767,-0.340,0.040
2768,-0.330,0.050
2769,-0.305,0.055
2770,-0.305,0.045
2771,-0.325,0.025
2772,-0.345,0.020
2773,-0.345,0.030
2774,-0.340,0.030
2775,-0.320,0.050
2776,-0.325,0.040
2777,-0.335,0.030
2778,-0.345,0.020
2779,-0.330,0.020
2780,-0.340,0.045
2781,-0.330,0.060
2782,-0.315,0.055
2783,-0.320,0.035
2784,-0.325,0.035
2785,-0.320,0.040
2786,-0.315,0.030
2787,-0.315,0.040
2788,-0.300,0.045
2789,-0.305,0.025
2790,-0.320,0.020
2791,-0.315,0.025
2792,-0.310,0.045
2793,-0.300,0.055
2794,-0.310,0.045
2795,-0.305,0.045
2796,-0.325,0.030
2797,-0.330,0.030
2798,-0.315,0.040
2799,-0.310,0.055
2800,-0.290,0.045
2801,-0.295,0.045
2802,-0.305,0.030
2803,-0.320,0.030
2804,-0.305,0.050
2805,-0.295,0.055
2806,-0.295,0.065
2807,-0.290,0.055
2808,-0.305,0.070
2809,-0.290,0.075
2810,-0.270,0.095
2811,-0.255,0.100
2812,-0.245,0.105
2813,-0.235,0.080
2814,-0.255,0.070
2815,-0.240,0.060
2816,-0.245,0.060
2817,-0.225,0.075
2818,-0.210,0.060
2819,-0.215,0.030
2820,-0.225,0.010
2821,-0.225,0.025
2822,-0.205,0.030
2823,-0.170,0.035
2824,-0.185,0.030
2825,-0.195,0.015
2826,-0.215,0.015
2827,-0.230,0.020
2828,-0.215,0.030
2829,-0.210,0.050
2830,-0.220,0.040
2831,-0.245,0.030
2832,-0.265,0.020
2833,-0.285,0.030
2834,-0.275,0.045
2835,-0.275,0.045
2836,-0.270,0.040
2837,-0.280,0.020
2838,-0.305,0.025
2839,-0.315,0.035
2840,-0.295,0.035
2841,-0.285,0.050
2842,-0.275,0.040
2843,-0.280,0.035
2844,-0.290,0.035
2845,-0.310,0.030
2846,-0.290,0.045
2847,-0.275,0.055
2848,-0.270,0.040
2849,-0.275,0.030
2850,-0.285,0.030
2851,-0.285,0.025
2852,-0.280,0.045
2853,-0.270,0.065
2854,-0.250,0.065
2855,-0.250,0.065
2856,-0.250,0.070
2857,-0.260,0.130
2858,-0.250,0.175
2859,-0.245,0.235
2860,-0.270,0.270
2861,-0.310,0.275
2862,-0.355,0.255
2863,-0.395,0.220
2864,-0.385,0.165
2865,-0.340,0.095
2866,-0.230,-0.020
2867,-0.020,-0.145
2868,0.335,-0.255
2869,0.840,-0.360
2870,1.390,-0.380
2871,1.850,-0.310
2872,2.150,-0.210
2873,2.235,-0.120
2874,2.020,-0.045
2875,1.480,-0.005
2876,0.840,0.010
2877,0.200,0.015
2878,-0.440,0.035
2879,-0.580,0.060
2880,-0.465,0.065
2881,-0.405,0.085
2882,-0.420,0.090
2883,-0.420,0.080
2884,-0.420,0.070
2885,-0.400,0.060
2886,-0.380,0.060
2887,-0.335,0.075
2888,-0.270,0.085
2889,-0.225,0.085
2890,-0.210,0.080
2891,-0.225,0.070
2892,-0.240,0.065
2893,-0.245,0.060
2894,-0.215,0.080
2895,-0.205,0.075
2896,-0.195,0.070
2897,-0.200,0.055
2898,-0.215,0.065
2899,-0.205,0.065
2900,-0.190,0.085
2901,-0.180,0.080
2902,-0.175,0.060
2903,-0.175,0.065
2904,-0.200,0.055
2905,-0.200,0.045
2906,-0.170,0.070
2907,-0.165,0.070
2908,-0.160,0.060
2909,-0.170,0.050
2910,-0.180,0.045
2911,-0.170,0.050
2912,-0.175,0.070
2913,-0.145,0.070
2914,-0.135,0.080
2915,-0.145,0.065
2916,-0.155,0.050
2917,-0.150,0.040
2918,-0.150,0.060
2919,-0.145,0.070
2920,-0.120,0.070
2921,-0.130,0.060
2922,-0.135,0.045
2923,-0.135,0.055
2924,-0.120,0.055
2925,-0.105,0.060
2926,-0.105,0.070
2927,-0.100,0.050
2928,-0.110,0.040
2929,-0.120,0.050
2930,-0.100,0.060
2931,-0.070,0.075
2932,-0.065,0.055
2933,-0.050,0.045
2934,-0.060,0.040
2935,-0.070,0.040
2936,-0.040,0.045
2937,-0.030,0.055
2938,-0.020,0.050
2939,-0.010,0.045
2940,-0.005,0.030
2941,-0.010,0.055
2942,0.000,0.050
2943,0.030,0.065
2944,0.050,0.060
2945,0.055,0.040
2946,0.065,0.025
2947,0.070,0.030
2948,0.095,0.055
2949,0.120,0.070
2950,0.145,0.060
2951,0.150,0.040
2952,0.170,0.020
2953,0.185,0.025
2954,0.210,0.030
2955,0.245,0.050
2956,0.270,0.040
2957,0.275,0.030
2958,0.300,0.015
2959,0.305,0.030
2960,0.340,0.050
2961,0.385,0.045
2962,0.430,0.030
2963,0.440,0.005
2964,0.475,-0.005
2965,0.500,0.005
2966,0.540,0.010
2967,0.585,0.030
2968,0.615,0.025
2969,0.630,-0.005
2970,0.650,0.005
2971,0.670,0.000
2972,0.710,0.000
2973,0.750,0.020
2974,0.795,0.020
2975,0.815,0.005
2976,0.835,-0.015
2977,0.850,-0.015
2978,0.880,0.005
2979,0.920,0.010
2980,0.930,0.015
2981,0.935,0.005
2982,0.915,0.000
2983,0.905,0.010
2984,0.900,0.025
2985,0.885,0.040
2986,0.855,0.035
2987,0.800,0.030
2988,0.730,0.025
2989,0.660,0.030
2990,0.605,0.050
2991,0.540,0.060
2992,0.480,0.050
2993,0.420,0.040
2994,0.345,0.040
2995,0.255,0.040
2996,0.195,0.055
2997,0.155,0.075
2998,0.100,0.065
2999,0.040,0.050
3000,-0.010,0.035
3001,-0.075,0.035
3002,-0.100,0.050
3003,-0.115,0.060
3004,-0.145,0.060
3005,-0.175,0.040
3006,-0.225,0.025
3007,-0.235,0.045
3008,-0.240,0.050
3009,-0.245,0.055
3010,-0.245,0.050
3011,-0.270,0.040
3012,-0.295,0.030
3013,-0.310,0.040
3014,-0.320,0.035
3015,-0.310,0.060
3016,-0.305,0.050
3017,-0.335,0.040
3018,-0.340,0.030
3019,-0.340,0.035
3020,-0.340,0.040
3021,-0.340,0.055
3022,-0.330,0.060
3023,-0.330,0.045
3024,-0.350,0.045
3025,-0.350,0.050
3026,-0.340,0.055
3027,-0.345,0.065
3028,-0.325,0.050
3029,-0.330,0.045
3030,-0.350,0.040
3031,-0.350,0.050
3032,-0.355,0.065
3033,-0.350,0.070
3034,-0.335,0.055
3035,-0.335,0.050
3036,-0.355,0.030
3037,-0.365,0.050
3038,-0.345,0.050
3039,-0.335,0.070
3040,-0.320,0.070
3041,-0.340,0.055
3042,-0.340,0.045
3043,-0.355,0.050
3044,-0.345,0.060
3045,-0.325,0.065
3046,-0.330,0.060
3047,-0.350,0.040
3048,-0.335,0.040
3049,-0.335,0.050
3050,-0.335,0.055
3051,-0.330,0.060
3052,-0.330,0.065
3053,-0.335,0.060
3054,-0.340,0.040
3055,-0.365,0.040
3056,-0.360,0.060
3057,-0.330,0.065
3058,-0.320,0.055
3059,-0.330,0.055
3060,-0.345,0.040
3061,-0.355,0.030
3062,-0.340,0.060
3063,-0.345,0.060
3064,-0.330,0.050
3065,-0.330,0.050
3066,-0.355,0.035
3067,-0.355,0.055
3068,-0.370,0.065
3069,-0.345,0.070
3070,-0.340,0.070
3071,-0.345,0.055
3072,-0.365,0.045
3073,-0.365,0.045
3074,-0.355,0.055
3075,-0.345,0.070
3076,-0.355,0.070
3077,-0.370,0.050
3078,-0.385,0.040
3079,-0.395,0.045
3080,-0.380,0.055
3081,-0.365,0.070
3082,-0.360,0.065
3083,-0.385,0.055
3084,-0.390,0.050
3085,-0.400,0.050
3086,-0.380,0.060
3087,-0.365,0.065
3088,-0.375,0.060
3089,-0.385,0.050
3090,-0.400,0.035
3091,-0.405,0.035
3092,-0.410,0.060
3093,-0.385,0.065
3094,-0.370,0.060
3095,-0.375,0.050
3096,-0.400,0.045
3097,-0.415,0.050
3098,-0.405,0.070
3099,-0.400,0.075
3100,-0.380,0.070
3101,-0.385,0.060
3102,-0.405,0.050
3103,-0.410,0.060
3104,-0.415,0.065
3105,-0.385,0.080
3106,-0.390,0.070
3107,-0.390,0.065
3108,-0.405,0.045
3109,-0.410,0.055
3110,-0.410,0.060
3111,-0.385,0.075
3112,-0.390,0.065
3113,-0.395,0.065
3114,-0.415,0.050
3115,-0.415,0.050
3116,-0.420,0.075
3117,-0.395,0.085
3118,-0.405,0.080
3119,-0.405,0.055
3120,-0.425,0.050
3121,-0.425,0.060
3122,-0.410,0.070
3123,-0.405,0.090
3124,-0.410,0.080
3125,-0.415,0.060
3126,-0.415,0.055
3127,-0.435,0.065
3128,-0.440,0.080
3129,-0.415,0.095
3130,-0.410,0.085
3131,-0.410,0.070
3132,-0.445,0.055
3133,-0.440,0.060
3134,-0.440,0.085
3135,-0.425,0.085
3136,-0.405,0.090
3137,-0.415,0.070
3138,-0.425,0.060
3139,-0.425,0.065
3140,-0.430,0.080
3141,-0.415,0.100
3142,-0.400,0.085
3143,-0.405,0.075
3144,-0.420,0.075
3145,-0.430,0.070
3146,-0.425,0.085
3147,-0.405,0.095
3148,-0.405,0.085
3149,-0.415,0.085
3150,-0.435,0.065
3151,-0.450,0.075
3152,-0.430,0.085
3153,-0.425,0.095
3154,-0.425,0.085
3155,-0.425,0.075
3156,-0.445,0.070
3157,-0.445,0.080
3158,-0.440,0.085
3159,-0.430,0.105
3160,-0.415,0.100
3161,-0.430,0.080
3162,-0.445,0.070
3163,-0.450,0.080
3164,-0.440,0.090
3165,-0.420,0.110
3166,-0.410,0.100
3167,-0.440,0.085
3168,-0.465,0.075
3169,-0.445,0.090
3170,-0.435,0.100
3171,-0.415,0.100
3172,-0.425,0.105
3173,-0.420,0.095
3174,-0.435,0.080
3175,-0.460,0.090
3176,-0.435,0.095
3177,-0.425,0.110
3178,-0.420,0.110
3179,-0.425,0.090
3180,-0.440,0.090
3181,-0.445,0.095
3182,-0.450,0.105
3183,-0.445,0.110
3184,-0.425,0.100
3185,-0.445,0.105
3186,-0.445,0.095
3187,-0.455,0.105
3188,-0.455,0.115
3189,-0.430,0.130
3190,-0.445,0.125
3191,-0.445,0.115
3192,-0.455,0.130
3193,-0.445,0.145
3194,-0.425,0.165
3195,-0.405,0.180
3196,-0.400,0.180
3197,-0.395,0.140
3198,-0.405,0.115
3199,-0.405,0.135
3200,-0.405,0.125
3201,-0.385,0.120
3202,-0.380,0.095
3203,-0.360,0.085
3204,-0.375,0.075
3205,-0.385,0.095
3206,-0.380,0.110
3207,-0.370,0.130
3208,-0.380,0.120
3209,-0.370,0.125
3210,-0.385,0.100
3211,-0.415,0.120
3212,-0.410,0.140
3213,-0.405,0.155
3214,-0.410,0.130
3215,-0.435,0.115
3216,-0.460,0.100
3217,-0.460,0.110
3218,-0.460,0.135
3219,-0.440,0.145
3220,-0.440,0.135
3221,-0.455,0.120
3222,-0.460,0.115
3223,-0.460,0.125
3224,-0.455,0.140
3225,-0.435,0.150
3226,-0.430,0.150
3227,-0.435,0.120
3228,-0.460,0.130
3229,-0.455,0.135
3230,-0.460,0.155
3231,-0.435,0.160
3232,-0.425,0.155
3233,-0.425,0.165
3234,-0.450,0.155
3235,-0.440,0.165
3236,-0.430,0.220
3237,-0.410,0.275
3238,-0.420,0.315
3239,-0.445,0.345
3240,-0.495,0.355
3241,-0.535,0.350
3242,-0.560,0.315
3243,-0.540,0.260
3244,-0.485,0.130
3245,-0.315,0.000
3246,-0.010,-0.125
3247,0.435,-0.235
3248,1.010,-0.260
3249,1.510,-0.235
3250,1.840,-0.155
3251,2.010,-0.075
3252,1.980,0.015
3253,1.715,0.080
3254,1.170,0.110
3255,0.530,0.110
3256,-0.110,0.110
3257,-0.750,0.125
3258,-0.770,0.160
3259,-0.670,0.185
3260,-0.620,0.200
3261,-0.590,0.210
3262,-0.615,0.195
3263,-0.615,0.180
3264,-0.610,0.185
3265,-0.575,0.200
3266,-0.520,0.220
3267,-0.465,0.225
3268,-0.440,0.220
3269,-0.420,0.190
3270,-0.440,0.195
3271,-0.455,0.200
3272,-0.435,0.215
3273,-0.415,0.220
3274,-0.425,0.235
3275,-0.425,0.205
3276,-0.435,0.205
3277,-0.445,0.200
3278,-0.425,0.225
3279,-0.420,0.240
3280,-0.405,0.235
3281,-0.415,0.225
3282,-0.425,0.210
3283,-0.420,0.225
3284,-0.415,0.225
3285,-0.395,0.240
3286,-0.410,0.240
3287,-0.405,0.225
3288,-0.405,0.220
3289,-0.420,0.225
3290,-0.410,0.230
3291,-0.385,0.235
3292,-0.390,0.235
3293,-0.400,0.215
3294,-0.410,0.215
3295,-0.410,0.230
3296,-0.405,0.245
3297,-0.375,0.255
3298,-0.370,0.245
3299,-0.385,0.230
3300,-0.380,0.225
3301,-0.395,0.220
3302,-0.380,0.235
3303,-0.365,0.245
3304,-0.360,0.240
3305,-0.375,0.230
3306,-0.385,0.220
3307,-0.385,0.225
3308,-0.380,0.240
3309,-0.350,0.255
3310,-0.345,0.245
3311,-0.350,0.230
3312,-0.350,0.220
3313,-0.345,0.225
3314,-0.330,0.235
3315,-0.325,0.255
3316,-0.315,0.245
3317,-0.320,0.230
3318,-0.325,0.220
3319,-0.325,0.230
3320,-0.305,0.240
3321,-0.295,0.255
3322,-0.295,0.240
3323,-0.280,0.240
3324,-0.285,0.225
3325,-0.275,0.235
3326,-0.270,0.235
3327,-0.240,0.260
3328,-0.230,0.255
3329,-0.230,0.240
3330,-0.235,0.225
3331,-0.245,0.235
3332,-0.215,0.240
3333,-0.175,0.260
3334,-0.165,0.250
3335,-0.155,0.240
3336,-0.165,0.230
3337,-0.150,0.230
3338,-0.115,0.240
3339,-0.095,0.250
3340,-0.080,0.245
3341,-0.065,0.225
3342,-0.060,0.220
3343,-0.055,0.220
3344,-0.010,0.230
3345,0.035,0.240
3346,0.050,0.250
3347,0.070,0.225
3348,0.085,0.220
3349,0.115,0.220
3350,0.140,0.235
3351,0.185,0.240
3352,0.220,0.240
3353,0.255,0.215
3354,0.270,0.205
3355,0.280,0.220
3356,0.315,0.225
3357,0.365,0.240
3358,0.400,0.230
3359,0.425,0.215
3360,0.435,0.205
3361,0.460,0.215
3362,0.505,0.220
3363,0.530,0.220
3364,0.555,0.220
3365,0.575,0.195
3366,0.590,0.205
3367,0.610,0.215
3368,0.635,0.225
3369,0.645,0.235
3370,0.650,0.240
3371,0.620,0.230
3372,0.580,0.220
3373,0.565,0.240
3374,0.530,0.255
3375,0.490,0.255
3376,0.440,0.250
3377,0.370,0.250
3378,0.285,0.245
3379,0.215,0.240
3380,0.160,0.260
3381,0.105,0.270
3382,0.050,0.275
3383,-0.035,0.250
3384,-0.090,0.260
3385,-0.170,0.250
3386,-0.215,0.265
3387,-0.260,0.285
3388,-0.285,0.285
3389,-0.330,0.270
3390,-0.385,0.255
3391,-0.415,0.270
3392,-0.430,0.275
3393,-0.450,0.280
3394,-0.450,0.270
3395,-0.475,0.255
3396,-0.495,0.250
3397,-0.520,0.260
3398,-0.505,0.280
3399,-0.505,0.280
3400,-0.515,0.280
3401,-0.525,0.260
3402,-0.540,0.250
3403,-0.555,0.265
3404,-0.555,0.280
3405,-0.545,0.285
3406,-0.550,0.275
3407,-0.550,0.275
3408,-0.565,0.255
3409,-0.570,0.255
3410,-0.555,0.275
3411,-0.560,0.280
3412,-0.550,0.280
3413,-0.550,0.260
3414,-0.580,0.260
3415,-0.580,0.260
3416,-0.575,0.285
3417,-0.555,0.295
3418,-0.570,0.280
3419,-0.560,0.260
3420,-0.580,0.265
3421,-0.570,0.285
3422,-0.565,0.280
3423,-0.560,0.300
3424,-0.560,0.290
3425,-0.570,0.290
3426,-0.570,0.265
3427,-0.575,0.270
3428,-0.570,0.290
3429,-0.555,0.295
3430,-0.550,0.295
3431,-0.550,0.275
3432,-0.575,0.275
3433,-0.580,0.280
3434,-0.560,0.285
3435,-0.550,0.300
3436,-0.535,0.295
3437,-0.540,0.280
3438,-0.570,0.280
3439,-0.580,0.280
3440,-0.560,0.285
3441,-0.540,0.300
3442,-0.535,0.300
3443,-0.550,0.275
3444,-0.555,0.280
3445,-0.560,0.275
3446,-0.560,0.300
3447,-0.555,0.305
3448,-0.545,0.295
3449,-0.540,0.280
3450,-0.550,0.270
3451,-0.560,0.275
3452,-0.555,0.285
3453,-0.560,0.300
3454,-0.555,0.290
3455,-0.550,0.280
3456,-0.570,0.280
3457,-0.580,0.280
3458,-0.565,0.285
3459,-0.555,0.305
3460,-0.545,0.295
3461,-0.560,0.265
3462,-0.585,0.260
3463,-0.575,0.280
3464,-0.570,0.290
3465,-0.550,0.295
3466,-0.555,0.285
3467,-0.570,0.280
3468,-0.580,0.270
3469,-0.595,0.270
3470,-0.580,0.285
3471,-0.560,0.305
3472,-0.565,0.285
3473,-0.570,0.280
3474,-0.590,0.275
3475,-0.600,0.270
3476,-0.575,0.275
3477,-0.565,0.285
3478,-0.570,0.290
3479,-0.580,0.280
3480,-0.595,0.265
3481,-0.600,0.275
3482,-0.590,0.280
3483,-0.575,0.290
3484,-0.575,0.280
3485,-0.575,0.265
3486,-0.590,0.255
3487,-0.590,0.270
3488,-0.580,0.275
3489,-0.585,0.295
3490,-0.570,0.275
3491,-0.575,0.280
3492,-0.590,0.260
3493,-0.585,0.275
3494,-0.580,0.280
3495,-0.570,0.295
3496,-0.575,0.280
3497,-0.555,0.280
3498,-0.575,0.260
3499,-0.580,0.270
3500,-0.575,0.280
3501,-0.565,0.290
3502,-0.555,0.280
3503,-0.565,0.280
3504,-0.570,0.265
3505,-0.580,0.265
3506,-0.580,0.285
3507,-0.565,0.290
3508,-0.550,0.275
3509,-0.555,0.260
3510,-0.575,0.260
3511,-0.585,0.255
3512,-0.585,0.275
3513,-0.570,0.290
3514,-0.565,0.280
3515,-0.580,0.265
3516,-0.585,0.260
3517,-0.580,0.255
3518,-0.565,0.285
3519,-0.565,0.280
3520,-0.555,0.275
3521,-0.565,0.270
3522,-0.575,0.265
3523,-0.570,0.270
3524,-0.560,0.280
3525,-0.555,0.280
3526,-0.550,0.275
3527,-0.570,0.255
3528,-0.570,0.255
3529,-0.565,0.270
3530,-0.580,0.280
3531,-0.550,0.290
3532,-0.550,0.280
3533,-0.550,0.270
3534,-0.565,0.260
3535,-0.580,0.265
3536,-0.565,0.280
3537,-0.545,0.295
3538,-0.535,0.285
3539,-0.545,0.265
3540,-0.555,0.265
3541,-0.570,0.280
3542,-0.555,0.275
3543,-0.535,0.295
3544,-0.530,0.285
3545,-0.545,0.270
3546,-0.560,0.255
3547,-0.555,0.260
3548,-0.555,0.270
3549,-0.525,0.270
3550,-0.525,0.270
3551,-0.550,0.275
3552,-0.550,0.255
3553,-0.545,0.255
3554,-0.535,0.280
3555,-0.515,0.285
3556,-0.515,0.270
3557,-0.520,0.265
3558,-0.540,0.250
3559,-0.545,0.265
3560,-0.545,0.270
3561,-0.515,0.270
3562,-0.505,0.270
3563,-0.515,0.265
3564,-0.535,0.240
3565,-0.540,0.255
3566,-0.530,0.270
3567,-0.510,0.285
3568,-0.505,0.270
3569,-0.525,0.265
3570,-0.520,0.255
3571,-0.520,0.255
3572,-0.520,0.270
3573,-0.505,0.290
3574,-0.510,0.285
3575,-0.500,0.270
3576,-0.515,0.250
3577,-0.505,0.255
3578,-0.505,0.270
3579,-0.505,0.295
3580,-0.505,0.265
3581,-0.505,0.265
3582,-0.520,0.260
3583,-0.525,0.260
3584,-0.500,0.270
3585,-0.475,0.295
3586,-0.470,0.295
3587,-0.480,0.290
3588,-0.475,0.300
3589,-0.475,0.290
3590,-0.460,0.310
3591,-0.435,0.310
3592,-0.430,0.295
3593,-0.430,0.285
3594,-0.435,0.265
3595,-0.435,0.270
3596,-0.450,0.255
3597,-0.420,0.255
3598,-0.400,0.245
3599,-0.400,0.225
3600,-0.420,0.225
3601,-0.425,0.235
3602,-0.435,0.255
3603,-0.405,0.265
3604,-0.390,0.255
3605,-0.395,0.250
3606,-0.420,0.245
3607,-0.440,0.255
3608,-0.435,0.260
3609,-0.430,0.270
3610,-0.440,0.265
3611,-0.450,0.245
3612,-0.465,0.240
3613,-0.470,0.245
3614,-0.450,0.260
3615,-0.435,0.280
3616,-0.450,0.260
3617,-0.450,0.250
3618,-0.460,0.235
3619,-0.470,0.245
3620,-0.460,0.245
3621,-0.435,0.265
3622,-0.430,0.265
3623,-0.440,0.250
3624,-0.445,0.245
3625,-0.450,0.255
3626,-0.435,0.270
3627,-0.415,0.275
3628,-0.410,0.280
3629,-0.410,0.275
3630,-0.410,0.295
3631,-0.425,0.340
3632,-0.415,0.400
3633,-0.410,0.455
3634,-0.430,0.475
3635,-0.475,0.455
3636,-0.530,0.435
3637,-0.545,0.405
3638,-0.520,0.340
3639,-0.440,0.260
3640,-0.290,0.130
3641,-0.015,0.010
3642,0.375,-0.110
3643,0.905,-0.195
3644,1.420,-0.185
3645,1.825,-0.115
3646,2.055,-0.020
3647,2.110,0.070
3648,1.945,0.135
3649,1.500,0.190
3650,0.860,0.200
3651,0.220,0.195
3652,-0.420,0.195
3653,-0.705,0.205
3654,-0.655,0.230
3655,-0.580,0.260
3656,-0.555,0.270
3657,-0.550,0.280
3658,-0.565,0.280
3659,-0.565,0.265
3660,-0.545,0.260
3661,-0.505,0.275
3662,-0.460,0.280
3663,-0.390,0.295
3664,-0.365,0.280
3665,-0.355,0.265
3666,-0.365,0.250
3667,-0.370,0.275
3668,-0.350,0.280
3669,-0.350,0.280
3670,-0.320,0.280
3671,-0.325,0.260
3672,-0.340,0.260
3673,-0.340,0.275
3674,-0.340,0.280
3675,-0.315,0.300
3676,-0.315,0.275
3677,-0.315,0.270
3678,-0.320,0.260
3679,-0.335,0.265
3680,-0.320,0.290
3681,-0.300,0.290
3682,-0.295,0.265
3683,-0.305,0.260
3684,-0.310,0.250
3685,-0.320,0.260
3686,-0.310,0.260
3687,-0.285,0.280
3688,-0.270,0.275
3689,-0.285,0.260
3690,-0.285,0.245
3691,-0.290,0.255
3692,-0.295,0.270
3693,-0.270,0.270
3694,-0.270,0.265
3695,-0.265,0.245
3696,-0.280,0.240
3697,-0.295,0.255
3698,-0.265,0.270
3699,-0.250,0.270
3700,-0.230,0.265
3701,-0.245,0.235
3702,-0.255,0.240
3703,-0.250,0.240
3704,-0.245,0.260
3705,-0.235,0.260
3706,-0.225,0.255
3707,-0.225,0.230
3708,-0.235,0.225
3709,-0.215,0.240
3710,-0.205,0.245
3711,-0.195,0.260
3712,-0.195,0.250
3713,-0.185,0.235
3714,-0.195,0.225
3715,-0.195,0.230
3716,-0.175,0.240
3717,-0.160,0.255
3718,-0.145,0.250
3719,-0.150,0.230
3720,-0.155,0.225
3721,-0.155,0.225
3722,-0.140,0.235
3723,-0.105,0.235
3724,-0.095,0.245
3725,-0.095,0.235
3726,-0.105,0.215
3727,-0.105,0.230
3728,-0.080,0.225
3729,-0.060,0.240
3730,-0.045,0.240
3731,-0.040,0.220
3732,-0.030,0.215
3733,-0.040,0.215
3734,-0.010,0.225
3735,0.020,0.230
3736,0.040,0.235
3737,0.055,0.230
3738,0.040,0.200
3739,0.060,0.205
3740,0.090,0.220
3741,0.125,0.235
3742,0.150,0.215
3743,0.165,0.200
3744,0.175,0.190
3745,0.195,0.205
3746,0.220,0.210
3747,0.250,0.220
3748,0.285,0.200
3749,0.315,0.190
3750,0.325,0.175
3751,0.340,0.180
3752,0.395,0.190
3753,0.440,0.195
3754,0.475,0.185
3755,0.495,0.180
3756,0.515,0.160
3757,0.540,0.185
3758,0.580,0.185
3759,0.625,0.200
3760,0.670,0.180
3761,0.680,0.175
3762,0.700,0.170
3763,0.720,0.155
3764,0.730,0.175
3765,0.765,0.190
3766,0.810,0.180
3767,0.790,0.160
3768,0.800,0.155
3769,0.780,0.160
3770,0.790,0.180
3771,0.780,0.200
3772,0.745,0.190
3773,0.715,0.195
3774,0.660,0.180
3775,0.580,0.195
3776,0.545,0.210
3777,0.495,0.215
3778,0.430,0.205
3779,0.355,0.190
3780,0.295,0.185
3781,0.220,0.195
3782,0.165,0.210
3783,0.110,0.220
3784,0.060,0.220
3785,-0.015,0.195
3786,-0.085,0.190
3787,-0.120,0.190
3788,-0.150,0.210
3789,-0.165,0.210
3790,-0.185,0.210
3791,-0.230,0.195
3792,-0.260,0.190
3793,-0.285,0.195
3794,-0.290,0.210
3795,-0.295,0.215
3796,-0.315,0.220
3797,-0.330,0.200
3798,-0.345,0.180
3799,-0.365,0.175
3800,-0.350,0.190
3801,-0.345,0.200
3802,-0.350,0.195
3803,-0.355,0.190
3804,-0.370,0.175
3805,-0.385,0.185
3806,-0.390,0.195
3807,-0.360,0.205
3808,-0.370,0.205
3809,-0.370,0.185
3810,-0.400,0.180
3811,-0.390,0.195
3812,-0.395,0.200
3813,-0.385,0.215
3814,-0.380,0.210
3815,-0.380,0.200
3816,-0.390,0.175
3817,-0.395,0.180
3818,-0.385,0.205
3819,-0.375,0.205
3820,-0.365,0.210
3821,-0.375,0.175
3822,-0.385,0.185
3823,-0.395,0.175
3824,-0.380,0.200
3825,-0.380,0.215
3826,-0.385,0.190
3827,-0.370,0.180
3828,-0.385,0.170
3829,-0.380,0.185
3830,-0.375,0.210
3831,-0.365,0.210
3832,-0.365,0.195
3833,-0.365,0.180
3834,-0.390,0.175
3835,-0.385,0.170
3836,-0.370,0.180
3837,-0.355,0.200
3838,-0.350,0.200
3839,-0.355,0.175
3840,-0.375,0.170
3841,-0.380,0.175
3842,-0.375,0.185
3843,-0.365,0.200
3844,-0.360,0.190
3845,-0.360,0.180
3846,-0.370,0.180
3847,-0.375,0.185
3848,-0.365,0.190
3849,-0.360,0.195
3850,-0.355,0.180
3851,-0.365,0.160
3852,-0.380,0.160
3853,-0.385,0.170
3854,-0.375,0.175
3855,-0.355,0.180
3856,-0.360,0.185
3857,-0.370,0.175
3858,-0.380,0.165
3859,-0.380,0.165
3860,-0.370,0.175
3861,-0.360,0.175
3862,-0.365,0.175
3863,-0.370,0.155
3864,-0.400,0.155
3865,-0.405,0.160
3866,-0.400,0.170
3867,-0.380,0.185
3868,-0.370,0.180
3869,-0.375,0.160
3870,-0.390,0.155
3871,-0.385,0.140
3872,-0.385,0.165
3873,-0.360,0.175
3874,-0.370,0.180
3875,-0.380,0.160
3876,-0.395,0.145
3877,-0.380,0.155
3878,-0.365,0.175
3879,-0.355,0.175
3880,-0.360,0.170
3881,-0.365,0.160
3882,-0.375,0.155
3883,-0.385,0.155
3884,-0.370,0.165
3885,-0.365,0.175
3886,-0.355,0.160
3887,-0.370,0.140
3888,-0.380,0.140
3889,-0.390,0.150
3890,-0.380,0.165
3891,-0.375,0.170
3892,-0.355,0.170
3893,-0.380,0.155
3894,-0.390,0.140
3895,-0.385,0.150
3896,-0.375,0.150
3897,-0.355,0.170
3898,-0.365,0.155
3899,-0.365,0.145
3900,-0.380,0.125
3901,-0.370,0.135
3902,-0.370,0.150
3903,-0.355,0.165
3904,-0.365,0.160
3905,-0.350,0.140
3906,-0.365,0.130
3907,-0.380,0.140
3908,-0.360,0.145
3909,-0.350,0.145
3910,-0.340,0.150
3911,-0.355,0.130
3912,-0.360,0.120
3913,-0.360,0.125
3914,-0.345,0.150
3915,-0.345,0.150
3916,-0.335,0.140
3917,-0.340,0.130
3918,-0.355,0.130
3919,-0.370,0.125
3920,-0.355,0.135
3921,-0.330,0.140
3922,-0.330,0.130
3923,-0.355,0.115
3924,-0.360,0.125
3925,-0.350,0.130
3926,-0.335,0.145
3927,-0.325,0.145
3928,-0.325,0.130
3929,-0.330,0.130
3930,-0.340,0.115
3931,-0.355,0.125
3932,-0.330,0.130
3933,-0.325,0.140
3934,-0.325,0.145
3935,-0.320,0.120
3936,-0.350,0.115
3937,-0.335,0.120
3938,-0.325,0.135
3939,-0.315,0.140
3940,-0.305,0.135
3941,-0.315,0.115
3942,-0.320,0.115
3943,-0.350,0.120
3944,-0.330,0.130
3945,-0.305,0.135
3946,-0.305,0.130
3947,-0.320,0.125
3948,-0.330,0.115
3949,-0.315,0.120
3950,-0.305,0.130
3951,-0.285,0.140
3952,-0.285,0.160
3953,-0.285,0.155
3954,-0.290,0.160
3955,-0.285,0.160
3956,-0.280,0.170
3957,-0.260,0.175
3958,-0.245,0.160
3959,-0.240,0.135
3960,-0.250,0.110
3961,-0.255,0.115
3962,-0.250,0.125
3963,-0.225,0.125
3964,-0.215,0.115
3965,-0.215,0.085
3966,-0.210,0.060
3967,-0.220,0.070
3968,-0.225,0.105
3969,-0.215,0.120
3970,-0.210,0.120
3971,-0.220,0.115
3972,-0.240,0.090
3973,-0.240,0.110
3974,-0.250,0.120
3975,-0.230,0.135
3976,-0.245,0.135
3977,-0.255,0.115
3978,-0.280,0.095
3979,-0.290,0.095
3980,-0.290,0.105
3981,-0.270,0.115
3982,-0.270,0.115
3983,-0.265,0.100
3984,-0.285,0.100
3985,-0.275,0.100
3986,-0.265,0.100
3987,-0.260,0.135
3988,-0.250,0.120
3989,-0.260,0.120
3990,-0.270,0.105
3991,-0.290,0.095
3992,-0.265,0.110
3993,-0.245,0.115
3994,-0.240,0.135
3995,-0.250,0.115
3996,-0.270,0.105
3997,-0.250,0.120
3998,-0.235,0.130
3999,-0.220,0.170
4000,-0.215,0.215
4001,-0.220,0.220
4002,-0.255,0.250
4003,-0.280,0.290
4004,-0.310,0.315
4005,-0.315,0.310
4006,-0.335,0.290
4007,-0.350,0.235
4008,-0.335,0.155
4009,-0.260,0.060
4010,-0.070,-0.025
4011,0.240,-0.120
4012,0.680,-0.210
4013,1.145,-0.270
4014,1.565,-0.265
4015,1.875,-0.220
4016,2.075,-0.115
4017,2.125,-0.025
4018,1.935,0.050
4019,1.425,0.065
4020,0.785,0.050
4021,0.145,0.070
4022,-0.495,0.080
4023,-0.535,0.100
4024,-0.425,0.110
4025,-0.360,0.125
4026,-0.385,0.105
4027,-0.425,0.120
4028,-0.405,0.115
4029,-0.375,0.125
4030,-0.370,0.135
4031,-0.345,0.115
4032,-0.330,0.120
4033,-0.290,0.140
4034,-0.225,0.140
4035,-0.195,0.140
4036,-0.160,0.130
4037,-0.180,0.120
4038,-0.190,0.115
4039,-0.190,0.130
4040,-0.190,0.145
4041,-0.165,0.140
4042,-0.150,0.135
4043,-0.170,0.125
4044,-0.175,0.100
4045,-0.165,0.105
4046,-0.155,0.125
4047,-0.135,0.120
4048,-0.130,0.125
4049,-0.130,0.120
4050,-0.150,0.120
4051,-0.155,0.115
4052,-0.130,0.115
4053,-0.115,0.130
4054,-0.115,0.120
4055,-0.130,0.110
4056,-0.125,0.115
4057,-0.145,0.105
4058,-0.135,0.120
4059,-0.110,0.130
4060,-0.115,0.125
4061,-0.105,0.115
4062,-0.120,0.100
4063,-0.125,0.110
4064,-0.110,0.125
4065,-0.085,0.130
4066,-0.085,0.120
4067,-0.080,0.115
4068,-0.110,0.110
4069,-0.100,0.100
4070,-0.090,0.125
4071,-0.075,0.120
4072,-0.075,0.115
4073,-0.080,0.105
4074,-0.090,0.095
4075,-0.085,0.095
4076,-0.060,0.125
4077,-0.055,0.125
4078,-0.040,0.125
4079,-0.045,0.110
4080,-0.055,0.105
4081,-0.055,0.090
4082,-0.040,0.110
4083,-0.020,0.125
4084,-0.025,0.120
4085,-0.015,0.095
4086,-0.020,0.090
4087,-0.030,0.095
4088,-0.015,0.110
4089,-0.005,0.120
4090,0.015,0.105
4091,0.015,0.095
4092,0.015,0.090
4093,0.015,0.095
4094,0.015,0.110
4095,0.055,0.125
4096,0.070,0.110
4097,0.065,0.095
4098,0.065,0.085
4099,0.065,0.105
4100,0.090,0.105
4101,0.105,0.115
4102,0.140,0.115
4103,0.120,0.090
4104,0.135,0.080
4105,0.120,0.090
4106,0.155,0.095
4107,0.165,0.115
4108,0.190,0.100
4109,0.200,0.095
4110,0.195,0.080
4111,0.200,0.080
4112,0.250,0.100
4113,0.265,0.105
4114,0.295,0.095
4115,0.300,0.085
4116,0.325,0.070
4117,0.345,0.080
4118,0.385,0.090
4119,0.415,0.085
4120,0.440,0.085
4121,0.480,0.075
4122,0.485,0.070
4123,0.500,0.065
4124,0.540,0.075
4125,0.580,0.080
4126,0.615,0.075
4127,0.640,0.060
4128,0.650,0.060
4129,0.670,0.050
4130,0.705,0.070
4131,0.735,0.065
4132,0.770,0.065
4133,0.780,0.045
4134,0.795,0.030
4135,0.805,0.035
4136,0.835,0.045
4137,0.875,0.060
4138,0.915,0.050
4139,0.925,0.055
4140,0.920,0.035
4141,0.910,0.045
4142,0.925,0.070
4143,0.930,0.090
4144,0.900,0.080
4145,0.855,0.090
4146,0.830,0.085
4147,0.770,0.085
4148,0.735,0.100
4149,0.700,0.120
4150,0.650,0.110
4151,0.585,0.105
4152,0.505,0.100
4153,0.440,0.100
4154,0.395,0.115
4155,0.340,0.120
4156,0.270,0.135
4157,0.200,0.120
4158,0.135,0.120
4159,0.075,0.120
4160,0.035,0.130
4161,0.005,0.145
4162,-0.020,0.140
4163,-0.065,0.120
4164,-0.110,0.100
4165,-0.140,0.115
4166,-0.150,0.130
4167,-0.160,0.130
4168,-0.180,0.140
4169,-0.210,0.125
4170,-0.235,0.115
4171,-0.240,0.120
4172,-0.245,0.130
4173,-0.235,0.155
4174,-0.240,0.145
4175,-0.250,0.135
4176,-0.280,0.140
4177,-0.275,0.125
4178,-0.270,0.140
4179,-0.260,0.155
4180,-0.265,0.165
4181,-0.280,0.140
4182,-0.295,0.135
4183,-0.295,0.135
4184,-0.285,0.160
4185,-0.280,0.165
4186,-0.285,0.155
4187,-0.285,0.145
4188,-0.305,0.140
4189,-0.305,0.150
4190,-0.305,0.150
4191,-0.290,0.170
4192,-0.285,0.155
4193,-0.295,0.145
4194,-0.305,0.145
4195,-0.315,0.155
4196,-0.300,0.150
4197,-0.285,0.165
4198,-0.270,0.160
4199,-0.290,0.160
4200,-0.295,0.145
4201,-0.300,0.160
4202,-0.305,0.165
4203,-0.285,0.175
4204,-0.275,0.160
4205,-0.275,0.155
4206,-0.290,0.145
4207,-0.290,0.145
4208,-0.290,0.175
4209,-0.275,0.170
4210,-0.270,0.175
4211,-0.285,0.170
4212,-0.305,0.155
4213,-0.290,0.155
4214,-0.280,0.175
4215,-0.270,0.195
4216,-0.285,0.185
4217,-0.280,0.170
4218,-0.300,0.160
4219,-0.295,0.170
4220,-0.290,0.190
4221,-0.270,0.190
4222,-0.275,0.180
4223,-0.285,0.180
4224,-0.305,0.185
4225,-0.305,0.190
4226,-0.300,0.200
4227,-0.280,0.205
4228,-0.280,0.205
4229,-0.295,0.190
4230,-0.320,0.190
4231,-0.325,0.190
4232,-0.310,0.190
4233,-0.300,0.210
4234,-0.295,0.215
4235,-0.305,0.190
4236,-0.310,0.185
4237,-0.320,0.195
4238,-0.325,0.210
4239,-0.320,0.230
4240,-0.315,0.210
4241,-0.315,0.210
4242,-0.320,0.195
4243,-0.345,0.195
4244,-0.320,0.215
4245,-0.315,0.230
4246,-0.315,0.220
4247,-0.325,0.205
4248,-0.335,0.205
4249,-0.340,0.205
4250,-0.330,0.215
4251,-0.310,0.225
4252,-0.335,0.225
4253,-0.335,0.220
4254,-0.350,0.205
4255,-0.355,0.220
4256,-0.335,0.215
4257,-0.335,0.245
4258,-0.320,0.240
4259,-0.330,0.220
4260,-0.345,0.215
4261,-0.350,0.215
4262,-0.345,0.230
4263,-0.335,0.245
4264,-0.330,0.255
4265,-0.340,0.235
4266,-0.350,0.220
4267,-0.340,0.220
4268,-0.355,0.250
4269,-0.330,0.260
4270,-0.330,0.260
4271,-0.340,0.245
4272,-0.350,0.240
4273,-0.360,0.240
4274,-0.340,0.265
4275,-0.340,0.265
4276,-0.340,0.265
4277,-0.335,0.245
4278,-0.360,0.240
4279,-0.360,0.250
4280,-0.355,0.265
4281,-0.335,0.295
4282,-0.325,0.295
4283,-0.340,0.285
4284,-0.350,0.290
4285,-0.340,0.305
4286,-0.305,0.325
4287,-0.290,0.345
4288,-0.270,0.325
4289,-0.280,0.295
4290,-0.290,0.280
4291,-0.290,0.275
4292,-0.285,0.275
4293,-0.260,0.270
4294,-0.240,0.260
4295,-0.240,0.250
4296,-0.240,0.250
4297,-0.230,0.260
4298,-0.225,0.280
4299,-0.210,0.290
4300,-0.210,0.270
4301,-0.240,0.270
4302,-0.290,0.255
4303,-0.290,0.290
4304,-0.285,0.285
4305,-0.280,0.310
4306,-0.265,0.295
4307,-0.275,0.290
4308,-0.300,0.270
4309,-0.320,0.270
4310,-0.320,0.275
4311,-0.320,0.290
4312,-0.320,0.290
4313,-0.355,0.275
4314,-0.360,0.280
4315,-0.340,0.285
4316,-0.340,0.295
4317,-0.330,0.315
4318,-0.340,0.305
4319,-0.335,0.295
4320,-0.345,0.285
4321,-0.345,0.290
4322,-0.335,0.305
4323,-0.320,0.315
4324,-0.330,0.315
4325,-0.330,0.305
4326,-0.340,0.290
4327,-0.345,0.300
4328,-0.335,0.325
4329,-0.320,0.335
4330,-0.310,0.325
4331,-0.315,0.330
4332,-0.330,0.325
4333,-0.325,0.350
4334,-0.305,0.385
4335,-0.300,0.415
4336,-0.305,0.450
4337,-0.320,0.485
4338,-0.350,0.490
4339,-0.395,0.515
4340,-0.425,0.520
4341,-0.440,0.505
4342,-0.430,0.450
4343,-0.390,0.365
4344,-0.295,0.265
4345,-0.075,0.175
4346,0.255,0.075
4347,0.710,0.010
4348,1.160,-0.040
4349,1.550,-0.040
4350,1.830,-0.010
4351,2.020,0.080
4352,2.080,0.170
4353,1.975,0.270
4354,1.575,0.310
4355,0.935,0.305
4356,0.295,0.285
4357,-0.345,0.295
4358,-0.660,0.340
4359,-0.595,0.370
4360,-0.500,0.395
4361,-0.490,0.385
4362,-0.535,0.370
4363,-0.530,0.375
4364,-0.510,0.385
4365,-0.480,0.395
4366,-0.470,0.395
4367,-0.450,0.380
4368,-0.405,0.385
4369,-0.360,0.390
4370,-0.325,0.405
4371,-0.290,0.425
4372,-0.300,0.415
4373,-0.300,0.400
4374,-0.310,0.385
4375,-0.330,0.390
4376,-0.305,0.405
4377,-0.290,0.410
4378,-0.295,0.400
4379,-0.290,0.400
4380,-0.300,0.395
4381,-0.285,0.390
4382,-0.285,0.405
4383,-0.270,0.430
4384,-0.265,0.415
4385,-0.285,0.385
4386,-0.295,0.390
4387,-0.285,0.395
4388,-0.270,0.420
4389,-0.275,0.420
4390,-0.265,0.425
4391,-0.265,0.405
4392,-0.285,0.400
4393,-0.285,0.410
4394,-0.260,0.415
4395,-0.245,0.420
4396,-0.230,0.420
4397,-0.240,0.400
4398,-0.265,0.400
4399,-0.250,0.405
4400,-0.260,0.425
4401,-0.235,0.425
4402,-0.235,0.430
4403,-0.225,0.415
4404,-0.245,0.405
4405,-0.250,0.415
4406,-0.235,0.425
4407,-0.220,0.435
4408,-0.215,0.420
4409,-0.205,0.415
4410,-0.210,0.410
4411,-0.220,0.410
4412,-0.205,0.425
4413,-0.190,0.430
4414,-0.180,0.435
4415,-0.170,0.420
4416,-0.200,0.415
4417,-0.185,0.430
4418,-0.185,0.425
4419,-0.160,0.435
4420,-0.150,0.435
4421,-0.150,0.420
4422,-0.155,0.410
4423,-0.155,0.420
4424,-0.140,0.435
4425,-0.115,0.435
4426,-0.100,0.435
4427,-0.115,0.415
4428,-0.120,0.415
4429,-0.120,0.415
4430,-0.115,0.430
4431,-0.085,0.440
4432,-0.065,0.445
4433,-0.065,0.430
4434,-0.065,0.420
4435,-0.060,0.425
4436,-0.045,0.435
4437,-0.020,0.430
4438,0.000,0.440
4439,-0.005,0.425
4440,0.010,0.415
4441,0.015,0.430
4442,0.035,0.440
4443,0.050,0.450
4444,0.070,0.435
4445,0.080,0.425
4446,0.090,0.415
4447,0.110,0.410
4448,0.135,0.415
4449,0.165,0.445
4450,0.190,0.430
4451,0.210,0.420
4452,0.210,0.420
4453,0.245,0.420
4454,0.270,0.430
4455,0.310,0.425
4456,0.340,0.420
4457,0.380,0.415
4458,0.385,0.400
4459,0.405,0.405
4460,0.435,0.430
4461,0.470,0.445
4462,0.530,0.420
4463,0.560,0.400
4464,0.570,0.390
4465,0.605,0.395
4466,0.645,0.415
4467,0.680,0.435
4468,0.715,0.420
4469,0.735,0.400
4470,0.735,0.395
4471,0.755,0.395
4472,0.800,0.410
4473,0.825,0.420
4474,0.860,0.425
4475,0.845,0.405
4476,0.845,0.415
4477,0.830,0.420
4478,0.815,0.440
4479,0.810,0.455
4480,0.780,0.455
4481,0.720,0.445
4482,0.655,0.430
4483,0.595,0.455
4484,0.525,0.460
4485,0.475,0.490
4486,0.405,0.470
4487,0.330,0.470
4488,0.245,0.465
4489,0.165,0.470
4490,0.110,0.485
4491,0.060,0.490
4492,0.015,0.490
4493,-0.045,0.480
4494,-0.095,0.465
4495,-0.140,0.475
4496,-0.185,0.485
4497,-0.190,0.490
4498,-0.220,0.490
4499,-0.250,0.470
4500,-0.290,0.445
4501,-0.315,0.450
4502,-0.315,0.485
4503,-0.320,0.490
4504,-0.325,0.480
4505,-0.335,0.450
4506,-0.375,0.445
4507,-0.370,0.460
4508,-0.370,0.465
4509,-0.375,0.480
4510,-0.370,0.475
4511,-0.375,0.460
4512,-0.395,0.450
4513,-0.395,0.450
4514,-0.390,0.480
4515,-0.395,0.485
4516,-0.390,0.485
4517,-0.385,0.460
4518,-0.400,0.455
4519,-0.410,0.445
4520,-0.400,0.465
4521,-0.385,0.480
4522,-0.375,0.470
4523,-0.385,0.465
4524,-0.390,0.460
4525,-0.405,0.475
4526,-0.400,0.470
4527,-0.375,0.475
4528,-0.380,0.485
4529,-0.395,0.460
4530,-0.385,0.460
4531,-0.390,0.465
4532,-0.385,0.470
4533,-0.380,0.480
4534,-0.370,0.485
4535,-0.380,0.470
4536,-0.385,0.470
4537,-0.390,0.465
4538,-0.375,0.480
4539,-0.370,0.495
4540,-0.360,0.480
4541,-0.390,0.460
4542,-0.390,0.460
4543,-0.395,0.475
4544,-0.375,0.480
4545,-0.365,0.490
4546,-0.360,0.475
4547,-0.370,0.475
4548,-0.380,0.465
4549,-0.370,0.455
4550,-0.375,0.470
4551,-0.360,0.485
4552,-0.355,0.475
4553,-0.370,0.455
4554,-0.375,0.465
4555,-0.385,0.455
4556,-0.385,0.460
4557,-0.355,0.480
4558,-0.365,0.485
4559,-0.380,0.475
4560,-0.405,0.445
4561,-0.390,0.465
4562,-0.390,0.480
4563,-0.375,0.495
4564,-0.385,0.485
4565,-0.390,0.450
4566,-0.405,0.450
4567,-0.390,0.450
4568,-0.390,0.485
4569,-0.395,0.475
4570,-0.380,0.470
4571,-0.390,0.445
4572,-0.405,0.450
4573,-0.405,0.445
4574,-0.395,0.470
4575,-0.385,0.480
4576,-0.385,0.465
4577,-0.385,0.465
4578,-0.405,0.440
4579,-0.420,0.455
4580,-0.415,0.460
4581,-0.385,0.480
4582,-0.375,0.465
4583,-0.390,0.455
4584,-0.410,0.445
4585,-0.435,0.435
4586,-0.415,0.455
4587,-0.410,0.460
4588,-0.385,0.450
4589,-0.390,0.435
4590,-0.410,0.435
4591,-0.410,0.435
4592,-0.400,0.450
4593,-0.390,0.455
4594,-0.395,0.450
4595,-0.415,0.435
4596,-0.430,0.435
4597,-0.425,0.430
4598,-0.420,0.445
4599,-0.400,0.445
4600,-0.395,0.445
4601,-0.405,0.445
4602,-0.420,0.425
4603,-0.415,0.430
4604,-0.425,0.435
4605,-0.400,0.455
4606,-0.400,0.450
4607,-0.400,0.425
4608,-0.410,0.415
4609,-0.425,0.430
4610,-0.395,0.430
4611,-0.405,0.440
4612,-0.385,0.445
4613,-0.390,0.420
4614,-0.400,0.415
4615,-0.415,0.410
4616,-0.395,0.425
4617,-0.390,0.435
4618,-0.385,0.430
4619,-0.395,0.425
4620,-0.420,0.405
4621,-0.420,0.415
4622,-0.405,0.425
4623,-0.405,0.440
4624,-0.400,0.435
4625,-0.410,0.415
4626,-0.410,0.395
4627,-0.390,0.405
4628,-0.395,0.430
4629,-0.390,0.440
4630,-0.385,0.430
4631,-0.400,0.420
4632,-0.395,0.415
4633,-0.395,0.435
4634,-0.385,0.450
4635,-0.355,0.470
4636,-0.340,0.475
4637,-0.340,0.460
4638,-0.335,0.455
4639,-0.330,0.440
4640,-0.330,0.440
4641,-0.325,0.445
4642,-0.320,0.435
4643,-0.305,0.405
4644,-0.310,0.390
4645,-0.290,0.395
4646,-0.295,0.410
4647,-0.270,0.410
4648,-0.250,0.405
4649,-0.265,0.395
4650,-0.285,0.380
4651,-0.285,0.375
4652,-0.285,0.400
4653,-0.290,0.410
4654,-0.295,0.395
4655,-0.315,0.385
4656,-0.335,0.375
4657,-0.335,0.370
4658,-0.360,0.380
4659,-0.350,0.400
4660,-0.355,0.385
4661,-0.360,0.370
4662,-0.390,0.365
4663,-0.405,0.370
4664,-0.380,0.385
4665,-0.370,0.390
4666,-0.375,0.385
4667,-0.390,0.375
4668,-0.400,0.375
4669,-0.385,0.380
4670,-0.370,0.385
4671,-0.365,0.385
4672,-0.365,0.385
4673,-0.370,0.385
4674,-0.380,0.365
4675,-0.375,0.380
4676,-0.360,0.385
4677,-0.350,0.400
4678,-0.350,0.380
4679,-0.370,0.370
4680,-0.360,0.365
4681,-0.350,0.380
4682,-0.340,0.395
4683,-0.315,0.435
4684,-0.315,0.475
4685,-0.325,0.495
4686,-0.350,0.525
4687,-0.380,0.550
4688,-0.390,0.580
4689,-0.410,0.585
4690,-0.425,0.555
4691,-0.430,0.485
4692,-0.405,0.390
4693,-0.295,0.285
4694,-0.060,0.185
4695,0.310,0.075
4696,0.825,-0.040
4697,1.335,-0.080
4698,1.750,-0.035
4699,2.020,0.065
4700,2.130,0.195
4701,1.990,0.295
4702,1.510,0.325
4703,0.870,0.315
4704,0.230,0.295
4705,-0.410,0.325
4706,-0.680,0.350
4707,-0.540,0.390
4708,-0.470,0.390
4709,-0.480,0.380
4710,-0.510,0.355
4711,-0.510,0.370
4712,-0.480,0.380
4713,-0.425,0.400
4714,-0.390,0.395
4715,-0.350,0.375
4716,-0.320,0.370
4717,-0.285,0.365
4718,-0.285,0.385
4719,-0.270,0.395
4720,-0.275,0.385
4721,-0.265,0.375
4722,-0.285,0.365
4723,-0.285,0.365
4724,-0.295,0.380
4725,-0.260,0.385
4726,-0.250,0.385
4727,-0.260,0.365
4728,-0.270,0.350
4729,-0.260,0.365
4730,-0.260,0.365
4731,-0.240,0.370
4732,-0.240,0.370
4733,-0.245,0.360
4734,-0.240,0.350
4735,-0.245,0.350
4736,-0.235,0.365
4737,-0.225,0.385
4738,-0.225,0.365
4739,-0.245,0.355
4740,-0.240,0.335
4741,-0.235,0.350
4742,-0.240,0.345
4743,-0.225,0.355
4744,-0.210,0.350
4745,-0.215,0.345
4746,-0.220,0.330
4747,-0.230,0.340
4748,-0.220,0.340
4749,-0.205,0.350
4750,-0.190,0.345
4751,-0.195,0.330
4752,-0.205,0.325
4753,-0.215,0.320
4754,-0.190,0.345
4755,-0.180,0.345
4756,-0.165,0.355
4757,-0.185,0.325
4758,-0.180,0.315
4759,-0.180,0.315
4760,-0.170,0.330
4761,-0.160,0.335
4762,-0.140,0.330
4763,-0.155,0.320
4764,-0.155,0.305
4765,-0.160,0.310
4766,-0.140,0.330
4767,-0.120,0.335
4768,-0.110,0.315
4769,-0.110,0.305
4770,-0.130,0.290
4771,-0.130,0.300
4772,-0.105,0.315
4773,-0.080,0.315
4774,-0.075,0.305
4775,-0.080,0.310
4776,-0.075,0.295
4777,-0.075,0.295
4778,-0.050,0.305
4779,-0.025,0.305
4780,-0.015,0.295
4781,-0.010,0.280
4782,-0.010,0.270
4783,0.005,0.280
4784,0.025,0.280
4785,0.050,0.290
4786,0.065,0.285
4787,0.070,0.270
4788,0.075,0.270
4789,0.080,0.270
4790,0.105,0.280
4791,0.130,0.290
4792,0.140,0.280
4793,0.165,0.255
4794,0.175,0.250
4795,0.180,0.260
4796,0.215,0.260
4797,0.250,0.270
4798,0.275,0.260
4799,0.300,0.250
4800,0.310,0.235
4801,0.325,0.235
4802,0.370,0.255
4803,0.410,0.255
4804,0.445,0.240
4805,0.470,0.245
4806,0.480,0.235
4807,0.515,0.230
4808,0.535,0.240
4809,0.575,0.235
4810,0.625,0.250
4811,0.635,0.230
4812,0.640,0.210
4813,0.670,0.215
4814,0.700,0.225
4815,0.730,0.225
4816,0.765,0.225
4817,0.790,0.210
4818,0.775,0.200
4819,0.805,0.205
4820,0.825,0.225
4821,0.845,0.230
4822,0.850,0.230
4823,0.830,0.225
4824,0.800,0.210
4825,0.770,0.230
4826,0.755,0.240
4827,0.720,0.250
4828,0.685,0.245
4829,0.620,0.230
4830,0.555,0.235
4831,0.495,0.250
4832,0.425,0.250
4833,0.385,0.275
4834,0.320,0.250
4835,0.245,0.240
4836,0.170,0.225
4837,0.120,0.240
4838,0.050,0.250
4839,0.035,0.265
4840,-0.015,0.260
4841,-0.065,0.245
4842,-0.115,0.235
4843,-0.145,0.235
4844,-0.170,0.245
4845,-0.175,0.255
4846,-0.210,0.240
4847,-0.235,0.235
4848,-0.265,0.220
4849,-0.275,0.235
4850,-0.295,0.240
4851,-0.290,0.250
4852,-0.295,0.240
4853,-0.315,0.230
4854,-0.325,0.210
4855,-0.345,0.215
4856,-0.335,0.220
4857,-0.330,0.245
4858,-0.330,0.250
4859,-0.340,0.215
4860,-0.360,0.200
4861,-0.360,0.210
4862,-0.360,0.225
4863,-0.345,0.235
4864,-0.350,0.240
4865,-0.355,0.215
4866,-0.365,0.200
4867,-0.385,0.205
4868,-0.375,0.220
4869,-0.340,0.230
4870,-0.350,0.230
4871,-0.355,0.215
4872,-0.355,0.190
4873,-0.375,0.205
4874,-0.350,0.215
4875,-0.350,0.225
4876,-0.340,0.220
4877,-0.350,0.205
4878,-0.350,0.200
4879,-0.370,0.200
4880,-0.340,0.215
4881,-0.335,0.220
4882,-0.335,0.215
4883,-0.330,0.210
4884,-0.350,0.195
4885,-0.340,0.210
4886,-0.340,0.205
4887,-0.330,0.225
4888,-0.325,0.205
4889,-0.340,0.200
4890,-0.360,0.190
4891,-0.355,0.200
4892,-0.355,0.220
4893,-0.330,0.220
4894,-0.330,0.205
4895,-0.340,0.200
4896,-0.350,0.195
4897,-0.355,0.205
4898,-0.335,0.205
4899,-0.325,0.220
4900,-0.320,0.205
4901,-0.340,0.195
4902,-0.360,0.195
4903,-0.350,0.200
4904,-0.335,0.200
4905,-0.325,0.200
4906,-0.325,0.200
4907,-0.335,0.185
4908,-0.345,0.175
4909,-0.350,0.185
4910,-0.340,0.190
4911,-0.340,0.190
4912,-0.330,0.180
4913,-0.350,0.180
4914,-0.365,0.165
4915,-0.365,0.180
4916,-0.360,0.195
4917,-0.355,0.200
4918,-0.350,0.185
4919,-0.360,0.175
4920,-0.360,0.170
4921,-0.370,0.175
4922,-0.365,0.190
4923,-0.365,0.200
4924,-0.365,0.180
4925,-0.360,0.170
4926,-0.360,0.150
4927,-0.370,0.160
4928,-0.370,0.180
4929,-0.355,0.195
4930,-0.375,0.175
4931,-0.375,0.160
4932,-0.380,0.150
4933,-0.390,0.150
4934,-0.375,0.175
4935,-0.360,0.170
4936,-0.350,0.175
4937,-0.365,0.150
4938,-0.370,0.145
4939,-0.385,0.150
4940,-0.380,0.155
4941,-0.355,0.170
4942,-0.365,0.160
4943,-0.365,0.145
4944,-0.375,0.130
4945,-0.395,0.150
4946,-0.385,0.160
4947,-0.380,0.155
4948,-0.360,0.155
4949,-0.365,0.150
4950,-0.375,0.135
4951,-0.385,0.140
4952,-0.395,0.150
4953,-0.385,0.150
4954,-0.360,0.155
4955,-0.380,0.135
4956,-0.390,0.120
4957,-0.385,0.130
4958,-0.375,0.145
4959,-0.370,0.160
4960,-0.375,0.155
4961,-0.390,0.135
4962,-0.385,0.110
4963,-0.390,0.125
4964,-0.380,0.135
4965,-0.365,0.140
4966,-0.355,0.145
4967,-0.380,0.130
4968,-0.380,0.115
4969,-0.390,0.120
4970,-0.375,0.125
4971,-0.370,0.140
4972,-0.360,0.120
4973,-0.375,0.115
4974,-0.370,0.100
4975,-0.380,0.130
4976,-0.375,0.125
4977,-0.365,0.140
4978,-0.360,0.120
4979,-0.375,0.115
4980,-0.385,0.100
4981,-0.390,0.110
4982,-0.375,0.125
4983,-0.360,0.130
4984,-0.360,0.125
4985,-0.360,0.105
4986,-0.370,0.095
4987,-0.380,0.095
4988,-0.375,0.115
4989,-0.365,0.120
4990,-0.360,0.120
4991,-0.365,0.100
4992,-0.370,0.100
4993,-0.380,0.095
4994,-0.370,0.115
4995,-0.360,0.110
4996,-0.340,0.115
4997,-0.360,0.100
4998,-0.390,0.085
4999,-0.390,0.095
5000,-0.370,0.110
5001,-0.370,0.115
5002,-0.360,0.105
5003,-0.365,0.095
5004,-0.380,0.090
5005,-0.370,0.090
5006,-0.360,0.105
5007,-0.355,0.110
5008,-0.350,0.105
5009,-0.370,0.100
5010,-0.390,0.080
5011,-0.385,0.095
5012,-0.375,0.100
5013,-0.350,0.105
5014,-0.345,0.105
5015,-0.350,0.085
5016,-0.360,0.085
5017,-0.365,0.080
5018,-0.350,0.095
5019,-0.340,0.110
5020,-0.335,0.105
5021,-0.335,0.095
5022,-0.355,0.080
5023,-0.365,0.105
5024,-0.335,0.110
5025,-0.325,0.130
5026,-0.310,0.130
5027,-0.315,0.125
5028,-0.325,0.100
5029,-0.310,0.105
5030,-0.290,0.100
5031,-0.260,0.105
5032,-0.270,0.090
5033,-0.285,0.075
5034,-0.290,0.050
5035,-0.280,0.050
5036,-0.255,0.050
5037,-0.240,0.065
5038,-0.250,0.060
5039,-0.275,0.050
5040,-0.285,0.035
5041,-0.290,0.055
5042,-0.285,0.065
5043,-0.255,0.075
5044,-0.270,0.065
5045,-0.275,0.055
5046,-0.315,0.050
5047,-0.320,0.055
5048,-0.325,0.075
5049,-0.305,0.070
5050,-0.320,0.065
5051,-0.330,0.050
5052,-0.340,0.045
5053,-0.340,0.030
5054,-0.340,0.055
5055,-0.325,0.070
5056,-0.315,0.055
5057,-0.325,0.060
5058,-0.330,0.040
5059,-0.340,0.050
5060,-0.325,0.060
5061,-0.320,0.065
5062,-0.310,0.065
5063,-0.310,0.050
5064,-0.330,0.035
5065,-0.330,0.040
5066,-0.320,0.055
5067,-0.295,0.070
5068,-0.295,0.070
5069,-0.295,0.060
5070,-0.300,0.085
5071,-0.295,0.125
5072,-0.290,0.195
5073,-0.300,0.235
5074,-0.345,0.265
5075,-0.375,0.245
5076,-0.410,0.200
5077,-0.410,0.120
5078,-0.355,0.045
5079,-0.190,-0.095
5080,0.150,-0.255
5081,0.635,-0.390
5082,1.185,-0.450
5083,1.665,-0.400
5084,2.005,-0.300
5085,2.140,-0.170
5086,1.995,-0.060
5087,1.535,-0.030
5088,0.895,-0.045
5089,0.255,-0.055
5090,-0.385,-0.005
5091,-0.625,0.025
5092,-0.480,0.055
5093,-0.415,0.040
5094,-0.445,0.030
5095,-0.470,0.025
5096,-0.460,0.040
5097,-0.425,0.050
5098,-0.385,0.050
5099,-0.345,0.060
5100,-0.320,0.040
5101,-0.280,0.045
5102,-0.250,0.050
5103,-0.240,0.080
5104,-0.245,0.060
5105,-0.250,0.040
5106,-0.280,0.030
5107,-0.265,0.030
5108,-0.255,0.050
5109,-0.245,0.065
5110,-0.225,0.050
5111,-0.235,0.030
5112,-0.240,0.025
5113,-0.240,0.035
5114,-0.225,0.050
5115,-0.220,0.045
5116,-0.210,0.045
5117,-0.225,0.035
5118,-0.230,0.020
5119,-0.235,0.030
5120,-0.215,0.045
5121,-0.215,0.045
5122,-0.200,0.030
5123,-0.200,0.025
5124,-0.215,0.010
5125,-0.215,0.020
5126,-0.210,0.035
5127,-0.205,0.045
5128,-0.185,0.045
5129,-0.200,0.025
5130,-0.205,0.015
5131,-0.210,0.015
5132,-0.195,0.025
5133,-0.190,0.040
5134,-0.170,0.035
5135,-0.180,0.015
5136,-0.180,0.010
5137,-0.195,0.005
5138,-0.175,0.030
5139,-0.150,0.030
5140,-0.145,0.025
5141,-0.160,0.010
5142,-0.170,0.000
5143,-0.170,0.015
5144,-0.150,0.020
5145,-0.140,0.035
5146,-0.125,0.015
5147,-0.130,0.005
5148,-0.145,0.000
5149,-0.140,0.005
5150,-0.125,0.020
5151,-0.110,0.035
5152,-0.105,0.015
5153,-0.100,0.000
5154,-0.120,-0.010
5155,-0.105,0.000
5156,-0.095,0.000
5157,-0.075,0.020
5158,-0.080,0.015
5159,-0.065,0.005
5160,-0.065,-0.010
5161,-0.070,-0.005
5162,-0.050,0.015
5163,-0.020,0.010
5164,-0.020,0.010
5165,-0.015,-0.015
5166,-0.015,-0.005
5167,-0.010,-0.015
5168,0.010,0.000
5169,0.025,0.005
5170,0.045,-0.010
5171,0.040,-0.020
5172,0.045,-0.035
5173,0.055,-0.025
5174,0.085,-0.020
5175,0.120,-0.005
5176,0.130,-0.010
5177,0.135,-0.030
5178,0.120,-0.045
5179,0.140,-0.030
5180,0.185,-0.020
5181,0.220,-0.015
5182,0.235,-0.030
5183,0.250,-0.045
5184,0.265,-0.045
5185,0.300,-0.050
5186,0.335,-0.035
5187,0.375,-0.020
5188,0.405,-0.040
5189,0.425,-0.050
5190,0.445,-0.055
5191,0.455,-0.060
5192,0.510,-0.045
5193,0.545,-0.030
5194,0.580,-0.050
5195,0.605,-0.065
5196,0.615,-0.070
5197,0.650,-0.065
5198,0.690,-0.060
5199,0.720,-0.065
5200,0.750,-0.065
5201,0.755,-0.075
5202,0.760,-0.080
5203,0.785,-0.080
5204,0.800,-0.070
5205,0.835,-0.060
5206,0.850,-0.065
5207,0.840,-0.070
5208,0.805,-0.080
5209,0.795,-0.055
5210,0.750,-0.050
5211,0.760,-0.035
5212,0.720,-0.040
5213,0.665,-0.045
5214,0.580,-0.045
5215,0.535,-0.040
5216,0.480,-0.030
5217,0.420,-0.015
5218,0.355,-0.015
5219,0.285,-0.030
5220,0.185,-0.035
5221,0.125,-0.035
5222,0.075,-0.030
5223,0.030,-0.025
5224,-0.020,-0.025
5225,-0.085,-0.035
5226,-0.135,-0.055
5227,-0.165,-0.035
5228,-0.180,-0.040
5229,-0.195,-0.025
5230,-0.205,-0.030
5231,-0.245,-0.045
5232,-0.275,-0.050
5233,-0.290,-0.040
5234,-0.305,-0.025
5235,-0.290,-0.025
5236,-0.285,-0.035
5237,-0.300,-0.035
5238,-0.325,-0.060
5239,-0.335,-0.060
5240,-0.335,-0.040
5241,-0.335,-0.040
5242,-0.320,-0.040
5243,-0.340,-0.050
5244,-0.350,-0.060
5245,-0.355,-0.055
5246,-0.340,-0.040
5247,-0.345,-0.030
5248,-0.335,-0.040
5249,-0.360,-0.060
5250,-0.360,-0.055
5251,-0.360,-0.070
5252,-0.355,-0.045
5253,-0.345,-0.015
5254,-0.355,-0.025
5255,-0.350,-0.040
5256,-0.365,-0.060
5257,-0.370,-0.060
5258,-0.365,-0.045
5259,-0.330,-0.030
5260,-0.340,-0.045
5261,-0.355,-0.050
5262,-0.365,-0.070
5263,-0.360,-0.065
5264,-0.370,-0.040
5265,-0.355,-0.030
5266,-0.365,-0.030
5267,-0.355,-0.045
5268,-0.360,-0.065
5269,-0.360,-0.055
5270,-0.360,-0.045
5271,-0.345,-0.040
5272,-0.340,-0.040
5273,-0.360,-0.065
5274,-0.365,-0.055
5275,-0.375,-0.050
5276,-0.360,-0.045
5277,-0.345,-0.035
5278,-0.335,-0.040
5279,-0.350,-0.050
5280,-0.370,-0.060
5281,-0.375,-0.060
5282,-0.350,-0.050
5283,-0.360,-0.040
5284,-0.345,-0.050
5285,-0.355,-0.040
5286,-0.380,-0.070
5287,-0.375,-0.055
5288,-0.355,-0.055
5289,-0.360,-0.050
5290,-0.340,-0.055
5291,-0.360,-0.065
5292,-0.370,-0.075
5293,-0.380,-0.070
5294,-0.370,-0.060
5295,-0.350,-0.060
5296,-0.360,-0.075
5297,-0.370,-0.080
5298,-0.395,-0.085
5299,-0.405,-0.070
5300,-0.375,-0.070
5301,-0.360,-0.055
5302,-0.350,-0.075
5303,-0.370,-0.080
5304,-0.380,-0.085
5305,-0.390,-0.070
5306,-0.375,-0.065
5307,-0.360,-0.065
5308,-0.365,-0.070
5309,-0.375,-0.090
5310,-0.380,-0.075
5311,-0.400,-0.090
5312,-0.375,-0.070
5313,-0.375,-0.065
5314,-0.370,-0.075
5315,-0.390,-0.090
5316,-0.405,-0.090
5317,-0.410,-0.080
5318,-0.400,-0.070
5319,-0.380,-0.055
5320,-0.365,-0.070
5321,-0.385,-0.090
5322,-0.385,-0.110
5323,-0.400,-0.090
5324,-0.395,-0.075
5325,-0.380,-0.065
5326,-0.380,-0.075
5327,-0.385,-0.085
5328,-0.420,-0.110
5329,-0.410,-0.105
5330,-0.400,-0.085
5331,-0.385,-0.080
5332,-0.385,-0.075
5333,-0.395,-0.100
5334,-0.395,-0.100
5335,-0.410,-0.090
5336,-0.390,-0.070
5337,-0.385,-0.070
5338,-0.375,-0.075
5339,-0.385,-0.090
5340,-0.400,-0.100
5341,-0.405,-0.090
5342,-0.390,-0.080
5343,-0.390,-0.060
5344,-0.385,-0.065
5345,-0.390,-0.095
5346,-0.410,-0.100
5347,-0.420,-0.085
5348,-0.405,-0.085
5349,-0.390,-0.075
5350,-0.395,-0.075
5351,-0.410,-0.095
5352,-0.415,-0.100
5353,-0.405,-0.095
5354,-0.410,-0.085
5355,-0.390,-0.085
5356,-0.390,-0.090
5357,-0.400,-0.095
5358,-0.410,-0.105
5359,-0.420,-0.095
5360,-0.415,-0.085
5361,-0.390,-0.085
5362,-0.375,-0.085
5363,-0.380,-0.090
5364,-0.395,-0.105
5365,-0.385,-0.105
5366,-0.380,-0.100
5367,-0.370,-0.085
5368,-0.375,-0.080
5369,-0.375,-0.100
5370,-0.400,-0.110
5371,-0.400,-0.110
5372,-0.390,-0.105
5373,-0.375,-0.095
5374,-0.385,-0.100
5375,-0.390,-0.105
5376,-0.400,-0.105
5377,-0.395,-0.100
5378,-0.385,-0.075
5379,-0.385,-0.075
5380,-0.375,-0.085
5381,-0.390,-0.100
5382,-0.420,-0.105
5383,-0.395,-0.105
5384,-0.395,-0.105
5385,-0.370,-0.095
5386,-0.375,-0.085
5387,-0.375,-0.090
5388,-0.400,-0.105
5389,-0.395,-0.090
5390,-0.385,-0.075
5391,-0.360,-0.045
5392,-0.360,-0.065
5393,-0.355,-0.065
5394,-0.355,-0.075
5395,-0.365,-0.065
5396,-0.325,-0.070
5397,-0.320,-0.060
5398,-0.310,-0.070
5399,-0.305,-0.085
5400,-0.325,-0.105
5401,-0.320,-0.100
5402,-0.310,-0.105
5403,-0.280,-0.115
5404,-0.285,-0.115
5405,-0.290,-0.135
5406,-0.315,-0.125
5407,-0.315,-0.120
5408,-0.310,-0.110
5409,-0.295,-0.100
5410,-0.285,-0.110
5411,-0.305,-0.130
5412,-0.335,-0.125
5413,-0.340,-0.110
5414,-0.335,-0.110
5415,-0.340,-0.090
5416,-0.345,-0.100
5417,-0.355,-0.125
5418,-0.360,-0.125
5419,-0.375,-0.120
5420,-0.370,-0.115
5421,-0.355,-0.100
5422,-0.340,-0.110
5423,-0.355,-0.105
5424,-0.370,-0.120
5425,-0.375,-0.115
5426,-0.375,-0.105
5427,-0.355,-0.095
5428,-0.340,-0.100
5429,-0.355,-0.105
5430,-0.370,-0.110
5431,-0.390,-0.110
5432,-0.360,-0.105
5433,-0.355,-0.080
5434,-0.335,-0.090
5435,-0.335,-0.085
5436,-0.340,-0.090
5437,-0.335,-0.050
5438,-0.325,-0.005
5439,-0.315,0.035
5440,-0.335,0.075
5441,-0.380,0.090
5442,-0.435,0.075
5443,-0.460,0.050
5444,-0.460,0.015
5445,-0.410,-0.030
5446,-0.310,-0.140
5447,-0.125,-0.270
5448,0.190,-0.375
5449,0.655,-0.480
5450,1.175,-0.500
5451,1.620,-0.465
5452,1.920,-0.395
5453,2.025,-0.305
5454,1.945,-0.225
5455,1.620,-0.155
5456,1.010,-0.135
5457,0.370,-0.125
5458,-0.270,-0.125
5459,-0.660,-0.130
5460,-0.635,-0.130
5461,-0.535,-0.105
5462,-0.495,-0.095
5463,-0.495,-0.070
5464,-0.505,-0.085
5465,-0.525,-0.095
5466,-0.510,-0.115
5467,-0.495,-0.095
5468,-0.450,-0.085
5469,-0.390,-0.060
5470,-0.325,-0.075
5471,-0.300,-0.095
5472,-0.300,-0.105
5473,-0.305,-0.100
5474,-0.305,-0.090
5475,-0.290,-0.075
5476,-0.285,-0.075
5477,-0.285,-0.100
5478,-0.290,-0.110
5479,-0.300,-0.080
5480,-0.290,-0.090
5481,-0.265,-0.065
5482,-0.260,-0.090
5483,-0.270,-0.090
5484,-0.260,-0.100
5485,-0.270,-0.090
5486,-0.260,-0.075
5487,-0.250,-0.075
5488,-0.230,-0.085
5489,-0.230,-0.110
5490,-0.240,-0.115
5491,-0.250,-0.105
5492,-0.240,-0.090
5493,-0.210,-0.085
5494,-0.210,-0.085
5495,-0.215,-0.100
5496,-0.225,-0.110
5497,-0.230,-0.090
5498,-0.215,-0.090
5499,-0.210,-0.075
5500,-0.215,-0.090
5501,-0.225,-0.115
5502,-0.210,-0.120
5503,-0.210,-0.100
5504,-0.190,-0.100
5505,-0.185,-0.090
5506,-0.190,-0.095
5507,-0.190,-0.110
5508,-0.185,-0.130
5509,-0.195,-0.120
5510,-0.175,-0.100
5511,-0.160,-0.085
5512,-0.165,-0.100
5513,-0.165,-0.100
5514,-0.160,-0.120
5515,-0.155,-0.120
5516,-0.145,-0.105
5517,-0.135,-0.085
5518,-0.135,-0.110
5519,-0.125,-0.120
5520,-0.120,-0.120
5521,-0.130,-0.120
5522,-0.105,-0.100
5523,-0.095,-0.100
5524,-0.085,-0.110
5525,-0.075,-0.125
5526,-0.080,-0.130
5527,-0.080,-0.115
5528,-0.060,-0.110
5529,-0.035,-0.105
5530,-0.015,-0.120
5531,-0.020,-0.130
5532,-0.015,-0.135
5533,0.000,-0.135
5534,0.025,-0.115
5535,0.040,-0.100
5536,0.070,-0.115
5537,0.065,-0.135
5538,0.075,-0.145
5539,0.095,-0.130
5540,0.130,-0.115
5541,0.150,-0.110
5542,0.180,-0.135
5543,0.195,-0.145
5544,0.195,-0.155
5545,0.220,-0.155
5546,0.265,-0.130
5547,0.310,-0.130
5548,0.330,-0.150
5549,0.365,-0.160
5550,0.375,-0.175
5551,0.400,-0.155
5552,0.430,-0.145
5553,0.475,-0.140
5554,0.520,-0.155
5555,0.545,-0.170
5556,0.555,-0.175
5557,0.580,-0.185
5558,0.615,-0.160
5559,0.655,-0.155
5560,0.685,-0.165
5561,0.710,-0.185
5562,0.720,-0.195
5563,0.745,-0.185
5564,0.765,-0.175
5565,0.800,-0.160
5566,0.810,-0.165
5567,0.800,-0.165
5568,0.790,-0.165
5569,0.770,-0.145
5570,0.755,-0.135
5571,0.730,-0.115
5572,0.690,-0.125
5573,0.635,-0.135
5574,0.545,-0.135
5575,0.495,-0.120
5576,0.430,-0.110
5577,0.375,-0.090
5578,0.295,-0.105
5579,0.210,-0.115
5580,0.145,-0.115
5581,0.070,-0.110
5582,0.000,-0.095
5583,-0.035,-0.085
5584,-0.080,-0.095
5585,-0.130,-0.110
5586,-0.180,-0.115
5587,-0.230,-0.115
5588,-0.240,-0.105
5589,-0.245,-0.085
5590,-0.250,-0.090
5591,-0.285,-0.100
5592,-0.305,-0.115
5593,-0.325,-0.110
5594,-0.320,-0.105
5595,-0.320,-0.095
5596,-0.320,-0.100
5597,-0.360,-0.105
5598,-0.380,-0.115
5599,-0.370,-0.100
5600,-0.380,-0.085
5601,-0.370,-0.085
5602,-0.360,-0.095
5603,-0.370,-0.110
5604,-0.380,-0.120
5605,-0.390,-0.105
5606,-0.380,-0.095
5607,-0.365,-0.090
5608,-0.360,-0.090
5609,-0.375,-0.105
5610,-0.375,-0.120
5611,-0.395,-0.115
5612,-0.390,-0.095
5613,-0.375,-0.090
5614,-0.375,-0.090
5615,-0.380,-0.105
5616,-0.390,-0.125
5617,-0.390,-0.100
5618,-0.395,-0.100
5619,-0.355,-0.090
5620,-0.355,-0.095
5621,-0.360,-0.100
5622,-0.380,-0.105
5623,-0.380,-0.105
5624,-0.360,-0.090
5625,-0.350,-0.085
5626,-0.335,-0.095
5627,-0.355,-0.115
5628,-0.360,-0.110
5629,-0.370,-0.095
5630,-0.350,-0.080
5631,-0.345,-0.095
5632,-0.340,-0.095
5633,-0.350,-0.105
5634,-0.360,-0.125
5635,-0.370,-0.115
5636,-0.355,-0.095
5637,-0.340,-0.090
5638,-0.335,-0.100
5639,-0.340,-0.100
5640,-0.360,-0.105
5641,-0.370,-0.110
5642,-0.380,-0.095
5643,-0.360,-0.080
5644,-0.345,-0.090
5645,-0.355,-0.100
5646,-0.380,-0.115
5647,-0.375,-0.105
5648,-0.375,-0.100
5649,-0.365,-0.075
5650,-0.360,-0.085
5651,-0.370,-0.095
5652,-0.390,-0.110
5653,-0.395,-0.115
5654,-0.385,-0.105
5655,-0.365,-0.100
5656,-0.360,-0.105
5657,-0.380,-0.110
5658,-0.390,-0.125
5659,-0.390,-0.110
5660,-0.390,-0.090
5661,-0.365,-0.080
5662,-0.360,-0.095
5663,-0.365,-0.115
5664,-0.375,-0.115
5665,-0.390,-0.115
5666,-0.375,-0.110
5667,-0.370,-0.090
5668,-0.365,-0.100
5669,-0.385,-0.110
5670,-0.395,-0.120
5671,-0.400,-0.125
5672,-0.385,-0.115
5673,-0.375,-0.095
5674,-0.385,-0.100
5675,-0.375,-0.115
5676,-0.395,-0.120
5677,-0.390,-0.115
5678,-0.395,-0.095
5679,-0.380,-0.090
5680,-0.375,-0.105
5681,-0.410,-0.120
5682,-0.405,-0.130
5683,-0.400,-0.125
5684,-0.385,-0.115
5685,-0.375,-0.100
5686,-0.380,-0.100
5687,-0.390,-0.110
5688,-0.400,-0.125
5689,-0.400,-0.110
5690,-0.390,-0.110
5691,-0.375,-0.100
5692,-0.385,-0.100
5693,-0.385,-0.120
5694,-0.400,-0.125
5695,-0.395,-0.115
5696,-0.390,-0.105
5697,-0.370,-0.100
5698,-0.370,-0.115
5699,-0.385,-0.135
5700,-0.405,-0.130
5701,-0.400,-0.125
5702,-0.380,-0.115
5703,-0.375,-0.095
5704,-0.380,-0.100
5705,-0.370,-0.110
5706,-0.405,-0.125
5707,-0.410,-0.120
5708,-0.390,-0.100
5709,-0.365,-0.085
5710,-0.355,-0.080
5711,-0.355,-0.070
5712,-0.365,-0.075
5713,-0.360,-0.055
5714,-0.340,-0.050
5715,-0.310,-0.050
5716,-0.300,-0.080
5717,-0.315,-0.110
5718,-0.325,-0.110
5719,-0.320,-0.115
5720,-0.305,-0.120
5721,-0.285,-0.110
5722,-0.270,-0.120
5723,-0.270,-0.125
5724,-0.275,-0.140
5725,-0.290,-0.125
5726,-0.275,-0.120
5727,-0.290,-0.100
5728,-0.290,-0.115
5729,-0.320,-0.120
5730,-0.340,-0.125
5731,-0.335,-0.120
5732,-0.335,-0.105
5733,-0.330,-0.100
5734,-0.340,-0.120
5735,-0.360,-0.130
5736,-0.385,-0.145
5737,-0.380,-0.135
5738,-0.400,-0.120
5739,-0.380,-0.110
5740,-0.390,-0.115
5741,-0.390,-0.130
5742,-0.385,-0.125
5743,-0.410,-0.130
5744,-0.395,-0.115
5745,-0.365,-0.105
5746,-0.365,-0.115
5747,-0.370,-0.125
5748,-0.380,-0.135
5749,-0.385,-0.135
5750,-0.375,-0.115
5751,-0.365,-0.110
5752,-0.355,-0.115
5753,-0.365,-0.130
5754,-0.380,-0.135
5755,-0.360,-0.120
5756,-0.355,-0.095
5757,-0.335,-0.075
5758,-0.340,-0.040
5759,-0.325,-0.020
5760,-0.360,0.015
5761,-0.395,0.060
5762,-0.415,0.095
5763,-0.435,0.100
5764,-0.460,0.065
5765,-0.460,0.010
5766,-0.450,-0.075
5767,-0.355,-0.160
5768,-0.140,-0.255
5769,0.215,-0.350
5770,0.715,-0.470
5771,1.215,-0.520
5772,1.640,-0.500
5773,1.910,-0.410
5774,2.035,-0.305
5775,1.920,-0.205
5776,1.460,-0.150
5777,0.820,-0.170
5778,0.180,-0.185
5779,-0.460,-0.160
5780,-0.700,-0.110
5781,-0.555,-0.080
5782,-0.470,-0.075
5783,-0.485,-0.085
5784,-0.530,-0.100
5785,-0.535,-0.095
5786,-0.510,-0.090
5787,-0.465,-0.075
5788,-0.415,-0.070
5789,-0.375,-0.080
5790,-0.345,-0.100
5791,-0.320,-0.090
5792,-0.305,-0.075
5793,-0.300,-0.080
5794,-0.295,-0.080
5795,-0.295,-0.095
5796,-0.310,-0.100
5797,-0.315,-0.100
5798,-0.315,-0.080
5799,-0.280,-0.075
5800,-0.270,-0.095
5801,-0.280,-0.090
5802,-0.300,-0.105
5803,-0.295,-0.090
5804,-0.290,-0.085
5805,-0.265,-0.085
5806,-0.260,-0.090
5807,-0.270,-0.090
5808,-0.285,-0.095
5809,-0.285,-0.100
5810,-0.275,-0.085
5811,-0.250,-0.055
5812,-0.245,-0.075
5813,-0.245,-0.085
5814,-0.255,-0.100
5815,-0.255,-0.100
5816,-0.265,-0.085
5817,-0.235,-0.070
5818,-0.225,-0.075
5819,-0.245,-0.090
5820,-0.235,-0.090
5821,-0.235,-0.080
5822,-0.230,-0.085
5823,-0.220,-0.075
5824,-0.195,-0.075
5825,-0.200,-0.090
5826,-0.205,-0.095
5827,-0.220,-0.100
5828,-0.210,-0.070
5829,-0.200,-0.075
5830,-0.190,-0.085
5831,-0.190,-0.100
5832,-0.205,-0.105
5833,-0.190,-0.080
5834,-0.190,-0.085
5835,-0.170,-0.080
5836,-0.155,-0.085
5837,-0.155,-0.105
5838,-0.170,-0.105
5839,-0.165,-0.100
5840,-0.155,-0.095
5841,-0.130,-0.070
5842,-0.120,-0.075
5843,-0.110,-0.090
5844,-0.145,-0.105
5845,-0.125,-0.095
5846,-0.095,-0.095
5847,-0.080,-0.085
5848,-0.070,-0.080
5849,-0.070,-0.100
5850,-0.075,-0.105
5851,-0.060,-0.095
5852,-0.035,-0.100
5853,0.000,-0.085
5854,0.005,-0.105
5855,0.015,-0.100
5856,0.020,-0.110
5857,0.040,-0.115
5858,0.060,-0.100
5859,0.095,-0.085
5860,0.100,-0.105
5861,0.135,-0.115
5862,0.135,-0.125
5863,0.145,-0.125
5864,0.195,-0.105
5865,0.225,-0.105
5866,0.260,-0.110
5867,0.295,-0.125
5868,0.290,-0.145
5869,0.325,-0.140
5870,0.385,-0.125
5871,0.420,-0.115
5872,0.445,-0.125
5873,0.460,-0.145
5874,0.475,-0.160
5875,0.515,-0.150
5876,0.555,-0.145
5877,0.605,-0.140
5878,0.620,-0.145
5879,0.650,-0.155
5880,0.665,-0.170
5881,0.685,-0.165
5882,0.720,-0.150
5883,0.765,-0.150
5884,0.775,-0.155
5885,0.780,-0.170
5886,0.785,-0.165
5887,0.780,-0.150
5888,0.790,-0.140
5889,0.775,-0.140
5890,0.750,-0.135
5891,0.705,-0.140
5892,0.650,-0.140
5893,0.595,-0.130
5894,0.550,-0.110
5895,0.490,-0.095
5896,0.435,-0.100
5897,0.360,-0.100
5898,0.275,-0.125
5899,0.210,-0.115
5900,0.145,-0.090
5901,0.105,-0.085
5902,0.055,-0.090
5903,-0.020,-0.100
5904,-0.065,-0.105
5905,-0.120,-0.105
5906,-0.155,-0.075
5907,-0.175,-0.080
5908,-0.200,-0.100
5909,-0.230,-0.110
5910,-0.270,-0.120
5911,-0.300,-0.110
5912,-0.305,-0.090
5913,-0.305,-0.080
5914,-0.325,-0.090
5915,-0.340,-0.105
5916,-0.370,-0.105
5917,-0.375,-0.110
5918,-0.375,-0.095
5919,-0.360,-0.090
5920,-0.365,-0.105
5921,-0.375,-0.115
5922,-0.385,-0.110
5923,-0.405,-0.105
5924,-0.390,-0.095
5925,-0.385,-0.080
5926,-0.385,-0.085
5927,-0.405,-0.095
5928,-0.410,-0.110
5929,-0.415,-0.100
5930,-0.410,-0.090
5931,-0.395,-0.075
5932,-0.395,-0.075
5933,-0.405,-0.090
5934,-0.410,-0.095
5935,-0.410,-0.095
5936,-0.395,-0.085
5937,-0.400,-0.070
5938,-0.385,-0.090
5939,-0.385,-0.090
5940,-0.395,-0.105
5941,-0.410,-0.090
5942,-0.395,-0.080
5943,-0.375,-0.075
5944,-0.385,-0.080
5945,-0.375,-0.090
5946,-0.395,-0.095
5947,-0.405,-0.090
5948,-0.385,-0.085
5949,-0.375,-0.065
5950,-0.360,-0.070
5951,-0.375,-0.085
5952,-0.380,-0.105
5953,-0.385,-0.080
5954,-0.380,-0.080
5955,-0.380,-0.065
5956,-0.375,-0.085
5957,-0.385,-0.095
5958,-0.395,-0.095
5959,-0.395,-0.090
5960,-0.400,-0.075
5961,-0.375,-0.070
5962,-0.365,-0.080
5963,-0.370,-0.095
5964,-0.390,-0.105
5965,-0.390,-0.095
5966,-0.395,-0.080
5967,-0.390,-0.075
5968,-0.375,-0.080
5969,-0.385,-0.090
5970,-0.410,-0.100
5971,-0.405,-0.095
5972,-0.405,-0.085
5973,-0.400,-0.065
5974,-0.395,-0.085
5975,-0.385,-0.095
5976,-0.410,-0.100
5977,-0.400,-0.095
5978,-0.405,-0.080
5979,-0.390,-0.075
5980,-0.390,-0.085
5981,-0.380,-0.110
5982,-0.405,-0.100
5983,-0.400,-0.090
5984,-0.405,-0.085
5985,-0.385,-0.070
5986,-0.390,-0.075
5987,-0.395,-0.090
5988,-0.405,-0.100
5989,-0.415,-0.090
5990,-0.410,-0.070
5991,-0.400,-0.075
5992,-0.390,-0.080
5993,-0.405,-0.090
5994,-0.425,-0.100
5995,-0.415,-0.095
5996,-0.420,-0.080
5997,-0.400,-0.070
5998,-0.400,-0.075
5999,-0.415,-0.095
6000,-0.420,-0.085
6001,-0.420,-0.095
6002,-0.415,-0.065
6003,-0.395,-0.065
6004,-0.395,-0.075
6005,-0.410,-0.080
6006,-0.415,-0.105
6007,-0.415,-0.085
6008,-0.400,-0.070
6009,-0.385,-0.070
6010,-0.395,-0.075
6011,-0.400,-0.090
6012,-0.410,-0.095
6013,-0.425,-0.095
6014,-0.410,-0.080
6015,-0.400,-0.065
6016,-0.415,-0.070
6017,-0.415,-0.080
6018,-0.430,-0.100
6019,-0.435,-0.085
6020,-0.420,-0.080
6021,-0.415,-0.065
6022,-0.410,-0.070
6023,-0.410,-0.085
6024,-0.435,-0.095
6025,-0.430,-0.085
6026,-0.415,-0.080
6027,-0.410,-0.070
6028,-0.400,-0.075
6029,-0.410,-0.090
6030,-0.415,-0.095
6031,-0.415,-0.100
6032,-0.405,-0.070
6033,-0.390,-0.060
6034,-0.390,-0.065
6035,-0.420,-0.090
6036,-0.415,-0.100
6037,-0.415,-0.095
6038,-0.410,-0.080
6039,-0.415,-0.075
6040,-0.415,-0.080
6041,-0.395,-0.095
6042,-0.405,-0.095
6043,-0.405,-0.100
6044,-0.405,-0.075
6045,-0.410,-0.070
6046,-0.385,-0.090
6047,-0.395,-0.095
6048,-0.400,-0.100
6049,-0.415,-0.085
6050,-0.415,-0.080
6051,-0.390,-0.075
6052,-0.385,-0.065
6053,-0.400,-0.100
6054,-0.405,-0.100
6055,-0.415,-0.085
6056,-0.405,-0.080
6057,-0.405,-0.065
6058,-0.400,-0.075
6059,-0.400,-0.095
6060,-0.415,-0.105
6061,-0.440,-0.105
6062,-0.415,-0.075
6063,-0.400,-0.060
6064,-0.390,-0.080
6065,-0.420,-0.085
6066,-0.415,-0.100
6067,-0.410,-0.105
6068,-0.400,-0.090
6069,-0.405,-0.080
6070,-0.395,-0.080
6071,-0.405,-0.095
6072,-0.410,-0.110
6073,-0.425,-0.100
6074,-0.410,-0.095
6075,-0.395,-0.075
6076,-0.390,-0.080
6077,-0.395,-0.095
6078,-0.400,-0.100
6079,-0.400,-0.095
6080,-0.405,-0.080
6081,-0.405,-0.070
6082,-0.385,-0.080
6083,-0.410,-0.100
6084,-0.400,-0.095
6085,-0.415,-0.090
6086,-0.405,-0.085
6087,-0.390,-0.070
6088,-0.385,-0.075
6089,-0.400,-0.090
6090,-0.405,-0.100
6091,-0.400,-0.080
6092,-0.395,-0.085
6093,-0.380,-0.075
6094,-0.370,-0.065
6095,-0.375,-0.075
6096,-0.385,-0.080
6097,-0.385,-0.060
6098,-0.370,-0.040
6099,-0.335,-0.030
6100,-0.330,-0.050
6101,-0.330,-0.075
6102,-0.325,-0.090
6103,-0.335,-0.085
6104,-0.340,-0.100
6105,-0.320,-0.100
6106,-0.305,-0.110
6107,-0.315,-0.125
6108,-0.335,-0.125
6109,-0.345,-0.110
6110,-0.340,-0.095
6111,-0.315,-0.080
6112,-0.295,-0.095
6113,-0.325,-0.100
6114,-0.345,-0.100
6115,-0.355,-0.095
6116,-0.365,-0.085
6117,-0.360,-0.075
6118,-0.370,-0.080
6119,-0.380,-0.090
6120,-0.385,-0.115
6121,-0.395,-0.105
6122,-0.385,-0.080
6123,-0.380,-0.070
6124,-0.375,-0.080
6125,-0.375,-0.085
6126,-0.390,-0.115
6127,-0.380,-0.090
6128,-0.375,-0.080
6129,-0.365,-0.070
6130,-0.350,-0.070
6131,-0.350,-0.075
6132,-0.370,-0.090
6133,-0.370,-0.090
6134,-0.365,-0.070
6135,-0.340,-0.045
6136,-0.335,-0.060
6137,-0.340,-0.040
6138,-0.365,-0.010
6139,-0.355,0.030
6140,-0.365,0.090
6141,-0.360,0.140
6142,-0.405,0.150
6143,-0.450,0.115
6144,-0.475,0.070
6145,-0.470,0.000
6146,-0.370,-0.090
6147,-0.185,-0.200
6148,0.135,-0.340
6149,0.550,-0.460
6150,1.040,-0.525
6151,1.500,-0.500
6152,1.850,-0.400
6153,2.010,-0.290
6154,1.965,-0.205
6155,1.615,-0.150
6156,0.975,-0.160
6157,0.335,-0.160
6158,-0.305,-0.135
6159,-0.720,-0.095
6160,-0.605,-0.065
6161,-0.500,-0.060
6162,-0.510,-0.085
6163,-0.525,-0.070
6164,-0.535,-0.060
6165,-0.505,-0.040
6166,-0.455,-0.045
6167,-0.430,-0.040
6168,-0.380,-0.055
6169,-0.345,-0.055
6170,-0.320,-0.035
6171,-0.315,-0.040
6172,-0.310,-0.040
6173,-0.325,-0.050
6174,-0.335,-0.055
6175,-0.335,-0.050
6176,-0.325,-0.035
6177,-0.305,-0.040
6178,-0.295,-0.040
6179,-0.305,-0.045
6180,-0.330,-0.055
6181,-0.335,-0.040
6182,-0.315,-0.040
6183,-0.305,-0.025
6184,-0.300,-0.040
6185,-0.315,-0.035
6186,-0.315,-0.050
6187,-0.305,-0.045
6188,-0.295,-0.040
6189,-0.280,-0.025
6190,-0.275,-0.040
6191,-0.305,-0.045
6192,-0.295,-0.065
6193,-0.295,-0.050
6194,-0.295,-0.040
6195,-0.275,-0.035
6196,-0.270,-0.040
6197,-0.285,-0.070
6198,-0.290,-0.060
6199,-0.290,-0.050
6200,-0.280,-0.035
6201,-0.250,-0.040
6202,-0.245,-0.030
6203,-0.250,-0.055
6204,-0.265,-0.055
6205,-0.255,-0.055
6206,-0.245,-0.055
6207,-0.220,-0.025
6208,-0.225,-0.035
6209,-0.230,-0.045
6210,-0.250,-0.060
6211,-0.245,-0.045
6212,-0.220,-0.040
6213,-0.200,-0.035
6214,-0.190,-0.050
6215,-0.215,-0.060
6216,-0.215,-0.060
6217,-0.210,-0.050
6218,-0.190,-0.045
6219,-0.165,-0.035
6220,-0.165,-0.040
6221,-0.170,-0.055
6222,-0.190,-0.060
6223,-0.180,-0.055
6224,-0.175,-0.035
6225,-0.135,-0.025
6226,-0.140,-0.040
6227,-0.125,-0.050
6228,-0.140,-0.065
6229,-0.140,-0.050
6230,-0.105,-0.035
6231,-0.100,-0.035
6232,-0.080,-0.045
6233,-0.080,-0.060
6234,-0.070,-0.060
6235,-0.080,-0.060
6236,-0.040,-0.050
6237,-0.020,-0.050
6238,0.000,-0.045
6239,0.005,-0.060
6240,0.000,-0.065
6241,0.020,-0.070
6242,0.040,-0.060
6243,0.080,-0.045
6244,0.100,-0.050
6245,0.110,-0.065
6246,0.110,-0.070
6247,0.125,-0.065
6248,0.170,-0.050
6249,0.195,-0.055
6250,0.225,-0.040
6251,0.240,-0.065
6252,0.260,-0.070
6253,0.270,-0.075
6254,0.305,-0.070
6255,0.345,-0.050
6256,0.375,-0.070
6257,0.395,-0.085
6258,0.410,-0.090
6259,0.430,-0.080
6260,0.465,-0.075
6261,0.515,-0.065
6262,0.540,-0.080
6263,0.545,-0.100
6264,0.565,-0.105
6265,0.570,-0.100
6266,0.605,-0.095
6267,0.655,-0.075
6268,0.680,-0.085
6269,0.690,-0.095
6270,0.700,-0.105
6271,0.700,-0.100
6272,0.720,-0.080
6273,0.735,-0.065
6274,0.765,-0.075
6275,0.745,-0.085
6276,0.715,-0.095
6277,0.685,-0.065
6278,0.650,-0.065
6279,0.635,-0.050
6280,0.605,-0.055
6281,0.550,-0.065
6282,0.480,-0.070
6283,0.430,-0.060
6284,0.370,-0.050
6285,0.330,-0.045
6286,0.265,-0.040
6287,0.200,-0.045
6288,0.115,-0.065
6289,0.060,-0.055
6290,0.025,-0.035
6291,-0.020,-0.025
6292,-0.060,-0.045
6293,-0.105,-0.055
6294,-0.155,-0.055
6295,-0.215,-0.055
6296,-0.230,-0.050
6297,-0.240,-0.025
6298,-0.265,-0.040
6299,-0.285,-0.060
6300,-0.315,-0.060
6301,-0.335,-0.060
6302,-0.350,-0.040
6303,-0.350,-0.025
6304,-0.370,-0.035
6305,-0.380,-0.045
6306,-0.400,-0.065
6307,-0.410,-0.060
6308,-0.405,-0.060
6309,-0.395,-0.040
6310,-0.410,-0.055
6311,-0.420,-0.060
6312,-0.430,-0.060
6313,-0.440,-0.055
6314,-0.430,-0.050
6315,-0.420,-0.035
6316,-0.425,-0.035
6317,-0.445,-0.060
6318,-0.455,-0.060
6319,-0.440,-0.060
6320,-0.430,-0.045
6321,-0.420,-0.030
6322,-0.420,-0.040
6323,-0.425,-0.055
6324,-0.450,-0.065
6325,-0.450,-0.045
6326,-0.430,-0.035
6327,-0.430,-0.030
6328,-0.425,-0.050
6329,-0.435,-0.055
6330,-0.450,-0.065
6331,-0.445,-0.050
6332,-0.445,-0.040
6333,-0.435,-0.035
6334,-0.430,-0.025
6335,-0.445,-0.055
6336,-0.450,-0.055
6337,-0.445,-0.045
6338,-0.430,-0.030
6339,-0.430,-0.020
6340,-0.430,-0.030
6341,-0.440,-0.055
6342,-0.445,-0.050
6343,-0.445,-0.060
6344,-0.440,-0.035
6345,-0.430,-0.030
6346,-0.430,-0.035
6347,-0.435,-0.055
6348,-0.455,-0.055
6349,-0.445,-0.050
6350,-0.435,-0.040
6351,-0.425,-0.025
6352,-0.415,-0.040
6353,-0.435,-0.050
6354,-0.455,-0.055
6355,-0.465,-0.050
6356,-0.445,-0.035
6357,-0.435,-0.030
6358,-0.435,-0.040
6359,-0.440,-0.055
6360,-0.450,-0.060
6361,-0.450,-0.060
6362,-0.445,-0.045
6363,-0.440,-0.025
6364,-0.440,-0.045
6365,-0.445,-0.065
6366,-0.475,-0.065
6367,-0.470,-0.055
6368,-0.455,-0.040
6369,-0.450,-0.040
6370,-0.450,-0.040
6371,-0.445,-0.060
6372,-0.480,-0.065
6373,-0.480,-0.070
6374,-0.465,-0.040
6375,-0.465,-0.050
6376,-0.455,-0.045
6377,-0.475,-0.060
6378,-0.485,-0.060
6379,-0.485,-0.055
6380,-0.470,-0.040
6381,-0.460,-0.035
6382,-0.460,-0.035
6383,-0.460,-0.060
6384,-0.465,-0.060
6385,-0.460,-0.060
6386,-0.465,-0.050
6387,-0.455,-0.055
6388,-0.450,-0.045
6389,-0.450,-0.060
6390,-0.475,-0.065
6391,-0.485,-0.060
6392,-0.465,-0.045
6393,-0.455,-0.045
6394,-0.455,-0.060
6395,-0.470,-0.065
6396,-0.485,-0.065
6397,-0.475,-0.065
6398,-0.475,-0.045
6399,-0.460,-0.045
6400,-0.455,-0.050
6401,-0.480,-0.065
6402,-0.490,-0.080
6403,-0.480,-0.070
6404,-0.470,-0.060
6405,-0.465,-0.045
6406,-0.465,-0.070
6407,-0.460,-0.065
6408,-0.470,-0.075
6409,-0.475,-0.065
6410,-0.475,-0.060
6411,-0.455,-0.040
6412,-0.455,-0.055
6413,-0.470,-0.060
6414,-0.485,-0.080
6415,-0.470,-0.070
6416,-0.480,-0.055
6417,-0.455,-0.050
6418,-0.455,-0.060
6419,-0.465,-0.070
6420,-0.480,-0.080
6421,-0.480,-0.060
6422,-0.470,-0.050
6423,-0.470,-0.040
6424,-0.460,-0.050
6425,-0.470,-0.065
6426,-0.485,-0.070
6427,-0.485,-0.065
6428,-0.475,-0.065
6429,-0.460,-0.040
6430,-0.460,-0.050
6431,-0.465,-0.065
6432,-0.480,-0.070
6433,-0.500,-0.055
6434,-0.475,-0.060
6435,-0.475,-0.050
6436,-0.475,-0.060
6437,-0.475,-0.065
6438,-0.475,-0.075
6439,-0.465,-0.065
6440,-0.465,-0.060
6441,-0.455,-0.055
6442,-0.455,-0.045
6443,-0.465,-0.065
6444,-0.480,-0.080
6445,-0.480,-0.065
6446,-0.475,-0.045
6447,-0.475,-0.045
6448,-0.470,-0.050
6449,-0.465,-0.065
6450,-0.470,-0.065
6451,-0.480,-0.065
6452,-0.465,-0.055
6453,-0.450,-0.045
6454,-0.455,-0.040
6455,-0.455,-0.055
6456,-0.465,-0.065
6457,-0.460,-0.055
6458,-0.455,-0.045
6459,-0.440,-0.040
6460,-0.445,-0.055
6461,-0.445,-0.060
6462,-0.465,-0.065
6463,-0.455,-0.055
6464,-0.465,-0.050
6465,-0.445,-0.040
6466,-0.445,-0.050
6467,-0.450,-0.055
6468,-0.460,-0.080
6469,-0.475,-0.070
6470,-0.455,-0.050
6471,-0.440,-0.035
6472,-0.440,-0.040
6473,-0.455,-0.060
6474,-0.475,-0.065
6475,-0.475,-0.065
6476,-0.470,-0.050
6477,-0.445,-0.035
6478,-0.450,-0.040
6479,-0.445,-0.055
6480,-0.465,-0.070
6481,-0.475,-0.050
6482,-0.455,-0.050
6483,-0.440,-0.045
6484,-0.440,-0.045
6485,-0.450,-0.055
6486,-0.450,-0.065
6487,-0.470,-0.060
6488,-0.445,-0.045
6489,-0.430,-0.045
6490,-0.435,-0.040
6491,-0.455,-0.055
6492,-0.455,-0.050
6493,-0.465,-0.055
6494,-0.440,-0.035
6495,-0.435,-0.045
6496,-0.430,-0.050
6497,-0.440,-0.060
6498,-0.460,-0.065
6499,-0.455,-0.055
6500,-0.435,-0.050
6501,-0.425,-0.050
6502,-0.435,-0.040
6503,-0.440,-0.060
6504,-0.470,-0.050
6505,-0.460,-0.050
6506,-0.445,-0.045
6507,-0.425,-0.040
6508,-0.425,-0.035
6509,-0.440,-0.060
6510,-0.455,-0.065
6511,-0.465,-0.060
6512,-0.440,-0.025
6513,-0.435,-0.035
6514,-0.430,-0.025
6515,-0.420,-0.035
6516,-0.440,-0.050
6517,-0.445,-0.030
6518,-0.420,-0.020
6519,-0.410,0.015
6520,-0.405,0.005
6521,-0.395,-0.005
6522,-0.400,-0.020
6523,-0.390,-0.025
6524,-0.375,-0.010
6525,-0.365,-0.005
6526,-0.355,-0.015
6527,-0.360,-0.040
6528,-0.375,-0.055
6529,-0.375,-0.060
6530,-0.360,-0.060
6531,-0.360,-0.060
6532,-0.350,-0.065
6533,-0.345,-0.085
6534,-0.365,-0.075
6535,-0.390,-0.065
6536,-0.370,-0.055
6537,-0.340,-0.045
6538,-0.335,-0.040
6539,-0.360,-0.065
6540,-0.370,-0.060
6541,-0.390,-0.065
6542,-0.375,-0.045
6543,-0.365,-0.035
6544,-0.380,-0.040
6545,-0.400,-0.060
6546,-0.425,-0.060
6547,-0.425,-0.060
6548,-0.410,-0.045
6549,-0.400,-0.030
6550,-0.405,-0.030
6551,-0.415,-0.055
6552,-0.415,-0.060
6553,-0.420,-0.050
6554,-0.410,-0.035
6555,-0.390,-0.020
6556,-0.385,-0.040
6557,-0.395,-0.065
6558,-0.400,-0.050
6559,-0.420,-0.050
6560,-0.380,-0.040
6561,-0.380,-0.020
6562,-0.375,-0.030
6563,-0.380,-0.040
6564,-0.395,-0.045
6565,-0.395,-0.050
6566,-0.380,-0.005
6567,-0.355,0.015
6568,-0.350,0.040
6569,-0.360,0.075
6570,-0.395,0.110
6571,-0.415,0.165
6572,-0.445,0.185
6573,-0.460,0.205
6574,-0.485,0.170
6575,-0.485,0.120
6576,-0.480,0.045
6577,-0.400,-0.045
6578,-0.240,-0.140
6579,0.035,-0.230
6580,0.445,-0.340
6581,0.895,-0.435
6582,1.330,-0.475
6583,1.720,-0.425
6584,1.975,-0.340
6585,2.100,-0.240
6586,2.035,-0.150
6587,1.720,-0.115
6588,1.160,-0.100
6589,0.520,-0.110
6590,-0.120,-0.095
6591,-0.605,-0.075
6592,-0.640,-0.055
6593,-0.575,-0.050
6594,-0.545,-0.040
6595,-0.570,-0.025
6596,-0.565,-0.005
6597,-0.550,0.000
6598,-0.515,-0.010
6599,-0.520,-0.010
6600,-0.490,-0.020
6601,-0.450,0.015
6602,-0.395,0.015
6603,-0.345,0.025
6604,-0.325,0.010
6605,-0.310,-0.005
6606,-0.330,-0.005
6607,-0.325,-0.005
6608,-0.320,0.020
6609,-0.305,0.020
6610,-0.295,0.020
6611,-0.310,0.000
6612,-0.300,-0.015
6613,-0.320,0.000
6614,-0.290,0.000
6615,-0.275,0.020
6616,-0.285,0.010
6617,-0.300,-0.010
6618,-0.290,-0.010
6619,-0.300,0.000
6620,-0.300,0.005
6621,-0.270,0.025
6622,-0.265,0.015
6623,-0.265,0.000
6624,-0.290,-0.005
6625,-0.290,0.010
6626,-0.270,0.010
6627,-0.260,0.025
6628,-0.255,0.020
6629,-0.270,0.010
6630,-0.270,-0.005
6631,-0.260,0.000
6632,-0.260,0.010
6633,-0.235,0.030
6634,-0.235,0.015
6635,-0.240,0.010
6636,-0.255,-0.005
6637,-0.255,0.005
6638,-0.230,0.025
6639,-0.220,0.020
6640,-0.230,0.015
6641,-0.230,-0.005
6642,-0.230,-0.005
6643,-0.230,0.005
6644,-0.220,0.020
6645,-0.210,0.015
6646,-0.200,0.020
6647,-0.205,0.005
6648,-0.215,-0.005
6649,-0.215,0.000
6650,-0.185,0.010
6651,-0.185,0.020
6652,-0.175,0.015
