'sample interval','V5','MLII'
'0.00277778 sec','mV','mV'
0,-0.045,0.015
1,-0.045,0.015
2,-0.045,0.015
3,-0.045,0.015
4,-0.045,0.015
5,-0.045,0.015
6,-0.045,0.015
7,-0.045,0.015
8,-0.045,0.015
9,-0.045,0.040
10,-0.010,0.065
11,0.000,0.070
12,-0.015,0.075
13,-0.025,0.080
14,-0.010,0.105
15,0.000,0.135
16,0.020,0.160
17,0.020,0.160
18,0.010,0.165
19,-0.005,0.170
20,0.000,0.205
21,-0.005,0.210
22,0.000,0.225
23,0.005,0.220
24,-0.010,0.210
25,-0.040,0.185
26,-0.045,0.190
27,-0.055,0.195
28,-0.045,0.195
29,-0.065,0.180
30,-0.075,0.145
31,-0.100,0.125
32,-0.110,0.115
33,-0.125,0.130
34,-0.105,0.125
35,-0.130,0.100
36,-0.145,0.075
37,-0.155,0.055
38,-0.175,0.060
39,-0.165,0.060
40,-0.165,0.060
41,-0.175,0.050
42,-0.180,0.020
43,-0.200,0.025
44,-0.225,0.020
45,-0.210,0.025
46,-0.205,0.040
47,-0.225,0.020
48,-0.220,0.015
49,-0.235,-0.005
50,-0.235,0.000
51,-0.225,0.015
52,-0.230,0.025
53,-0.215,0.020
54,-0.215,0.015
55,-0.255,-0.005
56,-0.245,0.000
57,-0.240,0.005
58,-0.240,0.015
59,-0.235,0.005
60,-0.245,0.000
61,-0.260,-0.005
62,-0.245,0.000
63,-0.245,0.010
64,-0.230,0.020
65,-0.230,-0.010
66,-0.230,-0.020
67,-0.245,-0.020
68,-0.250,-0.030
69,-0.235,0.000
70,-0.230,0.010
71,-0.235,-0.010
72,-0.235,-0.020
73,-0.260,-0.035
74,-0.270,-0.025
75,-0.255,-0.025
76,-0.230,-0.005
77,-0.235,-0.010
78,-0.230,-0.025
79,-0.255,-0.040
80,-0.255,-0.030
81,-0.255,-0.015
82,-0.240,-0.025
83,-0.235,-0.020
84,-0.250,-0.040
85,-0.260,-0.040
86,-0.260,-0.035
87,-0.260,-0.025
88,-0.240,-0.015
89,-0.225,-0.030
90,-0.235,-0.040
91,-0.255,-0.045
92,-0.255,-0.025
93,-0.245,-0.020
94,-0.225,-0.005
95,-0.235,-0.010
96,-0.235,-0.025
97,-0.250,-0.035
98,-0.260,-0.020
99,-0.240,-0.005
100,-0.215,-0.005
101,-0.220,-0.010
102,-0.235,-0.015
103,-0.245,-0.020
104,-0.235,-0.015
105,-0.235,0.000
106,-0.230,0.005
107,-0.225,-0.005
108,-0.230,-0.015
109,-0.245,-0.015
110,-0.255,-0.015
111,-0.250,0.010
112,-0.225,0.005
113,-0.230,0.000
114,-0.245,-0.025
115,-0.265,-0.020
116,-0.255,-0.015
117,-0.250,0.000
118,-0.245,0.005
119,-0.230,0.000
120,-0.240,-0.015
121,-0.270,-0.020
122,-0.270,-0.030
123,-0.250,0.000
124,-0.240,0.010
125,-0.245,0.000
126,-0.255,-0.015
127,-0.275,-0.020
128,-0.270,-0.025
129,-0.285,-0.010
130,-0.265,0.005
131,-0.255,0.000
132,-0.270,-0.015
133,-0.285,-0.020
134,-0.285,-0.020
135,-0.275,-0.005
136,-0.265,-0.005
137,-0.280,-0.015
138,-0.270,-0.025
139,-0.285,-0.035
140,-0.290,-0.015
141,-0.285,-0.015
142,-0.265,-0.010
143,-0.270,-0.015
144,-0.270,-0.020
145,-0.285,-0.030
146,-0.285,-0.040
147,-0.275,-0.030
148,-0.265,-0.020
149,-0.270,-0.020
150,-0.290,-0.030
151,-0.285,-0.040
152,-0.300,-0.030
153,-0.285,-0.025
154,-0.275,-0.020
155,-0.265,-0.030
156,-0.275,-0.035
157,-0.295,-0.035
158,-0.290,-0.035
159,-0.275,-0.030
160,-0.270,-0.015
161,-0.270,-0.025
162,-0.285,-0.040
163,-0.295,-0.055
164,-0.295,-0.030
165,-0.285,-0.030
166,-0.285,-0.015
167,-0.280,-0.030
168,-0.285,-0.045
169,-0.295,-0.045
170,-0.310,-0.040
171,-0.290,-0.040
172,-0.275,-0.015
173,-0.265,-0.030
174,-0.285,-0.040
175,-0.300,-0.045
176,-0.290,-0.030
177,-0.290,-0.020
178,-0.280,-0.015
179,-0.275,-0.030
180,-0.285,-0.045
181,-0.295,-0.045
182,-0.285,-0.030
183,-0.285,-0.035
184,-0.285,-0.025
185,-0.285,-0.035
186,-0.285,-0.030
187,-0.290,-0.055
188,-0.295,-0.040
189,-0.295,-0.025
190,-0.270,-0.015
191,-0.265,-0.015
192,-0.275,-0.030
193,-0.285,-0.045
194,-0.295,-0.040
195,-0.280,-0.030
196,-0.270,-0.025
197,-0.265,-0.030
198,-0.270,-0.035
199,-0.285,-0.050
200,-0.285,-0.055
201,-0.270,-0.040
202,-0.260,-0.020
203,-0.265,-0.025
204,-0.265,-0.040
205,-0.305,-0.050
206,-0.295,-0.030
207,-0.270,-0.020
208,-0.270,-0.015
209,-0.265,-0.015
210,-0.275,-0.050
211,-0.290,-0.050
212,-0.295,-0.025
213,-0.280,-0.015
214,-0.265,-0.010
215,-0.260,-0.020
216,-0.265,-0.030
217,-0.295,-0.030
218,-0.290,-0.030
219,-0.285,-0.020
220,-0.280,0.000
221,-0.245,-0.010
222,-0.270,-0.025
223,-0.265,-0.040
224,-0.270,-0.015
225,-0.255,-0.010
226,-0.240,0.005
227,-0.225,0.010
228,-0.235,0.005
229,-0.245,0.000
230,-0.240,0.010
231,-0.225,0.035
232,-0.195,0.035
233,-0.195,0.020
234,-0.195,0.025
235,-0.205,0.010
236,-0.205,0.035
237,-0.200,0.045
238,-0.180,0.055
239,-0.200,0.050
240,-0.220,0.025
241,-0.230,0.020
242,-0.230,0.020
243,-0.230,0.015
244,-0.235,0.025
245,-0.240,0.015
246,-0.245,0.005
247,-0.255,-0.005
248,-0.260,0.015
249,-0.245,0.030
250,-0.230,0.030
251,-0.240,0.035
252,-0.245,0.030
253,-0.265,0.025
254,-0.240,0.035
255,-0.225,0.055
256,-0.225,0.060
257,-0.220,0.030
258,-0.225,0.005
259,-0.260,-0.005
260,-0.265,-0.005
261,-0.280,0.005
262,-0.275,0.020
263,-0.285,0.005
264,-0.300,-0.005
265,-0.290,-0.005
266,-0.290,-0.015
267,-0.280,-0.005
268,-0.260,0.005
269,-0.260,-0.005
270,-0.300,-0.020
271,-0.295,-0.020
272,-0.305,-0.015
273,-0.295,-0.005
274,-0.285,0.000
275,-0.275,-0.015
276,-0.295,-0.025
277,-0.310,-0.030
278,-0.305,-0.015
279,-0.285,-0.005
280,-0.275,0.005
281,-0.285,-0.005
282,-0.290,-0.025
283,-0.290,-0.030
284,-0.315,-0.015
285,-0.290,-0.010
286,-0.280,0.005
287,-0.270,0.000
288,-0.290,-0.005
289,-0.295,-0.020
290,-0.300,-0.005
291,-0.295,0.015
292,-0.280,0.025
293,-0.280,0.025
294,-0.275,0.020
295,-0.295,0.030
296,-0.290,0.065
297,-0.255,0.110
298,-0.240,0.140
299,-0.215,0.190
300,-0.195,0.235
301,-0.175,0.285
302,-0.165,0.355
303,-0.175,0.485
304,-0.235,0.635
305,-0.305,0.800
306,-0.350,0.965
307,-0.405,1.125
308,-0.485,1.325
309,-0.540,1.535
310,-0.545,1.760
311,-0.470,1.980
312,-0.340,2.050
313,-0.180,1.880
314,-0.060,1.400
315,-0.045,0.770
316,-0.215,0.280
317,-0.515,0.010
318,-0.725,-0.070
319,-0.770,-0.055
320,-0.690,-0.025
321,-0.530,-0.005
322,-0.385,0.000
323,-0.305,-0.005
324,-0.290,-0.040
325,-0.285,-0.065
326,-0.275,-0.075
327,-0.270,-0.060
328,-0.245,-0.070
329,-0.250,-0.070
330,-0.250,-0.090
331,-0.245,-0.110
332,-0.235,-0.095
333,-0.225,-0.090
334,-0.200,-0.075
335,-0.210,-0.080
336,-0.200,-0.095
337,-0.220,-0.105
338,-0.215,-0.080
339,-0.210,-0.090
340,-0.190,-0.085
341,-0.190,-0.090
342,-0.190,-0.105
343,-0.205,-0.105
344,-0.205,-0.105
345,-0.200,-0.090
346,-0.175,-0.085
347,-0.175,-0.100
348,-0.185,-0.125
349,-0.205,-0.135
350,-0.200,-0.115
351,-0.190,-0.110
352,-0.165,-0.095
353,-0.170,-0.120
354,-0.180,-0.145
355,-0.195,-0.125
356,-0.195,-0.120
357,-0.180,-0.125
358,-0.180,-0.105
359,-0.170,-0.115
360,-0.175,-0.135
361,-0.185,-0.145
362,-0.180,-0.125
363,-0.170,-0.125
364,-0.160,-0.115
365,-0.160,-0.115
366,-0.185,-0.130
367,-0.170,-0.130
368,-0.180,-0.120
369,-0.165,-0.125
370,-0.140,-0.110
371,-0.130,-0.115
372,-0.125,-0.125
373,-0.140,-0.125
374,-0.145,-0.105
375,-0.135,-0.105
376,-0.130,-0.095
377,-0.115,-0.105
378,-0.125,-0.125
379,-0.120,-0.115
380,-0.120,-0.110
381,-0.120,-0.095
382,-0.110,-0.085
383,-0.095,-0.085
384,-0.100,-0.105
385,-0.105,-0.100
386,-0.110,-0.095
387,-0.100,-0.060
388,-0.075,-0.060
389,-0.075,-0.055
390,-0.085,-0.060
391,-0.070,-0.070
392,-0.080,-0.040
393,-0.060,-0.025
394,-0.040,-0.005
395,-0.030,0.000
396,-0.035,-0.005
397,-0.040,0.005
398,-0.030,0.030
399,-0.010,0.055
400,-0.005,0.095
401,0.005,0.090
402,0.005,0.095
403,-0.005,0.100
404,-0.005,0.130
405,0.010,0.160
406,0.025,0.190
407,0.025,0.190
408,0.000,0.180
409,-0.010,0.185
410,-0.010,0.205
411,-0.020,0.230
412,0.010,0.240
413,0.010,0.235
414,-0.010,0.220
415,-0.030,0.215
416,-0.035,0.215
417,-0.040,0.215
418,-0.035,0.225
419,-0.055,0.210
420,-0.065,0.180
421,-0.080,0.155
422,-0.100,0.160
423,-0.095,0.160
424,-0.095,0.155
425,-0.115,0.135
426,-0.130,0.110
427,-0.150,0.095
428,-0.165,0.090
429,-0.165,0.100
430,-0.165,0.090
431,-0.180,0.075
432,-0.180,0.065
433,-0.210,0.040
434,-0.200,0.055
435,-0.200,0.060
436,-0.190,0.070
437,-0.195,0.050
438,-0.215,0.035
439,-0.220,0.025
440,-0.220,0.040
441,-0.215,0.045
442,-0.210,0.045
443,-0.215,0.035
444,-0.225,0.020
445,-0.230,0.015
446,-0.250,0.015
447,-0.235,0.030
448,-0.220,0.050
449,-0.225,0.030
450,-0.235,0.020
451,-0.245,0.010
452,-0.245,0.025
453,-0.240,0.035
454,-0.225,0.025
455,-0.220,0.015
456,-0.245,0.015
457,-0.265,0.000
458,-0.245,0.015
459,-0.245,0.015
460,-0.235,0.020
461,-0.235,0.010
462,-0.240,-0.005
463,-0.265,-0.005
464,-0.265,-0.005
465,-0.255,0.010
466,-0.235,0.030
467,-0.225,0.005
468,-0.245,-0.010
469,-0.260,-0.005
470,-0.260,-0.015
471,-0.255,0.000
472,-0.240,0.005
473,-0.245,0.000
474,-0.250,-0.020
475,-0.265,-0.020
476,-0.255,-0.010
477,-0.255,0.015
478,-0.245,0.015
479,-0.235,-0.005
480,-0.250,-0.005
481,-0.265,-0.010
482,-0.260,-0.010
483,-0.250,0.010
484,-0.235,0.020
485,-0.230,0.010
486,-0.240,0.000
487,-0.255,-0.010
488,-0.250,0.000
489,-0.240,0.015
490,-0.220,0.015
491,-0.220,0.005
492,-0.240,0.000
493,-0.240,0.000
494,-0.240,0.015
495,-0.240,0.025
496,-0.225,0.020
497,-0.225,0.010
498,-0.235,-0.005
499,-0.235,0.000
500,-0.245,0.010
501,-0.230,0.030
502,-0.220,0.030
503,-0.215,0.020
504,-0.230,0.015
505,-0.240,0.010
506,-0.255,0.010
507,-0.245,0.035
508,-0.220,0.035
509,-0.230,0.030
510,-0.240,0.020
511,-0.255,0.005
512,-0.260,0.015
513,-0.245,0.025
514,-0.240,0.030
515,-0.235,0.020
516,-0.255,0.005
517,-0.265,-0.005
518,-0.270,0.005
519,-0.250,0.010
520,-0.235,0.020
521,-0.240,0.015
522,-0.250,0.000
523,-0.260,-0.010
524,-0.260,-0.005
525,-0.250,0.010
526,-0.240,0.030
527,-0.240,0.000
528,-0.255,0.005
529,-0.265,-0.015
530,-0.270,-0.005
531,-0.265,0.015
532,-0.250,0.030
533,-0.255,0.010
534,-0.280,-0.005
535,-0.290,-0.020
536,-0.280,-0.005
537,-0.280,0.000
538,-0.260,0.015
539,-0.265,0.005
540,-0.275,-0.010
541,-0.285,-0.015
542,-0.285,-0.010
543,-0.265,0.000
544,-0.250,0.015
545,-0.255,-0.005
546,-0.270,-0.020
547,-0.280,-0.030
548,-0.280,-0.005
549,-0.265,0.000
550,-0.245,-0.005
551,-0.260,0.000
552,-0.265,-0.005
553,-0.270,-0.015
554,-0.270,-0.010
555,-0.260,-0.010
556,-0.255,0.005
557,-0.250,-0.005
558,-0.270,-0.010
559,-0.270,-0.010
560,-0.280,-0.005
561,-0.270,-0.005
562,-0.265,-0.005
563,-0.260,-0.010
564,-0.285,-0.025
565,-0.285,-0.020
566,-0.285,-0.020
567,-0.285,-0.010
568,-0.260,-0.005
569,-0.275,-0.005
570,-0.275,-0.020
571,-0.280,-0.030
572,-0.275,-0.015
573,-0.275,-0.010
574,-0.265,0.005
575,-0.250,0.000
576,-0.270,-0.020
577,-0.275,-0.010
578,-0.290,-0.020
579,-0.270,0.000
580,-0.265,0.000
581,-0.265,-0.005
582,-0.270,-0.020
583,-0.295,-0.030
584,-0.295,-0.015
585,-0.285,0.000
586,-0.265,0.000
587,-0.260,-0.005
588,-0.270,-0.010
589,-0.285,-0.025
590,-0.310,-0.025
591,-0.290,-0.015
592,-0.270,-0.005
593,-0.270,-0.005
594,-0.280,-0.025
595,-0.295,-0.030
596,-0.295,-0.010
597,-0.285,0.005
598,-0.275,-0.005
599,-0.270,-0.010
600,-0.280,-0.025
601,-0.285,-0.035
602,-0.300,-0.010
603,-0.270,0.000
604,-0.275,0.000
605,-0.280,-0.005
606,-0.275,-0.025
607,-0.280,-0.030
608,-0.285,-0.025
609,-0.270,-0.010
610,-0.255,0.000
611,-0.255,-0.005
612,-0.265,-0.020
613,-0.270,-0.020
614,-0.290,-0.020
615,-0.260,0.000
616,-0.245,0.000
617,-0.255,-0.005
618,-0.265,-0.025
619,-0.285,-0.030
620,-0.285,-0.020
621,-0.265,-0.005
622,-0.245,0.010
623,-0.255,-0.005
624,-0.270,-0.015
625,-0.275,-0.030
626,-0.285,-0.005
627,-0.270,-0.010
628,-0.255,0.000
629,-0.250,0.000
630,-0.260,-0.015
631,-0.270,-0.020
632,-0.270,0.005
633,-0.260,0.005
634,-0.230,0.000
635,-0.240,0.000
636,-0.245,-0.010
637,-0.245,-0.010
638,-0.240,0.025
639,-0.215,0.025
640,-0.195,0.040
641,-0.200,0.040
642,-0.210,0.020
643,-0.210,0.015
644,-0.205,0.030
645,-0.195,0.045
646,-0.180,0.050
647,-0.175,0.060
648,-0.175,0.045
649,-0.190,0.030
650,-0.200,0.050
651,-0.195,0.055
652,-0.185,0.070
653,-0.185,0.045
654,-0.215,0.015
655,-0.220,0.000
656,-0.235,0.025
657,-0.230,0.025
658,-0.220,0.025
659,-0.225,0.040
660,-0.240,0.030
661,-0.245,0.020
662,-0.235,0.030
663,-0.245,0.050
664,-0.210,0.055
665,-0.220,0.055
666,-0.230,0.030
667,-0.240,0.025
668,-0.235,0.040
669,-0.225,0.045
670,-0.210,0.035
671,-0.210,0.010
672,-0.225,-0.015
673,-0.245,-0.010
674,-0.280,-0.005
675,-0.270,0.010
676,-0.260,0.010
677,-0.275,0.000
678,-0.280,-0.005
679,-0.285,-0.010
680,-0.280,0.005
681,-0.265,0.010
682,-0.260,0.000
683,-0.255,0.000
684,-0.280,-0.015
685,-0.275,-0.025
686,-0.280,-0.015
687,-0.265,0.000
688,-0.255,0.000
689,-0.260,-0.015
690,-0.275,-0.010
691,-0.280,-0.010
692,-0.280,-0.005
693,-0.270,0.000
694,-0.250,0.010
695,-0.255,-0.010
696,-0.270,-0.025
697,-0.285,-0.020
698,-0.285,-0.010
699,-0.270,0.010
700,-0.250,0.005
701,-0.250,0.000
702,-0.265,0.000
703,-0.270,-0.015
704,-0.275,-0.015
705,-0.260,0.015
706,-0.255,0.025
707,-0.245,0.020
708,-0.245,0.015
709,-0.245,0.035
710,-0.240,0.080
711,-0.225,0.125
712,-0.200,0.155
713,-0.180,0.210
714,-0.170,0.240
715,-0.150,0.300
716,-0.140,0.385
717,-0.165,0.490
718,-0.215,0.625
719,-0.250,0.765
720,-0.305,0.895
721,-0.355,1.035
722,-0.405,1.200
723,-0.460,1.350
724,-0.505,1.515
725,-0.505,1.685
726,-0.460,1.865
727,-0.405,2.015
728,-0.295,2.030
729,-0.150,1.915
730,-0.025,1.625
731,0.025,1.150
732,-0.035,0.695
733,-0.205,0.335
734,-0.430,0.110
735,-0.600,0.005
736,-0.670,-0.045
737,-0.675,-0.065
738,-0.630,-0.070
739,-0.585,-0.045
740,-0.500,-0.030
741,-0.365,-0.015
742,-0.275,-0.015
743,-0.260,-0.030
744,-0.250,-0.065
745,-0.250,-0.080
746,-0.240,-0.085
747,-0.230,-0.090
748,-0.205,-0.090
749,-0.210,-0.090
750,-0.210,-0.110
751,-0.230,-0.120
752,-0.215,-0.100
753,-0.195,-0.110
754,-0.180,-0.100
755,-0.180,-0.115
756,-0.175,-0.115
757,-0.185,-0.120
758,-0.185,-0.110
759,-0.165,-0.095
760,-0.155,-0.105
761,-0.155,-0.115
762,-0.165,-0.135
763,-0.170,-0.135
764,-0.170,-0.125
765,-0.155,-0.110
766,-0.155,-0.115
767,-0.130,-0.120
768,-0.155,-0.125
769,-0.165,-0.135
770,-0.170,-0.140
771,-0.150,-0.120
772,-0.130,-0.125
773,-0.140,-0.140
774,-0.150,-0.150
775,-0.165,-0.160
776,-0.165,-0.145
777,-0.155,-0.130
778,-0.140,-0.135
779,-0.140,-0.140
780,-0.145,-0.170
781,-0.150,-0.165
782,-0.155,-0.160
783,-0.140,-0.150
784,-0.120,-0.140
785,-0.130,-0.150
786,-0.135,-0.165
787,-0.135,-0.165
788,-0.155,-0.160
789,-0.140,-0.150
790,-0.110,-0.150
791,-0.130,-0.155
792,-0.135,-0.165
793,-0.125,-0.160
794,-0.125,-0.150
795,-0.115,-0.140
796,-0.100,-0.140
797,-0.105,-0.150
798,-0.105,-0.165
799,-0.120,-0.170
800,-0.115,-0.155
801,-0.115,-0.130
802,-0.095,-0.120
803,-0.080,-0.135
804,-0.110,-0.145
805,-0.105,-0.155
806,-0.110,-0.140
807,-0.090,-0.120
808,-0.070,-0.130
809,-0.065,-0.135
810,-0.075,-0.140
811,-0.080,-0.135
812,-0.085,-0.130
813,-0.055,-0.105
814,-0.045,-0.105
815,-0.040,-0.105
816,-0.040,-0.110
817,-0.040,-0.110
818,-0.050,-0.105
819,-0.020,-0.070
820,-0.005,-0.060
821,0.000,-0.060
822,-0.005,-0.065
823,-0.015,-0.050
824,-0.010,-0.030
825,0.000,0.000
826,0.025,0.010
827,0.025,0.015
828,0.020,0.010
829,0.010,0.020
830,0.010,0.050
831,0.030,0.065
832,0.050,0.085
833,0.040,0.100
834,0.030,0.100
835,0.025,0.115
836,0.040,0.135
837,0.060,0.165
838,0.080,0.170
839,0.070,0.185
840,0.055,0.180
841,0.035,0.175
842,0.050,0.200
843,0.045,0.200
844,0.045,0.220
845,0.035,0.210
846,0.020,0.195
847,-0.005,0.180
848,-0.015,0.180
849,-0.005,0.185
850,-0.005,0.165
851,-0.020,0.150
852,-0.035,0.135
853,-0.065,0.105
854,-0.085,0.110
855,-0.080,0.115
856,-0.070,0.095
857,-0.095,0.085
858,-0.110,0.060
859,-0.140,0.050
860,-0.135,0.040
861,-0.130,0.055
862,-0.125,0.055
863,-0.140,0.045
864,-0.150,0.030
865,-0.150,0.015
866,-0.155,0.030
867,-0.145,0.035
868,-0.150,0.030
869,-0.145,0.025
870,-0.175,0.005
871,-0.170,0.010
872,-0.175,0.015
873,-0.155,0.025
874,-0.150,0.015
875,-0.160,0.005
876,-0.165,-0.005
877,-0.175,-0.005
878,-0.185,0.000
879,-0.180,0.015
880,-0.170,0.015
881,-0.160,0.015
882,-0.185,-0.010
883,-0.190,-0.015
884,-0.200,-0.010
885,-0.200,-0.015
886,-0.175,0.000
887,-0.185,-0.010
888,-0.195,-0.020
889,-0.200,-0.015
890,-0.200,-0.020
891,-0.175,0.005
892,-0.170,-0.005
893,-0.195,-0.015
894,-0.185,-0.040
895,-0.190,-0.030
896,-0.195,-0.025
897,-0.195,-0.010
898,-0.170,-0.010
899,-0.175,-0.025
900,-0.180,-0.035
901,-0.190,-0.030
902,-0.195,-0.035
903,-0.195,-0.020
904,-0.190,-0.020
905,-0.185,-0.025
906,-0.195,-0.040
907,-0.215,-0.055
908,-0.215,-0.035
909,-0.205,-0.015
910,-0.190,-0.030
911,-0.205,-0.035
912,-0.215,-0.055
913,-0.220,-0.040
914,-0.215,-0.030
915,-0.205,-0.020
916,-0.185,-0.010
917,-0.190,-0.015
918,-0.195,-0.030
919,-0.200,-0.035
920,-0.215,-0.030
921,-0.205,-0.020
922,-0.190,-0.005
923,-0.185,-0.020
924,-0.195,-0.040
925,-0.200,-0.030
926,-0.210,-0.025
927,-0.190,0.000
928,-0.170,-0.010
929,-0.180,-0.015
930,-0.200,-0.025
931,-0.200,-0.025
932,-0.210,-0.010
933,-0.215,-0.005
934,-0.185,0.000
935,-0.195,-0.005
936,-0.200,-0.025
937,-0.225,-0.020
938,-0.225,-0.010
939,-0.215,-0.010
940,-0.205,-0.005
941,-0.210,0.000
942,-0.230,-0.015
943,-0.235,-0.025
944,-0.230,-0.015
945,-0.210,0.000
946,-0.205,-0.010
947,-0.210,-0.015
948,-0.230,-0.020
949,-0.240,-0.025
950,-0.235,-0.015
951,-0.220,0.000
952,-0.205,0.000
953,-0.215,-0.020
954,-0.220,-0.030
955,-0.230,-0.035
956,-0.245,-0.020
957,-0.225,-0.010
958,-0.225,-0.005
959,-0.230,-0.010
960,-0.235,-0.040
961,-0.245,-0.040
962,-0.255,-0.040
963,-0.255,-0.025
964,-0.245,-0.015
965,-0.250,-0.025
966,-0.255,-0.040
967,-0.270,-0.035
968,-0.265,-0.025
969,-0.255,-0.015
970,-0.235,-0.025
971,-0.245,-0.030
972,-0.250,-0.050
973,-0.265,-0.045
974,-0.260,-0.035
975,-0.250,-0.025
976,-0.250,-0.030
977,-0.260,-0.020
978,-0.270,-0.055
979,-0.270,-0.055
980,-0.275,-0.040
981,-0.255,-0.030
982,-0.245,-0.035
983,-0.255,-0.050
984,-0.265,-0.040
985,-0.290,-0.050
986,-0.280,-0.035
987,-0.270,-0.015
988,-0.260,-0.025
989,-0.270,-0.035
990,-0.280,-0.050
991,-0.285,-0.045
992,-0.295,-0.040
993,-0.270,-0.015
994,-0.255,-0.020
995,-0.270,-0.025
996,-0.275,-0.040
997,-0.290,-0.055
998,-0.280,-0.040
999,-0.245,-0.040
1000,-0.270,-0.040
1001,-0.285,-0.045
1002,-0.280,-0.050
1003,-0.290,-0.040
1004,-0.265,-0.025
1005,-0.255,-0.030
1006,-0.260,-0.025
1007,-0.275,-0.040
1008,-0.290,-0.040
1009,-0.275,-0.040
1010,-0.280,-0.010
1011,-0.275,-0.015
1012,-0.265,-0.030
1013,-0.275,-0.045
1014,-0.290,-0.040
1015,-0.290,-0.030
1016,-0.290,-0.020
1017,-0.270,-0.025
1018,-0.265,-0.030
1019,-0.290,-0.035
1020,-0.295,-0.045
1021,-0.290,-0.025
1022,-0.280,-0.005
1023,-0.260,-0.010
1024,-0.265,-0.025
1025,-0.275,-0.035
1026,-0.300,-0.030
1027,-0.290,-0.030
1028,-0.270,-0.020
1029,-0.270,-0.015
1030,-0.275,-0.035
1031,-0.280,-0.040
1032,-0.285,-0.040
1033,-0.305,-0.025
1034,-0.270,-0.005
1035,-0.250,-0.015
1036,-0.265,-0.020
1037,-0.280,-0.040
1038,-0.295,-0.050
1039,-0.290,-0.040
1040,-0.285,-0.015
1041,-0.270,-0.010
1042,-0.260,-0.020
1043,-0.280,-0.025
1044,-0.295,-0.045
1045,-0.290,-0.030
1046,-0.280,-0.010
1047,-0.250,0.000
1048,-0.265,-0.015
1049,-0.270,-0.030
1050,-0.280,-0.020
1051,-0.280,-0.015
1052,-0.250,-0.005
1053,-0.235,-0.005
1054,-0.250,0.000
1055,-0.255,-0.010
1056,-0.250,-0.005
1057,-0.240,0.015
1058,-0.220,0.020
1059,-0.200,0.025
1060,-0.235,0.030
1061,-0.225,0.010
1062,-0.245,0.005
1063,-0.235,0.030
1064,-0.215,0.040
1065,-0.195,0.045
1066,-0.190,0.040
1067,-0.200,0.035
1068,-0.225,0.030
1069,-0.225,0.035
1070,-0.230,0.045
1071,-0.215,0.035
1072,-0.235,0.015
1073,-0.240,0.015
1074,-0.255,0.005
1075,-0.265,0.020
1076,-0.250,0.035
1077,-0.245,0.040
1078,-0.230,0.015
1079,-0.240,0.020
1080,-0.255,0.015
1081,-0.240,0.040
1082,-0.245,0.050
1083,-0.220,0.040
1084,-0.225,0.040
1085,-0.225,0.025
1086,-0.230,0.005
1087,-0.235,0.000
1088,-0.235,0.005
1089,-0.245,0.005
1090,-0.270,-0.020
1091,-0.285,-0.020
1092,-0.305,-0.020
1093,-0.305,-0.015
1094,-0.280,0.000
1095,-0.270,-0.005
1096,-0.280,-0.005
1097,-0.280,-0.015
1098,-0.295,-0.030
1099,-0.290,-0.015
1100,-0.280,0.000
1101,-0.270,0.000
1102,-0.285,-0.010
1103,-0.290,-0.025
1104,-0.290,-0.030
1105,-0.285,-0.015
1106,-0.285,-0.005
1107,-0.270,-0.005
1108,-0.260,-0.005
1109,-0.270,-0.020
1110,-0.290,-0.015
1111,-0.290,-0.015
1112,-0.280,-0.010
1113,-0.260,0.005
1114,-0.270,-0.025
1115,-0.280,-0.025
1116,-0.295,-0.030
1117,-0.285,-0.015
1118,-0.280,0.000
1119,-0.260,-0.005
1120,-0.285,-0.005
1121,-0.280,-0.025
1122,-0.280,-0.020
1123,-0.275,-0.015
1124,-0.260,0.025
1125,-0.245,0.030
1126,-0.250,0.040
1127,-0.255,0.050
1128,-0.245,0.075
1129,-0.230,0.120
1130,-0.200,0.190
1131,-0.170,0.230
1132,-0.140,0.275
1133,-0.150,0.310
1134,-0.165,0.380
1135,-0.235,0.515
1136,-0.290,0.675
1137,-0.310,0.815
1138,-0.365,0.950
1139,-0.425,1.075
1140,-0.525,1.205
1141,-0.590,1.365
1142,-0.595,1.560
1143,-0.545,1.775
1144,-0.445,1.925
1145,-0.335,1.940
1146,-0.215,1.825
1147,-0.095,1.545
1148,-0.025,1.155
1149,-0.035,0.730
1150,-0.170,0.375
1151,-0.375,0.130
1152,-0.590,0.000
1153,-0.680,-0.050
1154,-0.685,-0.060
1155,-0.645,-0.050
1156,-0.600,-0.035
1157,-0.535,-0.045
1158,-0.445,-0.050
1159,-0.360,-0.045
1160,-0.300,-0.045
1161,-0.270,-0.025
1162,-0.270,-0.055
1163,-0.270,-0.075
1164,-0.265,-0.090
1165,-0.260,-0.105
1166,-0.245,-0.085
1167,-0.235,-0.090
1168,-0.235,-0.110
1169,-0.250,-0.110
1170,-0.245,-0.115
1171,-0.230,-0.110
1172,-0.240,-0.085
1173,-0.200,-0.085
1174,-0.200,-0.120
1175,-0.215,-0.120
1176,-0.215,-0.130
1177,-0.230,-0.110
1178,-0.195,-0.110
1179,-0.190,-0.100
1180,-0.180,-0.110
1181,-0.200,-0.125
1182,-0.215,-0.125
1183,-0.195,-0.120
1184,-0.185,-0.120
1185,-0.175,-0.120
1186,-0.165,-0.110
1187,-0.185,-0.130
1188,-0.205,-0.145
1189,-0.185,-0.130
1190,-0.180,-0.120
1191,-0.170,-0.115
1192,-0.165,-0.135
1193,-0.180,-0.145
1194,-0.195,-0.150
1195,-0.195,-0.130
1196,-0.175,-0.120
1197,-0.160,-0.125
1198,-0.170,-0.140
1199,-0.165,-0.145
1200,-0.190,-0.145
1201,-0.180,-0.145
1202,-0.170,-0.120
1203,-0.165,-0.135
1204,-0.145,-0.130
1205,-0.170,-0.150
1206,-0.185,-0.145
1207,-0.175,-0.135
1208,-0.170,-0.120
1209,-0.150,-0.130
1210,-0.150,-0.135
1211,-0.160,-0.150
1212,-0.170,-0.155
1213,-0.160,-0.145
1214,-0.155,-0.135
1215,-0.130,-0.115
1216,-0.135,-0.125
1217,-0.150,-0.145
1218,-0.145,-0.150
1219,-0.150,-0.145
1220,-0.130,-0.130
1221,-0.125,-0.120
1222,-0.120,-0.120
1223,-0.125,-0.135
1224,-0.130,-0.130
1225,-0.130,-0.115
1226,-0.125,-0.100
1227,-0.100,-0.105
1228,-0.100,-0.115
1229,-0.110,-0.120
1230,-0.120,-0.120
1231,-0.110,-0.100
1232,-0.095,-0.090
1233,-0.085,-0.080
1234,-0.080,-0.085
1235,-0.085,-0.080
1236,-0.090,-0.080
1237,-0.080,-0.070
1238,-0.065,-0.055
1239,-0.050,-0.050
1240,-0.040,-0.050
1241,-0.040,-0.045
1242,-0.055,-0.030
1243,-0.040,-0.020
1244,-0.025,0.005
1245,-0.020,0.015
1246,-0.020,0.020
1247,-0.015,0.030
1248,-0.015,0.035
1249,-0.010,0.060
1250,-0.005,0.090
1251,0.020,0.105
1252,0.005,0.100
1253,-0.015,0.120
1254,-0.020,0.120
1255,-0.010,0.150
1256,0.000,0.180
1257,0.005,0.195
1258,0.010,0.185
1259,0.005,0.190
1260,-0.015,0.195
1261,-0.005,0.210
1262,0.000,0.220
1263,-0.015,0.210
1264,-0.020,0.215
1265,-0.035,0.195
1266,-0.065,0.180
1267,-0.080,0.200
1268,-0.070,0.180
1269,-0.070,0.175
1270,-0.080,0.160
1271,-0.090,0.135
1272,-0.120,0.120
1273,-0.125,0.130
1274,-0.115,0.125
1275,-0.115,0.125
1276,-0.135,0.100
1277,-0.150,0.075
1278,-0.180,0.065
1279,-0.185,0.070
1280,-0.170,0.080
1281,-0.165,0.080
1282,-0.170,0.065
1283,-0.185,0.040
1284,-0.195,0.045
1285,-0.195,0.050
1286,-0.185,0.055
1287,-0.185,0.055
1288,-0.180,0.040
1289,-0.205,0.020
1290,-0.225,0.035
1291,-0.215,0.050
1292,-0.195,0.050
1293,-0.185,0.055
1294,-0.190,0.030
1295,-0.210,0.015
1296,-0.230,0.015
1297,-0.220,0.025
1298,-0.205,0.050
1299,-0.190,0.040
1300,-0.195,0.035
1301,-0.215,0.015
1302,-0.220,0.015
1303,-0.230,0.015
1304,-0.225,0.025
1305,-0.210,0.025
1306,-0.215,0.015
1307,-0.220,0.010
1308,-0.225,0.000
1309,-0.225,0.000
1310,-0.215,0.025
1311,-0.210,0.015
1312,-0.220,0.005
1313,-0.220,-0.015
1314,-0.240,-0.025
1315,-0.235,0.005
1316,-0.235,0.010
1317,-0.190,0.020
1318,-0.215,0.000
1319,-0.220,-0.010
1320,-0.235,-0.030
1321,-0.210,-0.020
1322,-0.225,-0.005
1323,-0.220,0.000
1324,-0.200,-0.015
1325,-0.220,-0.025
1326,-0.235,-0.010
1327,-0.225,-0.010
1328,-0.215,0.005
1329,-0.195,-0.005
1330,-0.185,-0.020
1331,-0.205,-0.015
1332,-0.220,-0.020
1333,-0.210,-0.010
1334,-0.205,0.010
1335,-0.185,0.020
1336,-0.195,0.010
1337,-0.210,-0.005
1338,-0.225,-0.005
1339,-0.220,0.000
1340,-0.220,0.010
1341,-0.205,0.020
1342,-0.200,0.015
1343,-0.210,0.000
1344,-0.210,-0.005
1345,-0.210,0.005
1346,-0.205,0.025
1347,-0.190,0.020
1348,-0.200,0.010
1349,-0.210,-0.005
1350,-0.225,-0.005
1351,-0.220,0.010
1352,-0.205,0.030
1353,-0.200,0.020
1354,-0.195,0.010
1355,-0.215,-0.010
1356,-0.220,0.005
1357,-0.240,-0.005
1358,-0.230,0.010
1359,-0.215,0.015
1360,-0.215,0.000
1361,-0.235,-0.010
1362,-0.245,-0.005
1363,-0.245,0.000
1364,-0.225,0.010
1365,-0.225,0.005
1366,-0.230,-0.005
1367,-0.235,-0.020
1368,-0.245,-0.015
1369,-0.245,-0.015
1370,-0.220,0.000
1371,-0.230,0.005
1372,-0.220,-0.010
1373,-0.240,-0.025
1374,-0.250,-0.020
1375,-0.250,-0.005
1376,-0.240,0.005
1377,-0.235,-0.010
1378,-0.235,-0.010
1379,-0.255,-0.035
1380,-0.245,-0.030
1381,-0.260,-0.035
1382,-0.245,-0.015
1383,-0.240,-0.015
1384,-0.245,-0.020
1385,-0.260,-0.045
1386,-0.270,-0.040
1387,-0.280,-0.030
1388,-0.255,-0.015
1389,-0.245,-0.015
1390,-0.245,-0.040
1391,-0.265,-0.040
1392,-0.290,-0.040
1393,-0.275,-0.025
1394,-0.270,-0.020
1395,-0.250,-0.015
1396,-0.255,-0.025
1397,-0.260,-0.035
1398,-0.270,-0.040
1399,-0.275,-0.030
1400,-0.270,-0.020
1401,-0.250,-0.025
1402,-0.250,-0.025
1403,-0.270,-0.040
1404,-0.290,-0.035
1405,-0.275,-0.025
1406,-0.260,-0.020
1407,-0.245,-0.015
1408,-0.250,-0.020
1409,-0.265,-0.045
1410,-0.295,-0.050
1411,-0.290,-0.030
1412,-0.265,-0.015
1413,-0.255,-0.010
1414,-0.265,-0.030
1415,-0.285,-0.055
1416,-0.300,-0.035
1417,-0.295,-0.035
1418,-0.265,-0.020
1419,-0.260,-0.025
1420,-0.255,-0.020
1421,-0.260,-0.035
1422,-0.270,-0.050
1423,-0.270,-0.030
1424,-0.260,-0.020
1425,-0.250,-0.025
1426,-0.255,-0.020
1427,-0.255,-0.035
1428,-0.265,-0.035
1429,-0.280,-0.025
1430,-0.260,-0.015
1431,-0.240,-0.015
1432,-0.245,-0.025
1433,-0.255,-0.040
1434,-0.280,-0.045
1435,-0.275,-0.030
1436,-0.270,-0.015
1437,-0.255,-0.010
1438,-0.240,-0.020
1439,-0.260,-0.035
1440,-0.270,-0.045
1441,-0.275,-0.035
1442,-0.265,-0.015
1443,-0.255,-0.010
1444,-0.260,-0.010
1445,-0.270,-0.030
1446,-0.270,-0.035
1447,-0.270,-0.025
1448,-0.270,-0.020
1449,-0.245,-0.015
1450,-0.245,-0.020
1451,-0.255,-0.050
1452,-0.265,-0.035
1453,-0.265,-0.025
1454,-0.255,-0.025
1455,-0.230,-0.015
1456,-0.250,-0.035
1457,-0.250,-0.040
1458,-0.255,-0.045
1459,-0.270,-0.025
1460,-0.255,-0.010
1461,-0.245,-0.010
1462,-0.245,-0.025
1463,-0.260,-0.040
1464,-0.275,-0.035
1465,-0.275,-0.020
1466,-0.255,-0.015
1467,-0.240,-0.005
1468,-0.250,-0.020
1469,-0.250,-0.020
1470,-0.260,-0.025
1471,-0.270,-0.010
1472,-0.240,-0.010
1473,-0.215,0.005
1474,-0.210,-0.005
1475,-0.215,-0.005
1476,-0.215,0.010
1477,-0.220,0.015
1478,-0.200,0.035
1479,-0.185,0.025
1480,-0.185,0.010
1481,-0.195,0.025
1482,-0.190,0.020
1483,-0.195,0.020
1484,-0.175,0.035
1485,-0.175,0.035
1486,-0.180,0.035
1487,-0.200,0.015
1488,-0.205,0.000
1489,-0.215,0.010
1490,-0.225,0.010
1491,-0.215,0.015
1492,-0.235,0.010
1493,-0.235,-0.010
1494,-0.240,0.000
1495,-0.245,0.005
1496,-0.225,0.035
1497,-0.225,0.035
1498,-0.215,0.025
1499,-0.205,0.015
1500,-0.215,0.000
1501,-0.210,-0.005
1502,-0.210,-0.005
1503,-0.225,-0.030
1504,-0.245,-0.025
1505,-0.270,-0.040
1506,-0.290,-0.030
1507,-0.275,-0.025
1508,-0.270,-0.020
1509,-0.245,-0.030
1510,-0.255,-0.040
1511,-0.265,-0.045
1512,-0.280,-0.040
1513,-0.280,-0.035
1514,-0.270,-0.015
1515,-0.255,-0.020
1516,-0.255,-0.025
1517,-0.275,-0.050
1518,-0.280,-0.045
1519,-0.280,-0.035
1520,-0.275,-0.020
1521,-0.260,-0.025
1522,-0.265,-0.025
1523,-0.275,-0.045
1524,-0.280,-0.050
1525,-0.280,-0.030
1526,-0.260,-0.020
1527,-0.250,-0.025
1528,-0.250,-0.030
1529,-0.275,-0.035
1530,-0.275,-0.045
1531,-0.275,-0.030
1532,-0.260,-0.015
1533,-0.245,-0.010
1534,-0.255,-0.005
1535,-0.255,-0.020
1536,-0.275,-0.005
1537,-0.260,0.035
1538,-0.235,0.065
1539,-0.210,0.110
1540,-0.195,0.145
1541,-0.195,0.200
1542,-0.185,0.265
1543,-0.145,0.335
1544,-0.155,0.455
1545,-0.190,0.610
1546,-0.260,0.765
1547,-0.315,0.905
1548,-0.355,1.080
1549,-0.415,1.245
1550,-0.465,1.415
1551,-0.500,1.575
1552,-0.490,1.780
1553,-0.425,1.945
1554,-0.335,2.035
1555,-0.190,1.985
1556,-0.065,1.735
1557,0.015,1.300
1558,-0.010,0.780
1559,-0.155,0.385
1560,-0.375,0.130
1561,-0.575,0.010
1562,-0.665,-0.040
1563,-0.655,-0.045
1564,-0.630,-0.055
1565,-0.575,-0.055
1566,-0.510,-0.040
1567,-0.375,-0.045
1568,-0.295,-0.035
1569,-0.265,-0.050
1570,-0.255,-0.060
1571,-0.255,-0.110
1572,-0.270,-0.120
1573,-0.270,-0.125
1574,-0.250,-0.110
1575,-0.230,-0.110
1576,-0.220,-0.130
1577,-0.225,-0.135
1578,-0.235,-0.140
1579,-0.235,-0.130
1580,-0.205,-0.120
1581,-0.195,-0.130
1582,-0.195,-0.145
1583,-0.200,-0.160
1584,-0.205,-0.145
1585,-0.200,-0.145
1586,-0.185,-0.130
1587,-0.170,-0.130
1588,-0.175,-0.140
1589,-0.185,-0.150
1590,-0.200,-0.150
1591,-0.195,-0.145
1592,-0.190,-0.130
1593,-0.170,-0.140
1594,-0.180,-0.145
1595,-0.200,-0.160
1596,-0.200,-0.175
1597,-0.185,-0.160
1598,-0.180,-0.155
1599,-0.160,-0.150
1600,-0.165,-0.175
1601,-0.180,-0.175
1602,-0.185,-0.175
1603,-0.170,-0.165
1604,-0.160,-0.155
1605,-0.150,-0.150
1606,-0.150,-0.170
1607,-0.160,-0.190
1608,-0.165,-0.185
1609,-0.170,-0.175
1610,-0.155,-0.170
1611,-0.135,-0.160
1612,-0.145,-0.165
1613,-0.155,-0.175
1614,-0.160,-0.190
1615,-0.150,-0.170
1616,-0.145,-0.155
1617,-0.135,-0.155
1618,-0.135,-0.150
1619,-0.155,-0.180
1620,-0.140,-0.180
1621,-0.140,-0.170
1622,-0.130,-0.155
1623,-0.120,-0.160
1624,-0.125,-0.165
1625,-0.130,-0.175
1626,-0.140,-0.160
1627,-0.135,-0.155
1628,-0.105,-0.145
1629,-0.080,-0.135
1630,-0.085,-0.145
1631,-0.105,-0.160
1632,-0.105,-0.160
1633,-0.100,-0.140
1634,-0.100,-0.130
1635,-0.065,-0.120
1636,-0.060,-0.120
1637,-0.075,-0.150
1638,-0.080,-0.130
1639,-0.070,-0.115
1640,-0.060,-0.105
1641,-0.035,-0.105
1642,-0.040,-0.110
1643,-0.045,-0.110
1644,-0.060,-0.085
1645,-0.035,-0.080
1646,-0.020,-0.045
1647,-0.005,-0.045
1648,-0.010,-0.045
1649,0.000,-0.050
1650,0.000,-0.025
1651,-0.005,0.000
1652,0.025,0.035
1653,0.035,0.045
1654,0.040,0.045
1655,0.035,0.050
1656,0.025,0.065
1657,0.025,0.095
1658,0.040,0.130
1659,0.055,0.140
1660,0.060,0.145
1661,0.040,0.140
1662,0.050,0.165
1663,0.045,0.185
1664,0.060,0.205
1665,0.060,0.210
1666,0.050,0.210
1667,0.030,0.180
1668,0.010,0.190
1669,0.005,0.195
1670,0.015,0.195
1671,0.005,0.190
1672,0.000,0.180
1673,-0.035,0.150
1674,-0.050,0.140
1675,-0.060,0.135
1676,-0.050,0.135
1677,-0.050,0.125
1678,-0.070,0.110
1679,-0.090,0.085
1680,-0.100,0.070
1681,-0.125,0.080
1682,-0.100,0.070
1683,-0.105,0.070
1684,-0.120,0.040
1685,-0.140,0.030
1686,-0.150,0.030
1687,-0.160,0.020
1688,-0.135,0.040
1689,-0.140,0.035
1690,-0.150,0.010
1691,-0.160,0.015
1692,-0.170,0.000
1693,-0.175,0.010
1694,-0.180,0.030
1695,-0.150,0.025
1696,-0.155,0.010
1697,-0.165,-0.005
1698,-0.185,0.000
1699,-0.180,0.010
1700,-0.170,0.015
1701,-0.180,0.015
1702,-0.165,0.000
1703,-0.185,-0.015
1704,-0.195,-0.005
1705,-0.190,0.010
1706,-0.185,0.025
1707,-0.160,0.015
1708,-0.175,0.005
1709,-0.185,-0.015
1710,-0.205,-0.015
1711,-0.185,0.000
1712,-0.165,-0.005
1713,-0.170,-0.005
1714,-0.175,-0.010
1715,-0.180,-0.025
1716,-0.195,-0.025
1717,-0.180,-0.025
1718,-0.180,-0.020
1719,-0.170,-0.015
1720,-0.185,-0.030
1721,-0.195,-0.030
1722,-0.195,-0.035
1723,-0.185,-0.035
1724,-0.175,-0.010
1725,-0.175,-0.020
1726,-0.175,-0.035
1727,-0.195,-0.040
1728,-0.215,-0.040
1729,-0.195,-0.035
1730,-0.175,-0.025
1731,-0.170,-0.030
1732,-0.185,-0.035
1733,-0.195,-0.040
1734,-0.200,-0.040
1735,-0.195,-0.030
1736,-0.170,-0.020
1737,-0.170,-0.030
1738,-0.170,-0.035
1739,-0.180,-0.040
1740,-0.190,-0.045
1741,-0.185,-0.020
1742,-0.175,-0.015
1743,-0.160,-0.025
1744,-0.170,-0.030
1745,-0.165,-0.040
1746,-0.185,-0.035
1747,-0.190,-0.025
1748,-0.165,-0.005
1749,-0.160,-0.005
1750,-0.165,-0.015
1751,-0.175,-0.030
1752,-0.190,-0.025
1753,-0.185,-0.020
1754,-0.180,0.000
1755,-0.160,0.010
1756,-0.165,-0.005
1757,-0.175,-0.020
1758,-0.190,-0.015
1759,-0.180,-0.010
1760,-0.160,0.010
1761,-0.150,0.005
1762,-0.160,-0.005
1763,-0.175,-0.020
1764,-0.190,-0.020
1765,-0.190,-0.005
1766,-0.185,0.010
1767,-0.170,0.010
1768,-0.170,0.010
1769,-0.195,-0.010
1770,-0.200,-0.015
1771,-0.195,-0.010
1772,-0.200,0.000
1773,-0.180,0.000
1774,-0.185,0.005
1775,-0.195,-0.015
1776,-0.215,-0.020
1777,-0.200,-0.010
1778,-0.200,-0.005
1779,-0.185,-0.005
1780,-0.205,-0.005
1781,-0.195,-0.010
1782,-0.220,-0.025
1783,-0.230,-0.015
1784,-0.210,0.000
1785,-0.200,-0.005
1786,-0.205,-0.010
1787,-0.210,-0.025
1788,-0.220,-0.010
1789,-0.210,-0.020
1790,-0.195,0.005
1791,-0.185,-0.010
1792,-0.205,-0.010
1793,-0.215,-0.025
1794,-0.225,-0.030
1795,-0.220,-0.020
1796,-0.195,-0.010
1797,-0.200,-0.010
1798,-0.200,-0.015
1799,-0.230,-0.025
1800,-0.230,-0.045
1801,-0.225,-0.010
1802,-0.225,-0.015
1803,-0.225,-0.020
1804,-0.205,-0.020
1805,-0.220,-0.030
1806,-0.245,-0.040
1807,-0.230,-0.005
1808,-0.230,0.000
1809,-0.220,0.000
1810,-0.210,-0.010
1811,-0.220,-0.035
1812,-0.235,-0.025
1813,-0.225,-0.020
1814,-0.220,0.005
1815,-0.205,-0.005
1816,-0.205,-0.005
1817,-0.220,-0.020
1818,-0.225,-0.030
1819,-0.240,-0.005
1820,-0.210,0.000
1821,-0.205,0.000
1822,-0.215,-0.005
1823,-0.215,-0.030
1824,-0.225,-0.025
1825,-0.220,-0.010
1826,-0.210,0.000
1827,-0.215,0.005
1828,-0.205,-0.015
1829,-0.230,-0.020
1830,-0.235,-0.030
1831,-0.235,-0.010
1832,-0.220,0.005
1833,-0.210,0.000
1834,-0.215,0.005
1835,-0.215,-0.020
1836,-0.230,-0.020
1837,-0.235,-0.015
1838,-0.225,0.005
1839,-0.210,0.000
1840,-0.210,-0.005
1841,-0.220,-0.020
1842,-0.235,-0.030
1843,-0.235,-0.005
1844,-0.235,0.010
1845,-0.215,-0.010
1846,-0.215,-0.020
1847,-0.240,-0.015
1848,-0.245,-0.020
1849,-0.240,0.000
1850,-0.225,0.005
1851,-0.210,0.005
1852,-0.205,-0.010
1853,-0.230,-0.025
1854,-0.230,-0.015
1855,-0.235,-0.020
1856,-0.205,0.005
1857,-0.200,0.005
1858,-0.220,-0.005
1859,-0.220,-0.020
1860,-0.240,-0.020
1861,-0.225,0.000
1862,-0.200,0.000
1863,-0.210,0.000
1864,-0.205,-0.005
1865,-0.220,-0.030
1866,-0.235,-0.020
1867,-0.225,-0.005
1868,-0.230,-0.005
1869,-0.220,-0.010
1870,-0.205,-0.025
1871,-0.220,-0.030
1872,-0.220,-0.025
1873,-0.200,-0.005
1874,-0.185,0.015
1875,-0.170,0.015
1876,-0.170,0.010
1877,-0.175,0.010
1878,-0.175,0.010
1879,-0.170,0.020
1880,-0.150,0.040
1881,-0.130,0.050
1882,-0.145,0.030
1883,-0.160,0.030
1884,-0.160,0.040
1885,-0.155,0.040
1886,-0.145,0.060
1887,-0.130,0.060
1888,-0.135,0.045
1889,-0.150,0.035
1890,-0.160,0.030
1891,-0.165,0.050
1892,-0.150,0.055
1893,-0.150,0.045
1894,-0.170,0.020
1895,-0.185,-0.005
1896,-0.210,0.000
1897,-0.205,0.015
1898,-0.190,0.015
1899,-0.175,0.025
1900,-0.180,0.025
1901,-0.205,0.010
1902,-0.210,0.020
1903,-0.210,0.030
1904,-0.190,0.065
1905,-0.170,0.045
1906,-0.165,0.040
1907,-0.180,0.025
1908,-0.185,0.035
1909,-0.180,0.020
1910,-0.165,0.015
1911,-0.170,0.005
1912,-0.200,-0.015
1913,-0.230,-0.015
1914,-0.235,-0.015
1915,-0.230,-0.005
1916,-0.215,0.015
1917,-0.205,0.020
1918,-0.215,0.010
1919,-0.230,-0.010
1920,-0.255,-0.015
1921,-0.255,-0.010
1922,-0.245,0.005
1923,-0.210,0.010
1924,-0.210,0.000
1925,-0.235,-0.015
1926,-0.245,-0.020
1927,-0.240,-0.020
1928,-0.240,-0.005
1929,-0.210,0.000
1930,-0.220,-0.010
1931,-0.240,-0.025
1932,-0.235,-0.020
1933,-0.235,-0.015
1934,-0.210,-0.010
1935,-0.210,0.000
1936,-0.215,-0.005
1937,-0.230,-0.030
1938,-0.235,-0.020
1939,-0.240,0.000
1940,-0.225,0.010
1941,-0.215,0.005
1942,-0.220,0.005
1943,-0.220,0.000
1944,-0.230,-0.005
1945,-0.230,0.005
1946,-0.205,0.035
1947,-0.200,0.050
1948,-0.195,0.065
1949,-0.195,0.080
1950,-0.200,0.110
1951,-0.185,0.165
1952,-0.145,0.235
1953,-0.105,0.290
1954,-0.080,0.315
1955,-0.090,0.375
1956,-0.130,0.495
1957,-0.185,0.650
1958,-0.225,0.815
1959,-0.235,0.970
1960,-0.275,1.110
1961,-0.340,1.245
1962,-0.415,1.380
1963,-0.455,1.540
1964,-0.450,1.755
1965,-0.385,1.955
1966,-0.295,2.065
1967,-0.180,2.060
1968,-0.085,1.895
1969,0.025,1.550
1970,0.075,1.100
1971,0.010,0.635
1972,-0.190,0.275
1973,-0.425,0.070
1974,-0.595,-0.030
1975,-0.645,-0.050
1976,-0.615,-0.035
1977,-0.560,-0.025
1978,-0.500,-0.035
1979,-0.425,-0.040
1980,-0.330,-0.035
1981,-0.240,-0.035
1982,-0.205,-0.035
1983,-0.190,-0.040
1984,-0.180,-0.075
1985,-0.185,-0.085
1986,-0.200,-0.100
1987,-0.195,-0.105
1988,-0.170,-0.095
1989,-0.170,-0.110
1990,-0.145,-0.115
1991,-0.165,-0.125
1992,-0.160,-0.120
1993,-0.155,-0.110
1994,-0.135,-0.105
1995,-0.115,-0.115
1996,-0.120,-0.120
1997,-0.130,-0.125
1998,-0.150,-0.135
1999,-0.140,-0.110
2000,-0.130,-0.100
2001,-0.115,-0.105
2002,-0.105,-0.115
2003,-0.115,-0.135
2004,-0.130,-0.130
2005,-0.125,-0.125
2006,-0.105,-0.110
2007,-0.095,-0.115
2008,-0.100,-0.135
2009,-0.120,-0.145
2010,-0.120,-0.140
2011,-0.125,-0.120
2012,-0.100,-0.110
2013,-0.095,-0.125
2014,-0.100,-0.145
2015,-0.100,-0.150
2016,-0.120,-0.150
2017,-0.100,-0.130
2018,-0.100,-0.130
2019,-0.080,-0.115
2020,-0.090,-0.145
2021,-0.115,-0.150
2022,-0.120,-0.135
2023,-0.095,-0.135
2024,-0.085,-0.120
2025,-0.095,-0.130
2026,-0.090,-0.135
2027,-0.105,-0.140
2028,-0.100,-0.145
2029,-0.095,-0.130
2030,-0.075,-0.125
2031,-0.075,-0.125
2032,-0.070,-0.130
2033,-0.095,-0.155
2034,-0.095,-0.145
2035,-0.075,-0.120
2036,-0.065,-0.120
2037,-0.055,-0.120
2038,-0.060,-0.120
2039,-0.080,-0.140
2040,-0.095,-0.135
2041,-0.075,-0.120
2042,-0.050,-0.100
2043,-0.040,-0.115
2044,-0.030,-0.115
2045,-0.035,-0.120
2046,-0.060,-0.115
2047,-0.045,-0.105
2048,-0.045,-0.090
2049,-0.025,-0.095
2050,-0.010,-0.095
2051,-0.020,-0.100
2052,-0.030,-0.105
2053,-0.020,-0.085
2054,-0.005,-0.070
2055,0.025,-0.075
2056,-0.005,-0.070
2057,0.005,-0.070
2058,0.010,-0.060
2059,0.010,-0.040
2060,0.035,-0.005
2061,0.040,0.005
2062,0.045,0.000
2063,0.035,0.000
2064,0.045,0.020
2065,0.060,0.045
2066,0.075,0.080
2067,0.090,0.075
2068,0.090,0.095
2069,0.080,0.095
2070,0.075,0.125
2071,0.080,0.160
2072,0.100,0.170
2073,0.115,0.185
2074,0.105,0.195
2075,0.100,0.210
2076,0.090,0.215
2077,0.085,0.235
2078,0.100,0.265
2079,0.100,0.255
2080,0.095,0.250
2081,0.070,0.235
2082,0.050,0.235
2083,0.055,0.235
2084,0.060,0.240
2085,0.065,0.230
2086,0.035,0.210
2087,0.020,0.180
2088,-0.005,0.170
2089,-0.010,0.165
2090,-0.010,0.180
2091,-0.025,0.155
2092,-0.035,0.130
2093,-0.060,0.105
2094,-0.080,0.095
2095,-0.090,0.100
2096,-0.085,0.095
2097,-0.085,0.085
2098,-0.090,0.070
2099,-0.115,0.055
2100,-0.130,0.060
2101,-0.120,0.065
2102,-0.115,0.075
2103,-0.105,0.060
2104,-0.120,0.050
2105,-0.135,0.035
2106,-0.135,0.050
2107,-0.140,0.045
2108,-0.140,0.065
2109,-0.130,0.055
2110,-0.120,0.055
2111,-0.150,0.045
2112,-0.155,0.030
2113,-0.165,0.050
2114,-0.150,0.050
2115,-0.135,0.050
2116,-0.150,0.050
2117,-0.165,0.025
2118,-0.165,0.020
2119,-0.175,0.035
2120,-0.160,0.035
2121,-0.155,0.035
2122,-0.140,0.025
2123,-0.170,0.005
2124,-0.185,0.015
2125,-0.175,0.030
2126,-0.155,0.040
2127,-0.145,0.030
2128,-0.155,0.015
2129,-0.170,-0.005
2130,-0.175,0.005
2131,-0.165,0.010
2132,-0.160,0.035
2133,-0.140,0.030
2134,-0.160,0.015
2135,-0.165,-0.005
2136,-0.175,0.005
2137,-0.180,0.010
2138,-0.150,0.020
2139,-0.145,0.025
2140,-0.155,0.010
2141,-0.170,-0.010
2142,-0.185,0.000
2143,-0.175,0.005
2144,-0.155,0.015
2145,-0.150,0.020
2146,-0.150,0.020
2147,-0.170,0.010
2148,-0.165,0.020
2149,-0.160,0.025
2150,-0.155,0.040
2151,-0.150,0.030
2152,-0.145,0.025
2153,-0.160,0.005
2154,-0.175,0.015
2155,-0.165,0.030
2156,-0.150,0.050
2157,-0.145,0.030
2158,-0.140,0.030
2159,-0.160,0.005
2160,-0.160,0.020
2161,-0.165,0.030
2162,-0.155,0.035
2163,-0.135,0.025
2164,-0.155,0.025
2165,-0.160,0.015
2166,-0.180,0.015
2167,-0.175,0.015
2168,-0.180,0.035
2169,-0.160,0.030
2170,-0.170,0.020
2171,-0.170,0.010
2172,-0.180,0.015
2173,-0.175,0.025
2174,-0.160,0.025
2175,-0.160,0.025
2176,-0.175,0.020
2177,-0.180,0.015
2178,-0.205,0.010
2179,-0.200,0.015
2180,-0.185,0.030
2181,-0.170,0.035
2182,-0.180,0.005
2183,-0.190,0.000
2184,-0.210,0.005
2185,-0.205,0.015
2186,-0.190,0.025
2187,-0.180,0.020
2188,-0.170,0.015
2189,-0.195,0.005
2190,-0.205,0.000
2191,-0.205,0.015
2192,-0.205,0.020
2193,-0.185,0.010
2194,-0.190,0.015
2195,-0.195,-0.005
2196,-0.205,0.005
2197,-0.200,0.010
2198,-0.195,0.025
2199,-0.180,0.020
2200,-0.190,0.005
2201,-0.210,-0.010
2202,-0.210,0.000
2203,-0.205,0.000
2204,-0.200,0.020
2205,-0.185,0.015
2206,-0.185,0.010
2207,-0.210,-0.015
2208,-0.225,-0.015
2209,-0.195,0.005
2210,-0.190,0.015
2211,-0.180,0.010
2212,-0.195,0.015
2213,-0.200,-0.010
2214,-0.220,-0.005
2215,-0.210,0.005
2216,-0.205,0.010
2217,-0.190,0.000
2218,-0.200,-0.005
2219,-0.220,-0.010
2220,-0.230,0.000
2221,-0.220,0.000
2222,-0.205,0.015
2223,-0.190,0.025
2224,-0.200,-0.005
2225,-0.210,-0.010
2226,-0.220,-0.020
2227,-0.225,0.000
2228,-0.220,0.015
2229,-0.210,0.010
2230,-0.205,0.010
2231,-0.215,-0.005
2232,-0.225,-0.005
2233,-0.230,0.000
2234,-0.205,0.015
2235,-0.195,0.010
2236,-0.210,-0.005
2237,-0.210,-0.015
2238,-0.235,-0.005
2239,-0.220,0.010
2240,-0.205,0.015
2241,-0.215,0.025
2242,-0.230,0.015
2243,-0.225,-0.010
2244,-0.245,-0.010
2245,-0.235,0.005
2246,-0.215,0.015
2247,-0.205,0.020
2248,-0.215,0.000
2249,-0.225,-0.005
2250,-0.235,-0.005
2251,-0.240,0.010
2252,-0.220,0.020
2253,-0.200,0.010
2254,-0.215,0.010
2255,-0.230,0.000
2256,-0.225,0.005
2257,-0.225,0.005
2258,-0.215,0.020
2259,-0.200,0.020
2260,-0.210,0.010
2261,-0.215,-0.010
2262,-0.220,0.000
2263,-0.225,0.015
2264,-0.205,0.020
2265,-0.200,0.025
2266,-0.205,0.010
2267,-0.205,0.000
2268,-0.240,0.005
2269,-0.210,0.020
2270,-0.205,0.045
2271,-0.180,0.030
2272,-0.175,0.020
2273,-0.180,0.010
2274,-0.185,0.035
2275,-0.180,0.055
2276,-0.165,0.065
2277,-0.140,0.065
2278,-0.150,0.055
2279,-0.165,0.045
2280,-0.170,0.055
2281,-0.160,0.070
2282,-0.125,0.085
2283,-0.120,0.085
2284,-0.120,0.075
2285,-0.140,0.070
2286,-0.145,0.075
2287,-0.150,0.090
2288,-0.145,0.095
2289,-0.145,0.080
2290,-0.150,0.055
2291,-0.175,0.050
2292,-0.195,0.045
2293,-0.200,0.050
2294,-0.195,0.075
2295,-0.180,0.080
2296,-0.190,0.085
2297,-0.205,0.050
2298,-0.215,0.070
2299,-0.200,0.060
2300,-0.190,0.080
2301,-0.160,0.075
2302,-0.155,0.070
2303,-0.175,0.060
2304,-0.175,0.060
2305,-0.185,0.055
2306,-0.160,0.055
2307,-0.160,0.045
2308,-0.190,0.020
2309,-0.220,0.005
2310,-0.225,0.010
2311,-0.230,0.025
2312,-0.215,0.035
2313,-0.200,0.025
2314,-0.210,0.020
2315,-0.210,0.005
2316,-0.230,0.005
2317,-0.240,0.015
2318,-0.220,0.025
2319,-0.215,0.020
2320,-0.230,0.005
2321,-0.255,-0.005
2322,-0.250,0.000
2323,-0.240,0.015
2324,-0.215,0.030
2325,-0.210,0.015
2326,-0.220,0.000
2327,-0.235,-0.005
2328,-0.245,-0.005
2329,-0.235,0.025
2330,-0.220,0.030
2331,-0.210,0.015
2332,-0.215,0.005
2333,-0.240,-0.005
2334,-0.240,0.005
2335,-0.245,0.020
2336,-0.220,0.040
2337,-0.210,0.030
2338,-0.215,0.030
2339,-0.240,0.035
2340,-0.235,0.035
2341,-0.220,0.050
2342,-0.210,0.080
2343,-0.190,0.105
2344,-0.190,0.140
2345,-0.195,0.180
2346,-0.175,0.245
2347,-0.120,0.310
2348,-0.075,0.380
2349,-0.075,0.460
2350,-0.140,0.580
2351,-0.215,0.740
2352,-0.280,0.900
2353,-0.320,1.090
2354,-0.345,1.250
2355,-0.415,1.390
2356,-0.480,1.545
2357,-0.500,1.740
2358,-0.455,1.960
2359,-0.355,2.095
2360,-0.205,2.065
2361,-0.065,1.820
2362,0.015,1.380
2363,0.000,0.845
2364,-0.140,0.410
2365,-0.370,0.155
2366,-0.575,0.035
2367,-0.655,-0.020
2368,-0.645,-0.045
2369,-0.615,-0.040
2370,-0.550,-0.005
2371,-0.435,0.000
2372,-0.325,-0.005
2373,-0.250,-0.010
2374,-0.235,-0.020
2375,-0.235,-0.040
2376,-0.235,-0.050
2377,-0.230,-0.055
2378,-0.210,-0.050
2379,-0.210,-0.065
2380,-0.185,-0.075
2381,-0.200,-0.100
2382,-0.205,-0.095
2383,-0.190,-0.080
2384,-0.180,-0.055
2385,-0.165,-0.065
2386,-0.165,-0.080
2387,-0.160,-0.100
2388,-0.175,-0.090
2389,-0.155,-0.085
2390,-0.140,-0.080
2391,-0.130,-0.075
2392,-0.140,-0.085
2393,-0.150,-0.090
2394,-0.155,-0.100
2395,-0.140,-0.090
2396,-0.125,-0.085
2397,-0.120,-0.085
2398,-0.140,-0.095
2399,-0.145,-0.100
2400,-0.140,-0.100
2401,-0.140,-0.100
2402,-0.120,-0.085
2403,-0.115,-0.095
2404,-0.125,-0.110
2405,-0.130,-0.125
2406,-0.155,-0.115
2407,-0.130,-0.095
2408,-0.115,-0.075
2409,-0.115,-0.085
2410,-0.110,-0.105
2411,-0.120,-0.120
2412,-0.125,-0.120
2413,-0.115,-0.105
2414,-0.115,-0.090
2415,-0.095,-0.090
2416,-0.100,-0.105
2417,-0.110,-0.100
2418,-0.120,-0.095
2419,-0.110,-0.090
2420,-0.105,-0.090
2421,-0.085,-0.085
2422,-0.080,-0.100
2423,-0.110,-0.110
2424,-0.115,-0.095
2425,-0.090,-0.090
2426,-0.070,-0.065
2427,-0.060,-0.080
2428,-0.065,-0.085
2429,-0.080,-0.100
2430,-0.075,-0.085
2431,-0.070,-0.075
2432,-0.040,-0.060
2433,-0.035,-0.055
2434,-0.045,-0.065
2435,-0.060,-0.065
2436,-0.070,-0.075
2437,-0.045,-0.055
2438,-0.035,-0.025
2439,-0.030,-0.030
2440,-0.030,-0.030
2441,-0.035,-0.030
2442,-0.035,-0.020
2443,-0.025,-0.005
2444,-0.005,0.005
2445,0.020,0.010
2446,0.020,0.015
2447,0.000,0.030
2448,0.005,0.050
2449,0.015,0.060
2450,0.030,0.095
2451,0.060,0.095
2452,0.055,0.105
2453,0.045,0.115
2454,0.050,0.140
2455,0.055,0.170
2456,0.075,0.200
2457,0.090,0.200
2458,0.080,0.215
2459,0.070,0.215
2460,0.055,0.235
2461,0.055,0.265
2462,0.070,0.290
2463,0.075,0.280
2464,0.060,0.275
2465,0.030,0.255
2466,0.025,0.245
2467,0.005,0.255
2468,0.015,0.250
2469,0.015,0.245
2470,-0.005,0.220
2471,-0.025,0.185
2472,-0.050,0.175
2473,-0.065,0.165
2474,-0.060,0.150
2475,-0.070,0.140
2476,-0.090,0.120
2477,-0.120,0.100
2478,-0.135,0.100
2479,-0.140,0.100
2480,-0.145,0.095
2481,-0.135,0.085
2482,-0.150,0.075
2483,-0.160,0.060
2484,-0.165,0.065
2485,-0.170,0.065
2486,-0.170,0.070
2487,-0.160,0.070
2488,-0.170,0.050
2489,-0.185,0.035
2490,-0.190,0.040
2491,-0.190,0.060
2492,-0.190,0.065
2493,-0.185,0.055
2494,-0.180,0.040
2495,-0.190,0.020
2496,-0.195,0.040
2497,-0.200,0.030
2498,-0.185,0.040
2499,-0.175,0.035
2500,-0.185,0.015
2501,-0.190,0.015
2502,-0.210,0.020
2503,-0.210,0.020
2504,-0.200,0.025
2505,-0.200,0.015
2506,-0.200,0.000
2507,-0.205,0.000
2508,-0.225,-0.005
2509,-0.225,0.005
2510,-0.200,0.025
2511,-0.190,0.010
2512,-0.200,-0.005
2513,-0.205,-0.030
2514,-0.230,-0.025
2515,-0.215,-0.005
2516,-0.220,0.005
2517,-0.195,0.000
2518,-0.190,0.000
2519,-0.215,-0.010
2520,-0.230,-0.010
2521,-0.220,-0.005
2522,-0.210,0.005
2523,-0.190,0.010
2524,-0.195,-0.005
2525,-0.225,-0.015
2526,-0.225,-0.005
2527,-0.230,0.015
2528,-0.200,0.015
2529,-0.200,0.010
2530,-0.210,-0.005
2531,-0.235,-0.005
2532,-0.230,0.000
2533,-0.220,0.010
2534,-0.220,0.015
2535,-0.200,0.025
2536,-0.215,0.000
2537,-0.225,-0.005
2538,-0.250,-0.010
2539,-0.235,0.015
2540,-0.225,0.030
2541,-0.210,0.010
2542,-0.195,-0.005
2543,-0.225,0.000
2544,-0.235,0.000
2545,-0.225,0.000
2546,-0.220,0.005
2547,-0.225,0.005
2548,-0.210,-0.010
2549,-0.230,-0.010
2550,-0.240,-0.020
2551,-0.230,0.000
2552,-0.225,-0.005
2553,-0.230,-0.010
2554,-0.250,-0.015
2555,-0.260,-0.015
2556,-0.260,-0.020
2557,-0.250,0.000
2558,-0.245,0.000
2559,-0.230,-0.015
2560,-0.245,-0.025
2561,-0.255,-0.040
2562,-0.270,-0.030
2563,-0.270,-0.020
2564,-0.250,0.000
2565,-0.240,0.000
2566,-0.255,-0.015
2567,-0.260,-0.025
2568,-0.255,-0.010
2569,-0.260,-0.015
2570,-0.250,0.000
2571,-0.240,-0.005
2572,-0.260,-0.010
2573,-0.265,-0.030
2574,-0.280,-0.010
2575,-0.255,-0.015
2576,-0.255,-0.005
2577,-0.250,-0.010
2578,-0.250,-0.025
2579,-0.260,-0.050
2580,-0.280,-0.025
2581,-0.275,-0.030
2582,-0.260,0.000
2583,-0.250,-0.005
2584,-0.255,-0.030
2585,-0.290,-0.035
2586,-0.280,-0.030
2587,-0.280,-0.025
2588,-0.260,-0.005
2589,-0.250,-0.015
2590,-0.250,-0.015
2591,-0.270,-0.040
2592,-0.275,-0.020
2593,-0.270,-0.025
2594,-0.255,-0.020
2595,-0.255,-0.020
2596,-0.250,-0.015
2597,-0.280,-0.020
2598,-0.285,-0.025
2599,-0.270,-0.010
2600,-0.265,0.000
2601,-0.255,-0.015
2602,-0.265,-0.035
2603,-0.280,-0.040
2604,-0.280,-0.035
2605,-0.290,-0.020
2606,-0.260,-0.015
2607,-0.260,-0.015
2608,-0.265,-0.030
2609,-0.275,-0.030
2610,-0.290,-0.030
2611,-0.275,-0.015
2612,-0.270,-0.020
2613,-0.265,-0.015
2614,-0.270,-0.025
2615,-0.285,-0.035
2616,-0.290,-0.030
2617,-0.290,-0.030
2618,-0.265,-0.005
2619,-0.255,-0.010
2620,-0.265,-0.020
2621,-0.285,-0.040
2622,-0.285,-0.025
2623,-0.280,-0.020
2624,-0.270,-0.005
2625,-0.265,-0.005
2626,-0.260,-0.025
2627,-0.280,-0.030
2628,-0.285,-0.025
2629,-0.280,-0.025
2630,-0.265,-0.010
2631,-0.265,-0.020
2632,-0.265,-0.025
2633,-0.285,-0.035
2634,-0.290,-0.025
2635,-0.270,-0.020
2636,-0.270,0.000
2637,-0.260,-0.005
2638,-0.260,-0.030
2639,-0.285,-0.030
2640,-0.290,-0.025
2641,-0.275,-0.010
2642,-0.265,0.000
2643,-0.260,-0.015
2644,-0.255,-0.025
2645,-0.275,-0.040
2646,-0.285,-0.025
2647,-0.260,-0.015
2648,-0.245,0.005
2649,-0.230,0.005
2650,-0.220,0.005
2651,-0.230,0.005
2652,-0.240,0.005
2653,-0.235,0.025
2654,-0.220,0.030
2655,-0.210,0.030
2656,-0.215,0.020
2657,-0.225,0.020
2658,-0.220,0.025
2659,-0.205,0.035
2660,-0.195,0.040
2661,-0.195,0.040
2662,-0.195,0.025
2663,-0.205,0.015
2664,-0.215,0.020
2665,-0.210,0.020
2666,-0.200,0.025
2667,-0.195,0.015
2668,-0.225,0.010
2669,-0.250,0.000
2670,-0.270,0.005
2671,-0.260,0.015
2672,-0.250,0.035
2673,-0.235,0.025
2674,-0.235,0.020
2675,-0.260,0.010
2676,-0.265,0.030
2677,-0.255,0.035
2678,-0.240,0.040
2679,-0.220,0.030
2680,-0.235,0.015
2681,-0.235,-0.010
2682,-0.235,-0.020
2683,-0.235,-0.005
2684,-0.230,-0.005
2685,-0.240,-0.015
2686,-0.250,-0.025
2687,-0.290,-0.035
2688,-0.310,-0.015
2689,-0.295,-0.010
2690,-0.275,-0.005
2691,-0.275,-0.005
2692,-0.275,-0.015
2693,-0.290,-0.030
2694,-0.295,-0.020
2695,-0.285,-0.015
2696,-0.275,-0.015
2697,-0.265,-0.025
2698,-0.280,-0.020
2699,-0.295,-0.035
2700,-0.310,-0.035
2701,-0.300,-0.025
2702,-0.285,-0.005
2703,-0.285,-0.015
2704,-0.285,-0.035
2705,-0.295,-0.030
2706,-0.315,-0.035
2707,-0.300,-0.015
2708,-0.290,-0.015
2709,-0.275,-0.015
2710,-0.290,-0.025
2711,-0.310,-0.045
2712,-0.300,-0.020
2713,-0.290,-0.015
2714,-0.280,0.010
2715,-0.270,0.010
2716,-0.275,0.000
2717,-0.285,-0.020
2718,-0.285,-0.015
2719,-0.285,0.015
2720,-0.280,0.025
2721,-0.255,0.020
2722,-0.270,0.025
2723,-0.275,0.035
2724,-0.280,0.060
2725,-0.265,0.115
2726,-0.225,0.145
2727,-0.215,0.175
2728,-0.180,0.235
2729,-0.170,0.265
2730,-0.170,0.290
2731,-0.165,0.370
2732,-0.190,0.465
2733,-0.250,0.585
2734,-0.310,0.700
2735,-0.355,0.820
2736,-0.410,0.960
2737,-0.460,1.110
2738,-0.540,1.260
2739,-0.610,1.385
2740,-0.640,1.520
2741,-0.630,1.695
2742,-0.570,1.875
2743,-0.480,2.000
2744,-0.345,2.025
2745,-0.210,1.860
2746,-0.095,1.520
2747,-0.065,1.060
2748,-0.110,0.615
2749,-0.265,0.315
2750,-0.460,0.135
2751,-0.605,0.020
2752,-0.655,-0.040
2753,-0.655,-0.040
2754,-0.630,-0.030
2755,-0.530,-0.010
2756,-0.425,-0.005
2757,-0.345,-0.020
2758,-0.300,-0.030
2759,-0.290,-0.050
2760,-0.285,-0.060
2761,-0.280,-0.060
2762,-0.260,-0.065
2763,-0.245,-0.095
2764,-0.260,-0.105
2765,-0.265,-0.120
2766,-0.260,-0.120
2767,-0.255,-0.105
2768,-0.235,-0.090
2769,-0.220,-0.100
2770,-0.205,-0.120
2771,-0.235,-0.140
2772,-0.235,-0.125
2773,-0.215,-0.115
2774,-0.205,-0.100
2775,-0.200,-0.100
2776,-0.190,-0.120
2777,-0.205,-0.140
2778,-0.195,-0.135
2779,-0.200,-0.110
2780,-0.205,-0.095
2781,-0.190,-0.110
2782,-0.195,-0.115
2783,-0.195,-0.125
2784,-0.200,-0.125
2785,-0.190,-0.120
2786,-0.195,-0.100
2787,-0.170,-0.115
2788,-0.180,-0.135
2789,-0.185,-0.140
2790,-0.215,-0.145
2791,-0.205,-0.120
2792,-0.185,-0.105
2793,-0.175,-0.130
2794,-0.185,-0.150
2795,-0.195,-0.150
2796,-0.190,-0.145
2797,-0.205,-0.130
2798,-0.180,-0.105
2799,-0.165,-0.120
2800,-0.185,-0.145
2801,-0.190,-0.150
2802,-0.190,-0.135
2803,-0.205,-0.130
2804,-0.175,-0.120
2805,-0.165,-0.135
2806,-0.180,-0.130
2807,-0.175,-0.145
2808,-0.185,-0.140
2809,-0.170,-0.135
2810,-0.160,-0.120
2811,-0.150,-0.115
2812,-0.160,-0.130
2813,-0.160,-0.140
2814,-0.165,-0.130
2815,-0.150,-0.135
2816,-0.145,-0.125
2817,-0.140,-0.130
2818,-0.165,-0.140
2819,-0.160,-0.125
2820,-0.170,-0.120
2821,-0.160,-0.115
2822,-0.135,-0.100
2823,-0.135,-0.120
2824,-0.130,-0.125
2825,-0.140,-0.135
2826,-0.135,-0.135
2827,-0.130,-0.115
2828,-0.130,-0.095
2829,-0.105,-0.090
2830,-0.110,-0.105
2831,-0.120,-0.110
2832,-0.125,-0.110
2833,-0.110,-0.095
2834,-0.090,-0.085
2835,-0.090,-0.080
2836,-0.095,-0.090
2837,-0.105,-0.100
2838,-0.100,-0.075
2839,-0.085,-0.065
2840,-0.070,-0.035
2841,-0.065,-0.055
2842,-0.060,-0.055
2843,-0.075,-0.050
2844,-0.075,-0.040
2845,-0.065,-0.020
2846,-0.045,0.015
2847,-0.030,0.015
2848,-0.035,0.020
2849,-0.040,0.025
2850,-0.045,0.040
2851,-0.035,0.060
2852,-0.020,0.100
2853,0.000,0.100
2854,-0.010,0.110
2855,-0.010,0.125
2856,-0.020,0.135
2857,-0.010,0.170
2858,0.005,0.190
2859,0.015,0.200
2860,0.000,0.195
2861,0.000,0.195
2862,-0.010,0.205
2863,-0.005,0.230
2864,0.000,0.250
2865,0.000,0.245
2866,-0.005,0.230
2867,-0.015,0.235
2868,-0.040,0.235
2869,-0.040,0.220
2870,-0.050,0.240
2871,-0.050,0.205
2872,-0.065,0.195
2873,-0.090,0.170
2874,-0.100,0.175
2875,-0.115,0.175
2876,-0.105,0.170
2877,-0.110,0.160
2878,-0.125,0.140
2879,-0.135,0.115
2880,-0.155,0.110
2881,-0.150,0.100
2882,-0.145,0.125
2883,-0.140,0.110
2884,-0.160,0.090
2885,-0.180,0.070
2886,-0.185,0.075
2887,-0.200,0.095
2888,-0.170,0.100
2889,-0.165,0.085
2890,-0.170,0.065
2891,-0.195,0.070
2892,-0.200,0.055
2893,-0.195,0.085
2894,-0.185,0.085
2895,-0.180,0.065
2896,-0.185,0.060
2897,-0.225,0.050
2898,-0.220,0.055
2899,-0.215,0.075
2900,-0.200,0.070
2901,-0.190,0.075
2902,-0.210,0.070
2903,-0.215,0.050
2904,-0.225,0.055
2905,-0.225,0.070
2906,-0.210,0.065
2907,-0.195,0.060
2908,-0.210,0.055
2909,-0.220,0.045
2910,-0.225,0.035
2911,-0.220,0.065
2912,-0.205,0.075
2913,-0.200,0.055
2914,-0.210,0.055
2915,-0.220,0.025
2916,-0.240,0.035
2917,-0.230,0.035
2918,-0.200,0.045
2919,-0.200,0.040
2920,-0.215,0.025
2921,-0.220,0.015
2922,-0.225,0.020
2923,-0.215,0.025
2924,-0.190,0.030
2925,-0.205,0.025
2926,-0.200,0.020
2927,-0.210,0.015
2928,-0.225,0.025
2929,-0.210,0.030
2930,-0.195,0.035
2931,-0.195,0.030
2932,-0.200,0.020
2933,-0.210,0.010
2934,-0.235,0.005
2935,-0.230,0.015
2936,-0.200,0.040
2937,-0.185,0.035
2938,-0.205,0.035
2939,-0.210,0.025
2940,-0.215,0.025
2941,-0.210,0.040
2942,-0.200,0.040
2943,-0.190,0.035
2944,-0.190,0.020
2945,-0.205,0.010
2946,-0.220,0.025
2947,-0.205,0.040
2948,-0.185,0.050
2949,-0.185,0.050
2950,-0.190,0.040
2951,-0.215,0.025
2952,-0.225,0.025
2953,-0.200,0.035
2954,-0.185,0.045
2955,-0.185,0.025
2956,-0.190,0.020
2957,-0.200,0.010
2958,-0.210,0.030
2959,-0.205,0.030
2960,-0.185,0.035
2961,-0.190,0.035
2962,-0.195,0.030
2963,-0.205,0.020
2964,-0.210,0.030
2965,-0.200,0.035
2966,-0.205,0.045
2967,-0.200,0.045
2968,-0.195,0.030
2969,-0.220,0.030
2970,-0.225,0.010
2971,-0.235,0.025
2972,-0.225,0.045
2973,-0.215,0.045
2974,-0.220,0.025
2975,-0.220,0.015
2976,-0.225,0.015
2977,-0.225,0.020
2978,-0.205,0.025
2979,-0.210,0.030
2980,-0.210,0.025
2981,-0.240,0.005
2982,-0.240,0.020
2983,-0.235,0.030
2984,-0.210,0.040
2985,-0.210,0.030
2986,-0.210,0.020
2987,-0.225,-0.005
2988,-0.240,-0.005
2989,-0.225,0.020
2990,-0.210,0.025
2991,-0.215,0.020
2992,-0.220,0.015
2993,-0.230,-0.005
2994,-0.240,0.000
2995,-0.225,0.020
2996,-0.230,0.030
2997,-0.205,0.025
2998,-0.220,0.010
2999,-0.250,0.015
3000,-0.245,0.010
3001,-0.230,0.015
3002,-0.220,0.035
3003,-0.200,0.020
3004,-0.215,0.000
3005,-0.230,0.005
3006,-0.245,0.000
3007,-0.235,0.015
3008,-0.215,0.030
3009,-0.210,0.035
3010,-0.225,0.025
3011,-0.225,0.005
3012,-0.230,0.005
3013,-0.235,0.015
3014,-0.205,0.020
3015,-0.220,0.025
3016,-0.220,0.010
3017,-0.240,0.010
3018,-0.235,0.010
3019,-0.245,0.015
3020,-0.215,0.030
3021,-0.205,0.020
3022,-0.220,0.010
3023,-0.255,0.000
3024,-0.250,0.015
3025,-0.235,0.015
3026,-0.215,0.035
3027,-0.220,0.010
3028,-0.225,0.020
3029,-0.230,-0.010
3030,-0.235,0.010
3031,-0.230,0.030
3032,-0.215,0.030
3033,-0.220,0.025
3034,-0.220,0.010
3035,-0.235,0.005
3036,-0.240,0.005
3037,-0.225,0.020
3038,-0.215,0.015
3039,-0.215,0.030
3040,-0.210,0.025
3041,-0.225,0.020
3042,-0.215,0.020
3043,-0.230,0.040
3044,-0.205,0.035
3045,-0.195,0.040
3046,-0.205,0.010
3047,-0.230,0.015
3048,-0.245,0.025
3049,-0.210,0.040
3050,-0.210,0.050
3051,-0.200,0.030
3052,-0.200,0.010
3053,-0.225,0.005
3054,-0.220,0.020
3055,-0.220,0.015
3056,-0.195,0.035
3057,-0.195,0.035
3058,-0.200,0.025
3059,-0.210,0.005
3060,-0.215,0.025
3061,-0.210,0.035
3062,-0.195,0.040
3063,-0.190,0.030
3064,-0.205,0.020
3065,-0.220,0.015
3066,-0.225,0.025
3067,-0.210,0.035
3068,-0.195,0.060
3069,-0.185,0.045
3070,-0.190,0.035
3071,-0.200,0.030
3072,-0.190,0.030
3073,-0.190,0.045
3074,-0.170,0.060
3075,-0.160,0.070
3076,-0.170,0.055
3077,-0.160,0.060
3078,-0.165,0.065
3079,-0.185,0.080
3080,-0.150,0.085
3081,-0.140,0.090
3082,-0.140,0.085
3083,-0.145,0.065
3084,-0.130,0.080
3085,-0.130,0.095
3086,-0.130,0.095
3087,-0.125,0.095
3088,-0.135,0.080
3089,-0.145,0.075
3090,-0.170,0.070
3091,-0.165,0.065
3092,-0.165,0.080
3093,-0.175,0.080
3094,-0.180,0.055
3095,-0.195,0.040
3096,-0.200,0.055
3097,-0.195,0.070
3098,-0.175,0.080
3099,-0.170,0.070
3100,-0.190,0.065
3101,-0.195,0.075
3102,-0.190,0.070
3103,-0.180,0.070
3104,-0.155,0.095
3105,-0.150,0.080
3106,-0.155,0.065
3107,-0.160,0.035
3108,-0.180,0.045
3109,-0.175,0.045
3110,-0.165,0.055
3111,-0.195,0.040
3112,-0.205,0.040
3113,-0.210,0.015
3114,-0.230,0.015
3115,-0.210,0.030
3116,-0.210,0.040
3117,-0.200,0.035
3118,-0.200,0.030
3119,-0.215,0.010
3120,-0.215,0.020
3121,-0.225,0.030
3122,-0.190,0.040
3123,-0.195,0.035
3124,-0.200,0.020
3125,-0.225,0.010
3126,-0.230,0.015
3127,-0.215,0.030
3128,-0.205,0.040
3129,-0.200,0.020
3130,-0.205,0.025
3131,-0.220,-0.010
3132,-0.230,0.015
3133,-0.225,0.015
3134,-0.205,0.030
3135,-0.220,0.035
3136,-0.225,0.025
3137,-0.235,0.000
3138,-0.250,0.000
3139,-0.220,0.015
3140,-0.200,0.030
3141,-0.195,0.020
3142,-0.200,0.015
3143,-0.220,0.015
3144,-0.215,0.020
3145,-0.215,0.045
3146,-0.185,0.065
3147,-0.175,0.070
3148,-0.185,0.075
3149,-0.195,0.095
3150,-0.180,0.130
3151,-0.160,0.185
3152,-0.130,0.255
3153,-0.115,0.310
3154,-0.085,0.350
3155,-0.110,0.400
3156,-0.165,0.520
3157,-0.235,0.660
3158,-0.280,0.830
3159,-0.325,0.995
3160,-0.355,1.140
3161,-0.435,1.290
3162,-0.505,1.455
3163,-0.550,1.640
3164,-0.540,1.835
3165,-0.490,2.045
3166,-0.415,2.205
3167,-0.310,2.240
3168,-0.200,2.175
3169,-0.075,1.965
3170,0.005,1.635
3171,0.030,1.225
3172,-0.045,0.800
3173,-0.205,0.475
3174,-0.390,0.245
3175,-0.525,0.095
3176,-0.575,0.025
3177,-0.575,-0.005
3178,-0.560,0.000
3179,-0.520,-0.010
3180,-0.425,0.000
3181,-0.320,0.010
3182,-0.230,0.005
3183,-0.210,0.000
3184,-0.200,-0.040
3185,-0.200,-0.050
3186,-0.190,-0.075
3187,-0.180,-0.070
3188,-0.155,-0.065
3189,-0.145,-0.080
3190,-0.150,-0.085
3191,-0.150,-0.105
3192,-0.155,-0.095
3193,-0.145,-0.085
3194,-0.120,-0.080
3195,-0.125,-0.085
3196,-0.120,-0.100
3197,-0.130,-0.110
3198,-0.140,-0.120
3199,-0.130,-0.090
3200,-0.100,-0.085
3201,-0.090,-0.090
3202,-0.110,-0.105
3203,-0.110,-0.110
3204,-0.120,-0.120
3205,-0.115,-0.110
3206,-0.100,-0.090
3207,-0.090,-0.105
3208,-0.110,-0.110
3209,-0.110,-0.125
3210,-0.115,-0.125
3211,-0.115,-0.125
3212,-0.110,-0.120
3213,-0.090,-0.125
3214,-0.095,-0.135
3215,-0.105,-0.145
3216,-0.105,-0.150
3217,-0.080,-0.125
3218,-0.080,-0.120
3219,-0.065,-0.125
3220,-0.070,-0.135
3221,-0.095,-0.165
3222,-0.105,-0.150
3223,-0.075,-0.135
3224,-0.065,-0.120
3225,-0.055,-0.130
3226,-0.075,-0.145
3227,-0.080,-0.145
3228,-0.080,-0.145
3229,-0.075,-0.130
3230,-0.060,-0.130
3231,-0.045,-0.135
3232,-0.060,-0.140
3233,-0.070,-0.150
3234,-0.075,-0.130
3235,-0.070,-0.125
3236,-0.045,-0.125
3237,-0.050,-0.125
3238,-0.050,-0.150
3239,-0.050,-0.155
3240,-0.050,-0.140
3241,-0.040,-0.130
3242,-0.015,-0.115
3243,-0.010,-0.120
3244,-0.005,-0.130
3245,-0.025,-0.140
3246,-0.040,-0.135
3247,-0.020,-0.115
3248,0.005,-0.105
3249,0.015,-0.095
3250,0.015,-0.105
3251,0.005,-0.115
3252,0.005,-0.110
3253,0.025,-0.085
3254,0.040,-0.080
3255,0.050,-0.085
3256,0.045,-0.095
3257,0.030,-0.095
3258,0.030,-0.070
3259,0.050,-0.050
3260,0.050,-0.035
3261,0.070,-0.025
3262,0.065,-0.025
3263,0.080,-0.030
3264,0.080,-0.005
3265,0.100,0.030
3266,0.120,0.055
3267,0.120,0.060
3268,0.105,0.065
3269,0.110,0.075
3270,0.105,0.100
3271,0.120,0.130
3272,0.145,0.170
3273,0.140,0.170
3274,0.130,0.170
3275,0.135,0.185
3276,0.140,0.195
3277,0.135,0.235
3278,0.145,0.245
3279,0.155,0.260
3280,0.140,0.250
3281,0.120,0.235
3282,0.100,0.235
3283,0.090,0.255
3284,0.100,0.260
3285,0.090,0.255
3286,0.080,0.215
3287,0.060,0.190
3288,0.030,0.195
3289,0.030,0.190
3290,0.040,0.185
3291,0.025,0.190
3292,0.005,0.160
3293,-0.015,0.135
3294,-0.025,0.125
3295,-0.035,0.125
3296,-0.020,0.125
3297,-0.035,0.110
3298,-0.040,0.090
3299,-0.065,0.085
3300,-0.080,0.080
3301,-0.070,0.085
3302,-0.070,0.090
3303,-0.050,0.065
3304,-0.070,0.070
3305,-0.090,0.050
3306,-0.095,0.050
3307,-0.110,0.065
3308,-0.080,0.075
3309,-0.065,0.070
3310,-0.085,0.070
3311,-0.095,0.050
3312,-0.110,0.060
3313,-0.100,0.060
3314,-0.090,0.065
3315,-0.080,0.065
3316,-0.095,0.060
3317,-0.115,0.035
3318,-0.135,0.050
3319,-0.125,0.060
3320,-0.100,0.075
3321,-0.100,0.060
3322,-0.100,0.055
3323,-0.115,0.040
3324,-0.115,0.050
3325,-0.125,0.065
3326,-0.115,0.065
3327,-0.100,0.050
3328,-0.110,0.045
3329,-0.115,0.030
3330,-0.120,0.030
3331,-0.120,0.050
3332,-0.100,0.050
3333,-0.095,0.040
3334,-0.105,0.025
3335,-0.130,0.020
3336,-0.130,0.020
3337,-0.135,0.040
3338,-0.110,0.045
3339,-0.100,0.040
3340,-0.120,0.030
3341,-0.130,0.015
3342,-0.125,0.030
3343,-0.115,0.030
3344,-0.105,0.040
3345,-0.105,0.025
3346,-0.125,0.015
3347,-0.135,0.020
3348,-0.130,0.010
3349,-0.130,0.035
3350,-0.100,0.050
3351,-0.105,0.045
3352,-0.125,0.025
3353,-0.125,0.015
3354,-0.130,0.030
3355,-0.130,0.045
3356,-0.110,0.070
3357,-0.105,0.065
3358,-0.110,0.050
3359,-0.115,0.045
3360,-0.120,0.040
3361,-0.120,0.045
3362,-0.105,0.065
3363,-0.100,0.065
3364,-0.110,0.055
3365,-0.120,0.045
3366,-0.125,0.055
3367,-0.115,0.070
3368,-0.115,0.075
3369,-0.110,0.055
3370,-0.110,0.050
3371,-0.140,0.050
3372,-0.140,0.055
3373,-0.135,0.070
3374,-0.120,0.075
3375,-0.120,0.065
3376,-0.130,0.055
3377,-0.145,0.045
3378,-0.155,0.045
3379,-0.145,0.055
3380,-0.115,0.070
3381,-0.120,0.065
3382,-0.125,0.050
3383,-0.150,0.040
3384,-0.155,0.035
3385,-0.140,0.055
3386,-0.130,0.055
3387,-0.125,0.055
3388,-0.140,0.040
3389,-0.155,0.035
3390,-0.150,0.035
3391,-0.150,0.050
3392,-0.125,0.055
3393,-0.135,0.040
3394,-0.160,0.035
3395,-0.180,0.025
3396,-0.175,0.035
3397,-0.165,0.030
3398,-0.155,0.040
3399,-0.150,0.050
3400,-0.165,0.030
3401,-0.170,0.020
3402,-0.175,0.025
3403,-0.170,0.035
3404,-0.150,0.055
3405,-0.155,0.035
3406,-0.165,0.025
3407,-0.180,0.025
3408,-0.175,0.025
3409,-0.165,0.040
3410,-0.150,0.050
3411,-0.160,0.035
3412,-0.155,0.030
3413,-0.170,0.015
3414,-0.170,0.025
3415,-0.170,0.040
3416,-0.160,0.040
3417,-0.155,0.040
3418,-0.165,0.025
3419,-0.185,0.010
3420,-0.170,0.020
3421,-0.165,0.035
3422,-0.145,0.045
3423,-0.160,0.040
3424,-0.165,0.030
3425,-0.175,0.010
3426,-0.180,0.020
3427,-0.190,0.035
3428,-0.150,0.030
3429,-0.155,0.030
3430,-0.160,0.015
3431,-0.170,0.010
3432,-0.185,0.015
3433,-0.165,0.035
3434,-0.160,0.055
3435,-0.155,0.040
3436,-0.160,0.035
3437,-0.175,0.025
3438,-0.180,0.030
3439,-0.175,0.035
3440,-0.155,0.040
3441,-0.160,0.035
3442,-0.160,0.025
3443,-0.175,0.020
3444,-0.185,0.030
3445,-0.175,0.045
3446,-0.165,0.045
3447,-0.170,0.050
3448,-0.180,0.030
3449,-0.200,0.025
3450,-0.190,0.020
3451,-0.190,0.035
3452,-0.170,0.060
3453,-0.165,0.050
3454,-0.165,0.030
3455,-0.185,0.020
3456,-0.195,0.035
3457,-0.175,0.045
3458,-0.170,0.055
3459,-0.160,0.055
3460,-0.155,0.040
3461,-0.170,0.035
3462,-0.165,0.025
3463,-0.175,0.035
3464,-0.160,0.055
3465,-0.140,0.050
3466,-0.160,0.035
3467,-0.160,0.030
3468,-0.155,0.045
3469,-0.150,0.045
3470,-0.155,0.070
3471,-0.155,0.065
3472,-0.155,0.040
3473,-0.160,0.025
3474,-0.170,0.045
3475,-0.160,0.060
3476,-0.145,0.065
3477,-0.140,0.065
3478,-0.145,0.045
3479,-0.165,0.035
3480,-0.155,0.050
3481,-0.130,0.055
3482,-0.120,0.070
3483,-0.115,0.080
3484,-0.110,0.070
3485,-0.110,0.065
3486,-0.120,0.085
3487,-0.105,0.095
3488,-0.085,0.090
3489,-0.080,0.090
3490,-0.075,0.085
3491,-0.090,0.070
3492,-0.090,0.090
3493,-0.085,0.120
3494,-0.070,0.120
3495,-0.080,0.120
3496,-0.095,0.100
3497,-0.110,0.075
3498,-0.125,0.080
3499,-0.125,0.085
3500,-0.120,0.100
3501,-0.130,0.080
3502,-0.155,0.075
3503,-0.165,0.075
3504,-0.175,0.075
3505,-0.170,0.090
3506,-0.135,0.100
3507,-0.120,0.095
3508,-0.150,0.090
3509,-0.145,0.070
3510,-0.140,0.085
3511,-0.140,0.100
3512,-0.125,0.105
3513,-0.100,0.100
3514,-0.110,0.090
3515,-0.125,0.080
3516,-0.135,0.055
3517,-0.140,0.070
3518,-0.140,0.075
3519,-0.155,0.075
3520,-0.170,0.050
3521,-0.185,0.040
3522,-0.195,0.045
3523,-0.180,0.050
3524,-0.180,0.055
3525,-0.170,0.040
3526,-0.175,0.040
3527,-0.195,0.030
3528,-0.185,0.040
3529,-0.180,0.050
3530,-0.175,0.070
3531,-0.165,0.065
3532,-0.165,0.045
3533,-0.180,0.035
3534,-0.190,0.040
3535,-0.180,0.050
3536,-0.160,0.060
3537,-0.165,0.050
3538,-0.165,0.030
3539,-0.185,0.025
3540,-0.185,0.035
3541,-0.185,0.040
3542,-0.170,0.060
3543,-0.175,0.050
3544,-0.185,0.035
3545,-0.185,0.025
3546,-0.190,0.040
3547,-0.190,0.065
3548,-0.160,0.080
3549,-0.145,0.070
3550,-0.165,0.070
3551,-0.175,0.070
3552,-0.180,0.095
3553,-0.170,0.130
3554,-0.130,0.170
3555,-0.130,0.220
3556,-0.095,0.265
3557,-0.090,0.320
3558,-0.065,0.390
3559,-0.045,0.485
3560,-0.080,0.600
3561,-0.150,0.740
3562,-0.215,0.915
3563,-0.275,1.055
3564,-0.315,1.225
3565,-0.390,1.395
3566,-0.450,1.545
3567,-0.475,1.730
3568,-0.455,1.920
3569,-0.380,2.110
3570,-0.255,2.165
3571,-0.120,2.075
3572,0.020,1.780
3573,0.105,1.295
3574,0.050,0.760
3575,-0.135,0.355
3576,-0.380,0.145
3577,-0.545,0.050
3578,-0.590,0.015
3579,-0.565,0.015
3580,-0.510,0.010
3581,-0.435,0.025
3582,-0.350,0.020
3583,-0.225,0.030
3584,-0.160,0.020
3585,-0.140,0.005
3586,-0.145,-0.015
3587,-0.145,-0.040
3588,-0.145,-0.040
3589,-0.140,-0.040
3590,-0.125,-0.025
3591,-0.125,-0.045
3592,-0.110,-0.055
3593,-0.130,-0.055
3594,-0.110,-0.055
3595,-0.120,-0.045
3596,-0.095,-0.045
3597,-0.095,-0.050
3598,-0.095,-0.065
3599,-0.100,-0.080
3600,-0.105,-0.050
3601,-0.080,-0.040
3602,-0.065,-0.035
3603,-0.065,-0.045
3604,-0.080,-0.075
3605,-0.090,-0.080
3606,-0.095,-0.075
3607,-0.080,-0.060
3608,-0.080,-0.050
3609,-0.075,-0.075
3610,-0.070,-0.075
3611,-0.085,-0.100
3612,-0.090,-0.085
3613,-0.085,-0.070
3614,-0.070,-0.055
3615,-0.055,-0.080
3616,-0.065,-0.085
3617,-0.070,-0.095
3618,-0.075,-0.080
3619,-0.060,-0.065
3620,-0.045,-0.070
3621,-0.060,-0.075
3622,-0.070,-0.095
3623,-0.080,-0.105
3624,-0.075,-0.085
3625,-0.060,-0.080
3626,-0.050,-0.065
3627,-0.045,-0.075
3628,-0.055,-0.095
3629,-0.070,-0.100
3630,-0.075,-0.095
3631,-0.035,-0.090
3632,-0.025,-0.080
3633,-0.030,-0.080
3634,-0.050,-0.090
3635,-0.055,-0.095
3636,-0.050,-0.085
3637,-0.025,-0.075
3638,-0.025,-0.065
3639,-0.020,-0.070
3640,-0.030,-0.090
3641,-0.040,-0.085
3642,-0.030,-0.085
3643,-0.030,-0.070
3644,-0.010,-0.050
3645,-0.010,-0.060
3646,0.005,-0.075
3647,-0.005,-0.080
3648,-0.005,-0.055
3649,0.010,-0.040
3650,0.025,-0.030
3651,0.035,-0.025
3652,0.030,-0.045
3653,0.035,-0.050
3654,0.015,-0.020
3655,0.040,0.015
3656,0.070,0.015
3657,0.085,0.040
3658,0.075,0.035
3659,0.065,0.045
3660,0.065,0.055
3661,0.090,0.100
3662,0.125,0.115
3663,0.115,0.130
3664,0.125,0.125
3665,0.120,0.135
3666,0.115,0.165
3667,0.125,0.195
3668,0.140,0.225
3669,0.165,0.230
3670,0.150,0.240
3671,0.150,0.245
3672,0.150,0.255
3673,0.150,0.280
3674,0.155,0.280
3675,0.155,0.275
3676,0.130,0.250
3677,0.110,0.255
3678,0.105,0.250
3679,0.105,0.255
3680,0.100,0.270
3681,0.105,0.245
3682,0.080,0.225
3683,0.045,0.220
3684,0.035,0.195
3685,0.035,0.195
3686,0.045,0.195
3687,0.040,0.170
3688,0.025,0.150
3689,-0.005,0.130
3690,-0.015,0.130
3691,-0.010,0.130
3692,-0.010,0.135
3693,-0.015,0.105
3694,-0.030,0.095
3695,-0.060,0.070
3696,-0.070,0.065
3697,-0.070,0.085
3698,-0.045,0.110
3699,-0.055,0.085
3700,-0.065,0.065
3701,-0.085,0.050
3702,-0.090,0.060
3703,-0.075,0.065
3704,-0.070,0.070
3705,-0.075,0.075
3706,-0.085,0.050
3707,-0.105,0.040
3708,-0.115,0.045
3709,-0.095,0.060
3710,-0.090,0.070
3711,-0.095,0.070
3712,-0.110,0.045
3713,-0.120,0.030
3714,-0.115,0.040
3715,-0.105,0.045
3716,-0.085,0.055
3717,-0.080,0.055
3718,-0.090,0.045
3719,-0.105,0.040
3720,-0.110,0.040
3721,-0.095,0.045
3722,-0.100,0.045
3723,-0.095,0.050
3724,-0.100,0.030
3725,-0.130,0.015
3726,-0.150,0.030
3727,-0.125,0.035
3728,-0.115,0.055
3729,-0.100,0.035
3730,-0.125,0.010
3731,-0.130,0.015
3732,-0.130,0.025
3733,-0.120,0.025
3734,-0.115,0.025
3735,-0.100,0.020
3736,-0.120,0.000
3737,-0.135,-0.005
3738,-0.130,-0.005
3739,-0.125,0.005
3740,-0.120,0.020
3741,-0.110,0.005
3742,-0.120,-0.005
3743,-0.135,-0.010
3744,-0.145,0.005
3745,-0.130,0.010
3746,-0.120,0.020
3747,-0.105,0.005
3748,-0.125,-0.005
3749,-0.135,0.000
3750,-0.140,0.000
3751,-0.125,0.020
3752,-0.120,0.035
3753,-0.110,0.020
3754,-0.115,0.005
3755,-0.135,0.000
3756,-0.140,0.010
3757,-0.130,0.015
3758,-0.110,0.025
3759,-0.120,0.010
3760,-0.120,0.010
3761,-0.140,0.015
3762,-0.135,0.015
3763,-0.120,0.025
3764,-0.110,0.030
3765,-0.105,0.025
3766,-0.120,0.010
3767,-0.130,0.005
3768,-0.160,0.015
3769,-0.135,0.025
3770,-0.125,0.035
3771,-0.120,0.010
3772,-0.135,0.010
3773,-0.155,-0.010
3774,-0.160,0.015
3775,-0.160,0.035
3776,-0.130,0.035
3777,-0.140,0.030
3778,-0.140,0.020
3779,-0.155,0.000
3780,-0.175,0.000
3781,-0.160,0.020
3782,-0.135,0.015
3783,-0.135,0.015
3784,-0.150,0.005
3785,-0.155,-0.005
3786,-0.160,0.000
3787,-0.160,0.015
3788,-0.150,0.020
3789,-0.145,0.015
3790,-0.150,0.010
3791,-0.155,0.000
3792,-0.160,0.000
3793,-0.155,0.020
3794,-0.145,0.020
3795,-0.140,0.005
3796,-0.155,-0.010
3797,-0.170,-0.005
3798,-0.185,-0.010
3799,-0.175,-0.005
3800,-0.160,0.015
3801,-0.150,0.005
3802,-0.155,-0.010
3803,-0.185,-0.025
3804,-0.190,-0.010
3805,-0.175,-0.005
3806,-0.155,0.005
3807,-0.150,-0.005
3808,-0.160,-0.015
3809,-0.175,-0.020
3810,-0.200,-0.005
3811,-0.175,0.005
3812,-0.160,0.000
3813,-0.155,-0.015
3814,-0.170,-0.025
3815,-0.180,-0.025
3816,-0.195,-0.015
3817,-0.190,0.005
3818,-0.165,0.010
3819,-0.155,0.000
3820,-0.170,-0.005
3821,-0.180,-0.025
3822,-0.190,-0.020
3823,-0.175,-0.010
3824,-0.155,0.000
3825,-0.165,0.005
3826,-0.185,-0.015
3827,-0.180,-0.025
3828,-0.180,-0.025
3829,-0.175,-0.005
3830,-0.170,-0.005
3831,-0.160,-0.005
3832,-0.180,-0.010
3833,-0.180,-0.020
3834,-0.205,-0.005
3835,-0.180,0.005
3836,-0.165,0.010
3837,-0.160,-0.015
3838,-0.180,-0.025
3839,-0.205,-0.015
3840,-0.195,-0.020
3841,-0.190,-0.015
3842,-0.190,0.010
3843,-0.175,-0.005
3844,-0.185,-0.035
3845,-0.195,-0.030
3846,-0.185,-0.025
3847,-0.180,-0.010
3848,-0.165,-0.010
3849,-0.165,-0.020
3850,-0.185,-0.045
3851,-0.190,-0.050
3852,-0.210,-0.035
3853,-0.195,-0.015
3854,-0.175,-0.010
3855,-0.165,-0.010
3856,-0.175,-0.035
3857,-0.185,-0.035
3858,-0.190,-0.025
3859,-0.175,-0.020
3860,-0.190,-0.005
3861,-0.185,-0.015
3862,-0.195,-0.025
3863,-0.205,-0.040
3864,-0.200,-0.035
3865,-0.190,-0.010
3866,-0.175,0.005
3867,-0.165,0.005
3868,-0.180,-0.025
3869,-0.190,-0.030
3870,-0.180,-0.030
3871,-0.180,-0.015
3872,-0.145,-0.005
3873,-0.135,0.000
3874,-0.140,0.005
3875,-0.145,0.005
3876,-0.140,0.000
3877,-0.135,0.020
3878,-0.125,0.025
3879,-0.115,0.025
3880,-0.125,0.025
3881,-0.135,0.015
3882,-0.135,0.035
3883,-0.125,0.065
3884,-0.105,0.065
3885,-0.105,0.055
3886,-0.125,0.040
3887,-0.130,0.025
3888,-0.130,0.035
3889,-0.140,0.030
3890,-0.130,0.035
3891,-0.145,0.045
3892,-0.150,0.025
3893,-0.170,0.030
3894,-0.175,0.035
3895,-0.155,0.035
3896,-0.150,0.030
3897,-0.145,0.030
3898,-0.150,0.030
3899,-0.165,0.020
3900,-0.165,0.035
3901,-0.145,0.045
3902,-0.145,0.055
3903,-0.135,0.040
3904,-0.130,0.030
3905,-0.140,0.010
3906,-0.150,0.010
3907,-0.145,-0.005
3908,-0.165,-0.005
3909,-0.175,-0.005
3910,-0.195,-0.005
3911,-0.220,-0.015
3912,-0.235,-0.005
3913,-0.200,0.005
3914,-0.195,0.005
3915,-0.180,0.005
3916,-0.200,-0.005
3917,-0.205,-0.010
3918,-0.210,0.000
3919,-0.195,0.010
3920,-0.190,0.005
3921,-0.190,0.000
3922,-0.190,-0.010
3923,-0.215,-0.015
3924,-0.215,-0.025
3925,-0.195,-0.005
3926,-0.190,-0.005
3927,-0.185,-0.010
3928,-0.205,-0.025
3929,-0.210,-0.035
3930,-0.225,-0.025
3931,-0.215,0.005
3932,-0.190,0.015
3933,-0.190,0.000
3934,-0.195,-0.015
3935,-0.220,-0.025
3936,-0.230,-0.020
3937,-0.210,-0.005
3938,-0.225,0.005
3939,-0.220,-0.005
3940,-0.225,-0.010
3941,-0.225,-0.015
3942,-0.205,0.010
3943,-0.190,0.040
3944,-0.180,0.055
3945,-0.170,0.075
3946,-0.165,0.080
3947,-0.160,0.115
3948,-0.145,0.185
3949,-0.115,0.245
3950,-0.080,0.295
3951,-0.075,0.345
3952,-0.115,0.415
3953,-0.190,0.525
3954,-0.240,0.675
3955,-0.290,0.840
3956,-0.335,0.985
3957,-0.395,1.115
3958,-0.500,1.235
3959,-0.580,1.375
3960,-0.600,1.550
3961,-0.555,1.755
3962,-0.440,1.925
3963,-0.320,1.965
3964,-0.215,1.875
3965,-0.090,1.605
3966,-0.025,1.165
3967,-0.010,0.685
3968,-0.125,0.345
3969,-0.340,0.140
3970,-0.530,0.005
3971,-0.610,-0.050
3972,-0.605,-0.065
3973,-0.560,-0.030
3974,-0.475,-0.015
3975,-0.390,-0.020
3976,-0.325,-0.020
3977,-0.260,-0.060
3978,-0.235,-0.040
3979,-0.210,-0.045
3980,-0.180,-0.040
3981,-0.185,-0.075
3982,-0.175,-0.100
3983,-0.195,-0.110
3984,-0.195,-0.115
3985,-0.175,-0.110
3986,-0.150,-0.100
3987,-0.155,-0.110
3988,-0.180,-0.130
3989,-0.165,-0.135
3990,-0.160,-0.135
3991,-0.140,-0.115
3992,-0.125,-0.120
3993,-0.120,-0.110
3994,-0.135,-0.120
3995,-0.140,-0.130
3996,-0.165,-0.130
3997,-0.150,-0.120
3998,-0.145,-0.115
3999,-0.130,-0.120
4000,-0.120,-0.145
4001,-0.135,-0.145
4002,-0.145,-0.140
4003,-0.135,-0.135
4004,-0.130,-0.130
4005,-0.110,-0.130
4006,-0.125,-0.150
4007,-0.130,-0.165
4008,-0.125,-0.150
4009,-0.125,-0.140
4010,-0.120,-0.145
4011,-0.105,-0.150
4012,-0.125,-0.170
4013,-0.150,-0.180
4014,-0.140,-0.165
4015,-0.130,-0.145
4016,-0.115,-0.140
4017,-0.110,-0.145
4018,-0.115,-0.150
4019,-0.125,-0.160
4020,-0.130,-0.165
4021,-0.110,-0.160
4022,-0.110,-0.145
4023,-0.105,-0.175
4024,-0.120,-0.175
4025,-0.145,-0.180
4026,-0.130,-0.170
4027,-0.115,-0.145
4028,-0.095,-0.150
4029,-0.095,-0.160
4030,-0.095,-0.175
4031,-0.115,-0.185
4032,-0.130,-0.180
4033,-0.100,-0.180
4034,-0.090,-0.170
4035,-0.090,-0.165
4036,-0.105,-0.165
4037,-0.115,-0.170
4038,-0.105,-0.170
4039,-0.095,-0.150
4040,-0.070,-0.140
4041,-0.070,-0.140
4042,-0.075,-0.170
4043,-0.065,-0.160
4044,-0.070,-0.155
4045,-0.065,-0.130
4046,-0.035,-0.130
4047,-0.030,-0.130
4048,-0.020,-0.135
4049,-0.055,-0.145
4050,-0.050,-0.140
4051,-0.025,-0.125
4052,-0.025,-0.110
4053,-0.035,-0.090
4054,-0.020,-0.100
4055,-0.030,-0.095
4056,-0.035,-0.080
4057,-0.010,-0.070
4058,0.005,-0.045
4059,0.000,-0.045
4060,0.005,-0.035
4061,0.000,-0.030
4062,0.005,-0.015
4063,0.025,0.010
4064,0.040,0.035
4065,0.045,0.050
4066,0.025,0.075
4067,0.025,0.080
4068,0.030,0.105
4069,0.020,0.130
4070,0.045,0.145
4071,0.045,0.160
4072,0.045,0.170
4073,0.015,0.175
4074,0.010,0.185
4075,0.025,0.190
4076,0.030,0.180
4077,0.025,0.170
4078,0.005,0.155
4079,-0.040,0.145
4080,-0.030,0.150
4081,-0.035,0.155
4082,-0.025,0.150
4083,-0.030,0.135
4084,-0.050,0.095
4085,-0.080,0.080
4086,-0.095,0.080
4087,-0.090,0.085
4088,-0.085,0.070
4089,-0.090,0.050
4090,-0.110,0.030
4091,-0.140,0.025
4092,-0.150,0.025
4093,-0.140,0.040
4094,-0.120,0.045
4095,-0.125,0.030
4096,-0.145,0.000
4097,-0.170,-0.015
4098,-0.170,-0.010
4099,-0.170,0.025
4100,-0.145,0.030
4101,-0.145,0.025
4102,-0.175,-0.010
4103,-0.180,-0.015
4104,-0.180,-0.005
4105,-0.170,0.010
4106,-0.165,0.015
4107,-0.160,0.015
4108,-0.175,-0.005
4109,-0.195,0.000
4110,-0.200,-0.015
4111,-0.185,0.000
4112,-0.185,0.020
4113,-0.175,0.005
4114,-0.185,-0.010
4115,-0.190,-0.025
4116,-0.190,-0.025
4117,-0.185,-0.010
4118,-0.175,-0.015
4119,-0.175,-0.015
4120,-0.180,-0.020
4121,-0.210,-0.035
4122,-0.210,-0.035
4123,-0.185,-0.030
4124,-0.185,-0.010
4125,-0.180,-0.025
4126,-0.180,-0.045
4127,-0.190,-0.050
4128,-0.200,-0.045
4129,-0.205,-0.035
4130,-0.190,-0.020
4131,-0.185,-0.025
4132,-0.180,-0.045
4133,-0.200,-0.040
4134,-0.205,-0.045
4135,-0.185,-0.035
4136,-0.180,-0.030
4137,-0.190,-0.035
4138,-0.200,-0.050
4139,-0.205,-0.060
4140,-0.190,-0.055
4141,-0.200,-0.035
4142,-0.195,-0.020
4143,-0.200,-0.030
4144,-0.180,-0.045
4145,-0.195,-0.045
4146,-0.195,-0.040
4147,-0.195,-0.025
4148,-0.185,-0.010
4149,-0.185,-0.015
4150,-0.190,-0.035
4151,-0.195,-0.040
4152,-0.195,-0.045
4153,-0.195,-0.040
4154,-0.180,-0.030
4155,-0.180,-0.025
4156,-0.200,-0.055
4157,-0.210,-0.050
4158,-0.195,-0.030
4159,-0.200,-0.025
4160,-0.190,-0.020
4161,-0.185,-0.020
4162,-0.210,-0.050
4163,-0.210,-0.070
4164,-0.225,-0.055
4165,-0.205,-0.030
4166,-0.205,-0.020
4167,-0.205,-0.045
4168,-0.195,-0.045
4169,-0.245,-0.055
4170,-0.230,-0.050
4171,-0.225,-0.035
4172,-0.215,-0.030
4173,-0.210,-0.045
4174,-0.220,-0.065
4175,-0.245,-0.070
4176,-0.235,-0.050
4177,-0.240,-0.040
4178,-0.215,-0.035
4179,-0.220,-0.045
4180,-0.220,-0.050
4181,-0.235,-0.070
4182,-0.245,-0.050
4183,-0.235,-0.035
4184,-0.220,-0.035
4185,-0.225,-0.045
4186,-0.230,-0.060
4187,-0.245,-0.075
4188,-0.250,-0.060
4189,-0.245,-0.045
4190,-0.230,-0.040
4191,-0.225,-0.035
4192,-0.240,-0.050
4193,-0.245,-0.065
4194,-0.245,-0.055
4195,-0.235,-0.055
4196,-0.220,-0.030
4197,-0.225,-0.045
4198,-0.235,-0.055
4199,-0.250,-0.070
4200,-0.250,-0.060
4201,-0.235,-0.040
4202,-0.225,-0.025
4203,-0.220,-0.040
4204,-0.235,-0.055
4205,-0.275,-0.065
4206,-0.265,-0.050
4207,-0.235,-0.045
4208,-0.230,-0.030
4209,-0.240,-0.050
4210,-0.245,-0.055
4211,-0.275,-0.060
4212,-0.245,-0.055
4213,-0.250,-0.030
4214,-0.225,-0.025
4215,-0.225,-0.040
4216,-0.245,-0.040
4217,-0.250,-0.045
4218,-0.255,-0.030
4219,-0.250,-0.035
4220,-0.245,-0.030
4221,-0.235,-0.035
4222,-0.245,-0.055
4223,-0.250,-0.065
4224,-0.250,-0.055
4225,-0.240,-0.030
4226,-0.230,-0.030
4227,-0.220,-0.040
4228,-0.240,-0.050
4229,-0.245,-0.050
4230,-0.260,-0.050
4231,-0.240,-0.045
4232,-0.220,-0.020
4233,-0.225,-0.040
4234,-0.230,-0.050
4235,-0.260,-0.055
4236,-0.245,-0.055
4237,-0.235,-0.040
4238,-0.230,-0.020
4239,-0.225,-0.045
4240,-0.225,-0.040
4241,-0.235,-0.050
4242,-0.240,-0.035
4243,-0.215,-0.030
4244,-0.215,-0.035
4245,-0.205,-0.030
4246,-0.220,-0.045
4247,-0.250,-0.060
4248,-0.245,-0.045
4249,-0.230,-0.035
4250,-0.210,-0.025
4251,-0.220,-0.035
4252,-0.240,-0.050
4253,-0.235,-0.055
4254,-0.250,-0.050
4255,-0.230,-0.040
4256,-0.220,-0.035
4257,-0.220,-0.040
4258,-0.235,-0.055
4259,-0.250,-0.055
4260,-0.250,-0.030
4261,-0.230,-0.030
4262,-0.210,-0.025
4263,-0.215,-0.030
4264,-0.220,-0.040
4265,-0.220,-0.050
4266,-0.210,-0.030
4267,-0.200,-0.020
4268,-0.195,-0.005
4269,-0.180,-0.005
4270,-0.180,-0.020
4271,-0.185,-0.015
4272,-0.185,-0.005
4273,-0.175,0.005
4274,-0.170,0.025
4275,-0.155,0.015
4276,-0.165,0.015
4277,-0.165,0.000
4278,-0.160,0.005
4279,-0.160,0.030
4280,-0.170,0.025
4281,-0.155,0.015
4282,-0.170,0.005
4283,-0.205,-0.010
4284,-0.210,-0.015
4285,-0.195,-0.005
4286,-0.195,-0.005
4287,-0.200,-0.020
4288,-0.220,-0.025
4289,-0.230,-0.030
4290,-0.235,-0.020
4291,-0.220,-0.005
4292,-0.210,0.010
4293,-0.210,0.000
4294,-0.220,-0.010
4295,-0.215,0.005
4296,-0.210,0.000
4297,-0.190,0.005
4298,-0.170,0.020
4299,-0.180,0.000
4300,-0.200,-0.010
4301,-0.200,-0.030
4302,-0.215,-0.040
4303,-0.220,-0.045
4304,-0.225,-0.030
4305,-0.240,-0.035
4306,-0.250,-0.050
4307,-0.260,-0.055
4308,-0.265,-0.050
4309,-0.240,-0.030
4310,-0.225,-0.035
4311,-0.230,-0.040
4312,-0.250,-0.050
4313,-0.260,-0.065
4314,-0.270,-0.055
4315,-0.260,-0.040
4316,-0.250,-0.030
4317,-0.245,-0.035
4318,-0.245,-0.055
4319,-0.270,-0.060
4320,-0.255,-0.050
4321,-0.265,-0.050
4322,-0.240,-0.035
4323,-0.245,-0.045
4324,-0.260,-0.055
4325,-0.270,-0.070
4326,-0.265,-0.055
4327,-0.250,-0.035
4328,-0.245,-0.030
4329,-0.250,-0.035
4330,-0.265,-0.050
4331,-0.265,-0.040
4332,-0.250,-0.020
4333,-0.240,0.000
4334,-0.215,0.020
4335,-0.215,0.020
4336,-0.220,0.035
4337,-0.215,0.070
4338,-0.195,0.125
4339,-0.180,0.210
4340,-0.140,0.255
4341,-0.110,0.310
4342,-0.130,0.360
4343,-0.210,0.450
4344,-0.300,0.600
4345,-0.365,0.780
4346,-0.395,0.950
4347,-0.470,1.115
4348,-0.555,1.265
4349,-0.655,1.425
4350,-0.690,1.610
4351,-0.675,1.850
4352,-0.570,2.055
4353,-0.460,2.150
4354,-0.315,2.090
4355,-0.195,1.805
4356,-0.105,1.380
4357,-0.100,0.885
4358,-0.220,0.500
4359,-0.415,0.215
4360,-0.580,0.040
4361,-0.660,-0.020
4362,-0.625,-0.020
4363,-0.545,0.005
4364,-0.420,-0.005
4365,-0.325,-0.025
4366,-0.260,-0.045
4367,-0.250,-0.070
4368,-0.220,-0.070
4369,-0.205,-0.090
4370,-0.185,-0.105
4371,-0.180,-0.115
4372,-0.190,-0.135
4373,-0.210,-0.145
4374,-0.195,-0.135
4375,-0.195,-0.130
4376,-0.175,-0.125
4377,-0.155,-0.140
4378,-0.170,-0.160
4379,-0.185,-0.160
4380,-0.175,-0.150
4381,-0.160,-0.150
4382,-0.140,-0.145
4383,-0.140,-0.160
4384,-0.140,-0.170
4385,-0.145,-0.180
4386,-0.150,-0.170
4387,-0.145,-0.145
4388,-0.140,-0.140
4389,-0.130,-0.160
4390,-0.135,-0.165
4391,-0.135,-0.175
4392,-0.150,-0.175
4393,-0.135,-0.170
4394,-0.130,-0.165
4395,-0.130,-0.165
4396,-0.130,-0.180
4397,-0.140,-0.175
4398,-0.135,-0.185
4399,-0.130,-0.180
4400,-0.125,-0.165
4401,-0.115,-0.180
4402,-0.130,-0.190
4403,-0.130,-0.190
4404,-0.135,-0.185
4405,-0.120,-0.150
4406,-0.095,-0.165
4407,-0.100,-0.170
4408,-0.100,-0.185
4409,-0.110,-0.190
4410,-0.105,-0.190
4411,-0.100,-0.175
4412,-0.080,-0.155
4413,-0.080,-0.160
4414,-0.090,-0.185
4415,-0.100,-0.180
4416,-0.100,-0.175
4417,-0.090,-0.165
4418,-0.070,-0.165
4419,-0.075,-0.165
4420,-0.080,-0.175
4421,-0.085,-0.175
4422,-0.080,-0.165
4423,-0.070,-0.160
4424,-0.055,-0.160
4425,-0.045,-0.165
4426,-0.050,-0.160
4427,-0.070,-0.175
4428,-0.045,-0.150
4429,-0.035,-0.145
4430,-0.020,-0.130
4431,-0.015,-0.150
4432,-0.020,-0.150
4433,-0.025,-0.150
4434,-0.030,-0.125
4435,-0.015,-0.120
4436,0.005,-0.095
4437,0.010,-0.095
4438,0.005,-0.100
4439,0.005,-0.110
4440,0.005,-0.080
4441,0.025,-0.055
4442,0.060,-0.040
4443,0.055,-0.030
4444,0.050,-0.035
4445,0.045,-0.020
4446,0.055,0.005
4447,0.070,0.035
4448,0.095,0.055
4449,0.095,0.070
4450,0.075,0.075
4451,0.070,0.070
4452,0.070,0.110
4453,0.100,0.135
4454,0.105,0.165
4455,0.100,0.180
4456,0.095,0.175
4457,0.085,0.180
4458,0.070,0.200
4459,0.080,0.215
4460,0.085,0.240
4461,0.085,0.230
4462,0.060,0.225
4463,0.050,0.210
4464,0.040,0.230
4465,0.045,0.230
4466,0.035,0.220
4467,0.030,0.210
4468,0.005,0.180
4469,-0.015,0.165
4470,-0.025,0.165
4471,-0.035,0.170
4472,-0.045,0.155
4473,-0.045,0.135
4474,-0.045,0.110
4475,-0.080,0.090
4476,-0.100,0.080
4477,-0.085,0.090
4478,-0.075,0.085
4479,-0.095,0.070
4480,-0.110,0.050
4481,-0.130,0.040
4482,-0.140,0.030
4483,-0.135,0.045
4484,-0.120,0.055
4485,-0.125,0.045
4486,-0.140,0.020
4487,-0.150,0.035
4488,-0.155,0.030
4489,-0.155,0.050
4490,-0.150,0.045
4491,-0.160,0.040
4492,-0.155,0.025
4493,-0.175,0.025
4494,-0.175,0.035
4495,-0.145,0.045
4496,-0.135,0.040
4497,-0.140,0.045
4498,-0.155,0.035
4499,-0.175,0.025
4500,-0.190,0.025
4501,-0.165,0.050
4502,-0.145,0.055
4503,-0.145,0.045
4504,-0.160,0.035
4505,-0.175,0.025
4506,-0.170,0.035
4507,-0.160,0.030
4508,-0.145,0.045
4509,-0.165,0.035
4510,-0.180,0.020
4511,-0.170,0.010
4512,-0.185,0.020
4513,-0.170,0.030
4514,-0.145,0.050
4515,-0.160,0.020
4516,-0.175,0.010
4517,-0.175,0.000
4518,-0.175,0.015
4519,-0.165,0.015
4520,-0.160,0.025
4521,-0.155,0.020
4522,-0.165,0.015
4523,-0.170,0.000
4524,-0.160,0.005
4525,-0.165,0.030
4526,-0.140,0.035
4527,-0.150,0.030
4528,-0.155,0.020
4529,-0.165,0.005
4530,-0.165,0.020
4531,-0.160,0.040
4532,-0.140,0.035
4533,-0.145,0.015
4534,-0.150,0.025
4535,-0.165,0.010
4536,-0.175,0.020
4537,-0.165,0.045
4538,-0.150,0.050
4539,-0.145,0.045
4540,-0.140,0.030
4541,-0.175,0.015
4542,-0.170,0.030
4543,-0.145,0.035
4544,-0.140,0.050
4545,-0.125,0.035
4546,-0.140,0.025
4547,-0.155,0.020
4548,-0.145,0.025
4549,-0.140,0.035
4550,-0.135,0.040
4551,-0.135,0.035
4552,-0.155,0.030
4553,-0.160,0.020
4554,-0.165,0.040
4555,-0.150,0.040
4556,-0.140,0.050
4557,-0.145,0.035
4558,-0.165,0.020
4559,-0.185,0.015
4560,-0.180,0.015
4561,-0.175,0.035
4562,-0.160,0.045
4563,-0.180,0.035
4564,-0.190,0.015
4565,-0.200,0.005
4566,-0.205,0.020
4567,-0.185,0.020
4568,-0.180,0.025
4569,-0.185,0.025
4570,-0.180,0.010
4571,-0.200,0.015
4572,-0.205,0.020
4573,-0.185,0.025
4574,-0.165,0.025
4575,-0.170,0.010
4576,-0.185,0.010
4577,-0.195,0.000
4578,-0.200,0.010
4579,-0.190,0.025
4580,-0.185,0.030
4581,-0.205,0.010
4582,-0.215,0.005
4583,-0.215,-0.015
4584,-0.210,0.000
4585,-0.210,0.025
4586,-0.200,0.020
4587,-0.200,0.010
4588,-0.215,0.000
4589,-0.215,-0.010
4590,-0.200,0.000
4591,-0.200,0.015
4592,-0.190,0.010
4593,-0.205,0.010
4594,-0.205,-0.005
4595,-0.225,-0.010
4596,-0.220,0.005
4597,-0.205,0.005
4598,-0.200,0.025
4599,-0.205,0.010
4600,-0.195,-0.005
4601,-0.210,-0.015
4602,-0.215,0.005
4603,-0.200,0.025
4604,-0.190,0.020
4605,-0.200,0.015
4606,-0.215,-0.020
4607,-0.220,-0.005
4608,-0.220,0.000
4609,-0.205,0.020
4610,-0.190,0.015
4611,-0.185,0.015
4612,-0.200,0.000
4613,-0.220,0.000
4614,-0.235,0.010
4615,-0.225,0.025
4616,-0.200,0.020
4617,-0.205,0.020
4618,-0.210,-0.005
4619,-0.225,0.000
4620,-0.225,0.015
4621,-0.205,0.010
4622,-0.185,0.015
4623,-0.195,0.000
4624,-0.215,-0.010
4625,-0.220,-0.020
4626,-0.225,-0.005
4627,-0.215,0.015
4628,-0.195,0.015
4629,-0.205,0.000
4630,-0.220,-0.010
4631,-0.230,-0.010
4632,-0.225,0.000
4633,-0.220,0.020
4634,-0.195,0.020
4635,-0.210,0.015
4636,-0.205,-0.010
4637,-0.225,-0.020
4638,-0.225,-0.005
4639,-0.220,0.015
4640,-0.205,0.015
4641,-0.205,0.005
4642,-0.210,-0.005
4643,-0.230,0.000
4644,-0.230,0.005
4645,-0.225,0.010
4646,-0.205,0.015
4647,-0.190,0.015
4648,-0.215,0.015
4649,-0.220,0.010
4650,-0.200,0.015
4651,-0.180,0.040
4652,-0.155,0.050
4653,-0.140,0.060
4654,-0.145,0.060
4655,-0.165,0.050
4656,-0.160,0.060
4657,-0.140,0.080
4658,-0.130,0.085
4659,-0.120,0.090
4660,-0.140,0.070
4661,-0.145,0.070
4662,-0.145,0.075
4663,-0.150,0.065
4664,-0.145,0.065
4665,-0.140,0.055
4666,-0.175,0.040
4667,-0.195,0.030
4668,-0.195,0.045
4669,-0.185,0.060
4670,-0.165,0.065
4671,-0.165,0.065
4672,-0.180,0.075
4673,-0.185,0.055
4674,-0.185,0.075
4675,-0.155,0.075
4676,-0.130,0.075
4677,-0.150,0.050
4678,-0.165,0.020
4679,-0.205,0.020
4680,-0.235,0.035
4681,-0.225,0.045
4682,-0.205,0.050
4683,-0.195,0.030
4684,-0.200,0.015
4685,-0.215,0.010
4686,-0.215,0.015
4687,-0.230,0.035
4688,-0.205,0.045
4689,-0.200,0.030
4690,-0.210,0.010
4691,-0.230,0.005
4692,-0.215,0.020
4693,-0.210,0.035
4694,-0.205,0.040
4695,-0.200,0.020
4696,-0.215,0.010
4697,-0.225,0.005
4698,-0.235,0.010
4699,-0.220,0.020
4700,-0.205,0.030
4701,-0.225,0.025
4702,-0.210,0.015
4703,-0.230,0.015
4704,-0.225,0.030
4705,-0.225,0.035
4706,-0.205,0.040
4707,-0.200,0.045
4708,-0.210,0.035
4709,-0.220,0.035
4710,-0.235,0.075
4711,-0.210,0.100
4712,-0.180,0.130
4713,-0.160,0.155
4714,-0.165,0.190
4715,-0.160,0.255
4716,-0.130,0.335
4717,-0.100,0.410
4718,-0.085,0.500
4719,-0.150,0.620
4720,-0.240,0.785
4721,-0.310,0.945
4722,-0.340,1.135
4723,-0.375,1.320
4724,-0.435,1.495
4725,-0.510,1.660
4726,-0.545,1.840
4727,-0.510,2.040
4728,-0.420,2.220
4729,-0.300,2.300
4730,-0.155,2.225
4731,-0.020,1.960
4732,0.045,1.545
4733,0.015,1.065
4734,-0.110,0.655
4735,-0.315,0.365
4736,-0.485,0.185
4737,-0.595,0.065
4738,-0.610,0.015
4739,-0.590,0.020
4740,-0.515,0.050
4741,-0.420,0.045
4742,-0.300,0.045
4743,-0.235,0.020
4744,-0.225,-0.010
4745,-0.205,-0.015
4746,-0.200,-0.040
4747,-0.190,-0.045
4748,-0.160,-0.045
4749,-0.165,-0.065
4750,-0.180,-0.075
4751,-0.185,-0.095
4752,-0.175,-0.080
4753,-0.155,-0.075
4754,-0.130,-0.060
4755,-0.130,-0.075
4756,-0.150,-0.095
4757,-0.150,-0.100
4758,-0.155,-0.100
4759,-0.135,-0.075
4760,-0.115,-0.070
4761,-0.115,-0.075
4762,-0.115,-0.090
4763,-0.140,-0.110
4764,-0.125,-0.100
4765,-0.125,-0.085
4766,-0.095,-0.085
4767,-0.100,-0.095
4768,-0.110,-0.120
4769,-0.130,-0.115
4770,-0.130,-0.110
4771,-0.125,-0.105
4772,-0.105,-0.105
4773,-0.105,-0.105
4774,-0.110,-0.120
4775,-0.110,-0.115
4776,-0.110,-0.115
4777,-0.105,-0.110
4778,-0.080,-0.110
4779,-0.080,-0.125
4780,-0.090,-0.125
4781,-0.115,-0.130
4782,-0.105,-0.125
4783,-0.095,-0.115
4784,-0.080,-0.095
4785,-0.075,-0.125
4786,-0.080,-0.125
4787,-0.085,-0.130
4788,-0.090,-0.125
4789,-0.080,-0.110
4790,-0.065,-0.115
4791,-0.065,-0.115
4792,-0.085,-0.130
4793,-0.100,-0.125
4794,-0.080,-0.125
4795,-0.070,-0.110
4796,-0.040,-0.100
4797,-0.045,-0.110
4798,-0.055,-0.130
4799,-0.065,-0.120
4800,-0.060,-0.115
4801,-0.055,-0.105
4802,-0.040,-0.105
4803,-0.025,-0.100
4804,-0.035,-0.130
4805,-0.040,-0.125
4806,-0.040,-0.110
4807,-0.025,-0.085
4808,0.000,-0.090
4809,-0.015,-0.090
4810,-0.015,-0.095
4811,-0.020,-0.105
4812,-0.015,-0.090
4813,-0.005,-0.075
4814,0.020,-0.075
4815,0.020,-0.075
4816,0.020,-0.075
4817,0.000,-0.065
4818,0.020,-0.050
4819,0.030,-0.025
4820,0.060,-0.010
4821,0.065,0.000
4822,0.065,-0.005
4823,0.060,-0.005
4824,0.070,0.015
4825,0.070,0.045
4826,0.105,0.065
4827,0.100,0.080
4828,0.105,0.095
4829,0.100,0.100
4830,0.110,0.125
4831,0.120,0.160
4832,0.140,0.175
4833,0.140,0.195
4834,0.130,0.190
4835,0.130,0.205
4836,0.130,0.240
4837,0.140,0.250
4838,0.160,0.270
4839,0.145,0.260
4840,0.120,0.265
4841,0.110,0.260
4842,0.090,0.285
4843,0.105,0.295
4844,0.115,0.285
4845,0.085,0.285
4846,0.065,0.255
4847,0.050,0.245
4848,0.035,0.245
4849,0.045,0.240
4850,0.045,0.240
4851,0.025,0.215
4852,0.000,0.190
4853,-0.020,0.180
4854,-0.035,0.170
4855,-0.030,0.165
4856,-0.030,0.160
4857,-0.045,0.140
4858,-0.070,0.110
4859,-0.090,0.105
4860,-0.080,0.115
4861,-0.080,0.125
4862,-0.070,0.135
4863,-0.070,0.110
4864,-0.095,0.095
4865,-0.100,0.090
4866,-0.130,0.095
4867,-0.125,0.120
4868,-0.110,0.110
4869,-0.105,0.095
4870,-0.115,0.095
4871,-0.125,0.075
4872,-0.140,0.090
4873,-0.130,0.090
4874,-0.100,0.100
4875,-0.120,0.075
4876,-0.130,0.070
4877,-0.150,0.075
4878,-0.145,0.080
4879,-0.120,0.085
4880,-0.115,0.080
4881,-0.110,0.075
4882,-0.125,0.065
4883,-0.135,0.065
4884,-0.145,0.065
4885,-0.130,0.085
4886,-0.100,0.080
4887,-0.125,0.070
4888,-0.135,0.055
4889,-0.140,0.055
4890,-0.145,0.055
4891,-0.130,0.065
4892,-0.120,0.075
4893,-0.120,0.060
4894,-0.130,0.045
4895,-0.145,0.035
4896,-0.170,0.045
4897,-0.150,0.060
4898,-0.135,0.055
4899,-0.145,0.055
4900,-0.155,0.030
4901,-0.160,0.030
4902,-0.170,0.035
4903,-0.145,0.050
4904,-0.125,0.050
4905,-0.135,0.040
4906,-0.145,0.020
4907,-0.155,0.030
4908,-0.160,0.030
4909,-0.155,0.040
4910,-0.145,0.035
4911,-0.140,0.035
4912,-0.150,0.025
4913,-0.150,0.025
4914,-0.150,0.035
4915,-0.135,0.045
4916,-0.115,0.035
4917,-0.130,0.035
4918,-0.135,0.005
4919,-0.150,0.025
4920,-0.150,0.035
4921,-0.135,0.055
4922,-0.130,0.060
4923,-0.140,0.045
4924,-0.135,0.030
4925,-0.145,0.035
4926,-0.150,0.050
4927,-0.135,0.065
4928,-0.125,0.050
4929,-0.135,0.050
4930,-0.140,0.035
4931,-0.145,0.035
4932,-0.145,0.060
4933,-0.130,0.070
4934,-0.110,0.070
4935,-0.120,0.060
4936,-0.135,0.040
4937,-0.145,0.040
4938,-0.155,0.045
4939,-0.135,0.060
4940,-0.120,0.060
4941,-0.130,0.040
4942,-0.140,0.040
4943,-0.160,0.030
4944,-0.155,0.040
4945,-0.155,0.060
4946,-0.140,0.060
4947,-0.150,0.045
4948,-0.165,0.030
4949,-0.170,0.025
4950,-0.200,0.035
4951,-0.170,0.055
4952,-0.165,0.045
4953,-0.165,0.035
4954,-0.180,0.025
4955,-0.185,0.015
4956,-0.175,0.025
4957,-0.170,0.055
4958,-0.155,0.035
4959,-0.165,0.030
4960,-0.185,0.020
4961,-0.200,0.015
4962,-0.190,0.015
4963,-0.175,0.015
4964,-0.160,0.030
4965,-0.165,0.020
4966,-0.190,0.000
4967,-0.200,0.005
4968,-0.205,0.020
4969,-0.195,0.025
4970,-0.175,0.055
4971,-0.185,0.025
4972,-0.190,0.010
4973,-0.195,0.000
4974,-0.190,0.020
4975,-0.190,0.020
4976,-0.185,0.025
4977,-0.190,0.020
4978,-0.195,0.005
4979,-0.205,-0.010
4980,-0.205,-0.010
4981,-0.205,0.015
4982,-0.190,0.015
4983,-0.190,0.025
4984,-0.205,0.010
4985,-0.200,0.005
4986,-0.205,0.015
4987,-0.190,0.020
4988,-0.180,0.030
4989,-0.205,0.010
4990,-0.215,0.005
4991,-0.220,-0.005
4992,-0.215,0.005
4993,-0.200,0.015
4994,-0.195,0.010
4995,-0.195,0.000
4996,-0.200,-0.005
4997,-0.220,-0.020
4998,-0.220,-0.005
4999,-0.205,0.005
5000,-0.200,0.010
5001,-0.195,0.005
5002,-0.215,-0.005
5003,-0.220,0.000
5004,-0.210,0.015
5005,-0.210,0.035
5006,-0.185,0.020
5007,-0.190,0.005
5008,-0.215,0.005
5009,-0.220,-0.005
5010,-0.215,0.010
5011,-0.205,0.025
5012,-0.190,0.020
5013,-0.195,0.020
5014,-0.220,0.005
5015,-0.220,0.005
5016,-0.210,0.020
5017,-0.200,0.035
5018,-0.195,0.015
5019,-0.195,0.015
5020,-0.210,0.000
5021,-0.215,-0.010
5022,-0.220,0.000
5023,-0.205,0.015
5024,-0.190,0.015
5025,-0.200,0.005
5026,-0.210,-0.020
5027,-0.215,-0.005
5028,-0.210,0.000
5029,-0.215,0.005
5030,-0.195,0.015
5031,-0.195,-0.015
5032,-0.195,-0.015
5033,-0.210,-0.015
5034,-0.205,0.005
5035,-0.195,0.020
5036,-0.185,0.020
5037,-0.195,0.015
5038,-0.210,0.000
5039,-0.230,-0.005
5040,-0.220,0.030
5041,-0.210,0.025
5042,-0.190,0.025
5043,-0.170,0.015
5044,-0.185,0.015
5045,-0.190,0.015
5046,-0.195,0.025
5047,-0.165,0.035
5048,-0.160,0.060
5049,-0.160,0.045
5050,-0.160,0.030
5051,-0.160,0.040
5052,-0.165,0.060
5053,-0.150,0.080
5054,-0.130,0.080
5055,-0.125,0.070
5056,-0.135,0.070
5057,-0.165,0.075
5058,-0.160,0.075
5059,-0.135,0.090
5060,-0.125,0.090
5061,-0.140,0.065
5062,-0.160,0.050
5063,-0.180,0.040
5064,-0.200,0.050
5065,-0.195,0.060
5066,-0.185,0.055
5067,-0.190,0.050
5068,-0.200,0.035
5069,-0.210,0.045
5070,-0.205,0.045
5071,-0.190,0.065
5072,-0.170,0.070
5073,-0.175,0.075
5074,-0.175,0.070
5075,-0.200,0.075
5076,-0.180,0.070
5077,-0.165,0.080
5078,-0.150,0.075
5079,-0.150,0.070
5080,-0.170,0.035
5081,-0.185,0.040
5082,-0.200,0.040
5083,-0.200,0.045
5084,-0.205,0.045
5085,-0.220,0.025
5086,-0.235,0.025
5087,-0.250,0.015
5088,-0.250,0.035
5089,-0.225,0.045
5090,-0.210,0.055
5091,-0.220,0.050
5092,-0.225,0.025
5093,-0.245,0.020
5094,-0.255,0.025
5095,-0.250,0.045
5096,-0.220,0.035
5097,-0.225,0.020
5098,-0.235,0.010
5099,-0.245,0.005
5100,-0.240,0.020
5101,-0.240,0.035
5102,-0.240,0.050
5103,-0.235,0.025
5104,-0.230,-0.005
5105,-0.260,-0.015
5106,-0.270,0.010
5107,-0.240,0.025
5108,-0.210,0.045
5109,-0.210,0.040
5110,-0.210,0.035
5111,-0.230,0.020
5112,-0.220,0.030
5113,-0.220,0.050
5114,-0.205,0.050
5115,-0.230,0.050
5116,-0.220,0.040
5117,-0.235,0.030
5118,-0.225,0.055
5119,-0.230,0.085
5120,-0.215,0.100
5121,-0.210,0.115
5122,-0.205,0.130
5123,-0.190,0.165
5124,-0.180,0.215
5125,-0.150,0.285
5126,-0.125,0.320
5127,-0.090,0.365
5128,-0.090,0.415
5129,-0.130,0.490
5130,-0.180,0.615
5131,-0.220,0.760
5132,-0.245,0.910
5133,-0.290,1.035
5134,-0.345,1.165
5135,-0.440,1.305
5136,-0.515,1.445
5137,-0.565,1.615
5138,-0.555,1.785
5139,-0.495,1.965
5140,-0.430,2.090
5141,-0.325,2.130
5142,-0.200,2.065
5143,-0.075,1.860
5144,0.020,1.495
5145,0.035,1.055
5146,-0.065,0.655
5147,-0.240,0.385
5148,-0.435,0.195
5149,-0.550,0.095
5150,-0.585,0.040
5151,-0.585,0.015
5152,-0.570,0.015
5153,-0.515,0.005
5154,-0.420,0.030
5155,-0.330,0.045
5156,-0.245,0.030
5157,-0.240,0.005
5158,-0.230,-0.020
5159,-0.235,-0.040
5160,-0.230,-0.045
5161,-0.215,-0.045
5162,-0.200,-0.050
5163,-0.205,-0.065
5164,-0.210,-0.075
5165,-0.215,-0.075
5166,-0.210,-0.080
5167,-0.195,-0.060
5168,-0.170,-0.080
5169,-0.170,-0.095
5170,-0.175,-0.100
5171,-0.175,-0.075
5172,-0.170,-0.080
5173,-0.170,-0.075
5174,-0.150,-0.075
5175,-0.145,-0.090
5176,-0.165,-0.110
5177,-0.165,-0.110
5178,-0.165,-0.105
5179,-0.165,-0.100
5180,-0.145,-0.090
5181,-0.140,-0.095
5182,-0.150,-0.110
5183,-0.155,-0.120
5184,-0.160,-0.105
5185,-0.145,-0.085
5186,-0.145,-0.095
5187,-0.130,-0.125
5188,-0.150,-0.135
5189,-0.165,-0.125
5190,-0.175,-0.110
5191,-0.155,-0.095
5192,-0.145,-0.090
5193,-0.125,-0.105
5194,-0.145,-0.120
5195,-0.150,-0.130
5196,-0.155,-0.125
5197,-0.150,-0.110
5198,-0.115,-0.110
5199,-0.130,-0.105
5200,-0.140,-0.125
5201,-0.145,-0.140
5202,-0.140,-0.130
5203,-0.140,-0.120
5204,-0.135,-0.130
5205,-0.110,-0.135
5206,-0.130,-0.150
5207,-0.130,-0.135
5208,-0.140,-0.135
5209,-0.140,-0.115
5210,-0.110,-0.120
5211,-0.130,-0.115
5212,-0.140,-0.150
5213,-0.130,-0.140
5214,-0.125,-0.145
5215,-0.105,-0.135
5216,-0.100,-0.125
5217,-0.095,-0.125
5218,-0.115,-0.140
5219,-0.115,-0.125
5220,-0.115,-0.125
5221,-0.085,-0.115
5222,-0.080,-0.125
5223,-0.080,-0.125
5224,-0.100,-0.130
5225,-0.105,-0.130
5226,-0.095,-0.130
5227,-0.075,-0.110
5228,-0.055,-0.105
5229,-0.060,-0.120
5230,-0.065,-0.105
5231,-0.085,-0.100
5232,-0.060,-0.100
5233,-0.045,-0.075
5234,-0.015,-0.080
5235,-0.025,-0.075
5236,-0.045,-0.080
5237,-0.050,-0.050
5238,-0.030,-0.030
5239,0.000,-0.020
5240,0.015,0.005
5241,0.015,0.015
5242,-0.005,0.020
5243,-0.005,0.035
5244,0.010,0.060
5245,0.020,0.085
5246,0.025,0.100
5247,0.025,0.105
5248,0.025,0.120
5249,0.010,0.140
5250,0.020,0.175
5251,0.035,0.205
5252,0.055,0.215
5253,0.045,0.220
5254,0.030,0.205
5255,0.015,0.220
5256,0.025,0.250
5257,0.010,0.275
5258,0.035,0.270
5259,0.030,0.260
5260,0.005,0.235
5261,-0.025,0.220
5262,-0.030,0.220
5263,-0.020,0.225
5264,-0.025,0.215
5265,-0.035,0.210
5266,-0.055,0.195
5267,-0.085,0.170
5268,-0.090,0.165
5269,-0.075,0.160
5270,-0.095,0.155
5271,-0.095,0.135
5272,-0.115,0.115
5273,-0.140,0.100
5274,-0.155,0.100
5275,-0.130,0.105
5276,-0.140,0.105
5277,-0.135,0.085
5278,-0.165,0.060
5279,-0.190,0.065
5280,-0.195,0.070
5281,-0.175,0.085
5282,-0.160,0.090
5283,-0.160,0.085
5284,-0.185,0.060
5285,-0.195,0.050
5286,-0.190,0.050
5287,-0.185,0.055
5288,-0.185,0.065
5289,-0.190,0.065
5290,-0.180,0.055
5291,-0.210,0.055
5292,-0.205,0.070
5293,-0.205,0.080
5294,-0.185,0.075
5295,-0.190,0.060
5296,-0.205,0.035
5297,-0.205,0.035
5298,-0.215,0.045
5299,-0.195,0.070
5300,-0.180,0.060
5301,-0.195,0.045
5302,-0.210,0.035
5303,-0.210,0.020
5304,-0.220,0.030
5305,-0.205,0.035
5306,-0.200,0.040
5307,-0.205,0.035
5308,-0.210,0.015
5309,-0.205,0.015
5310,-0.215,0.015
5311,-0.205,0.030
5312,-0.190,0.025
5313,-0.200,0.010
5314,-0.230,0.000
5315,-0.240,0.015
5316,-0.250,0.015
5317,-0.210,0.035
5318,-0.200,0.040
5319,-0.210,0.020
5320,-0.210,0.015
5321,-0.225,0.000
5322,-0.225,0.005
5323,-0.225,0.015
5324,-0.215,0.020
5325,-0.200,0.015
5326,-0.205,0.005
5327,-0.215,0.020
5328,-0.225,0.020
5329,-0.205,0.030
5330,-0.195,0.025
5331,-0.195,0.005
5332,-0.220,-0.010
5333,-0.230,0.000
5334,-0.230,0.020
5335,-0.220,0.035
5336,-0.210,0.040
5337,-0.205,0.020
5338,-0.225,0.015
5339,-0.235,0.010
5340,-0.230,0.025
5341,-0.210,0.025
5342,-0.200,0.040
5343,-0.210,0.035
5344,-0.215,0.015
5345,-0.225,0.015
5346,-0.250,0.030
5347,-0.220,0.035
5348,-0.200,0.020
5349,-0.200,0.025
5350,-0.225,0.005
5351,-0.250,0.015
5352,-0.230,0.020
5353,-0.215,0.040
5354,-0.205,0.030
5355,-0.215,0.020
5356,-0.230,0.010
5357,-0.245,0.005
5358,-0.240,0.020
5359,-0.225,0.015
5360,-0.220,0.040
5361,-0.230,0.025
5362,-0.235,0.010
5363,-0.255,0.005
5364,-0.265,0.025
5365,-0.255,0.030
5366,-0.220,0.025
5367,-0.245,0.015
5368,-0.245,0.005
5369,-0.265,0.010
5370,-0.270,0.025
5371,-0.250,0.025
5372,-0.225,0.040
5373,-0.235,0.030
5374,-0.250,0.005
5375,-0.255,0.015
5376,-0.260,0.015
5377,-0.265,0.030
5378,-0.230,0.030
5379,-0.225,0.015
5380,-0.255,0.015
5381,-0.265,0.005
5382,-0.255,0.015
5383,-0.245,0.010
5384,-0.235,0.010
5385,-0.240,0.010
5386,-0.270,-0.010
5387,-0.270,0.000
5388,-0.270,0.015
5389,-0.260,0.020
5390,-0.245,0.020
5391,-0.260,0.010
5392,-0.280,0.005
5393,-0.285,0.000
5394,-0.275,0.010
5395,-0.260,0.025
5396,-0.255,0.015
5397,-0.265,0.015
5398,-0.270,0.005
5399,-0.275,-0.005
5400,-0.275,-0.005
5401,-0.250,0.015
5402,-0.260,0.015
5403,-0.255,0.000
5404,-0.275,-0.015
5405,-0.265,-0.010
5406,-0.280,0.010
5407,-0.260,0.010
5408,-0.230,0.010
5409,-0.250,0.010
5410,-0.260,0.005
5411,-0.265,0.000
5412,-0.275,0.010
5413,-0.270,0.010
5414,-0.255,0.025
5415,-0.255,0.000
5416,-0.260,0.000
5417,-0.275,-0.015
5418,-0.270,0.005
5419,-0.265,0.015
5420,-0.245,0.025
5421,-0.260,0.015
5422,-0.270,-0.005
5423,-0.280,-0.010
5424,-0.290,0.010
5425,-0.280,0.020
5426,-0.250,0.025
5427,-0.260,0.015
5428,-0.260,-0.010
5429,-0.300,0.000
5430,-0.285,0.005
5431,-0.280,0.010
5432,-0.250,0.020
5433,-0.260,0.015
5434,-0.265,-0.005
5435,-0.270,-0.005
5436,-0.280,0.010
5437,-0.255,0.010
5438,-0.240,0.025
5439,-0.240,0.005
5440,-0.280,-0.010
5441,-0.275,-0.005
5442,-0.280,0.015
5443,-0.275,0.010
5444,-0.250,0.020
5445,-0.245,0.005
5446,-0.275,0.005
5447,-0.280,0.000
5448,-0.265,0.005
5449,-0.255,0.020
5450,-0.255,0.015
5451,-0.250,0.005
5452,-0.260,-0.005
5453,-0.285,-0.005
5454,-0.280,0.000
5455,-0.270,0.010
5456,-0.255,0.020
5457,-0.240,0.005
5458,-0.245,0.005
5459,-0.260,0.020
5460,-0.230,0.025
5461,-0.225,0.050
5462,-0.215,0.040
5463,-0.210,0.035
5464,-0.230,0.030
5465,-0.220,0.025
5466,-0.220,0.040
5467,-0.205,0.060
5468,-0.180,0.070
5469,-0.180,0.050
5470,-0.190,0.050
5471,-0.200,0.055
5472,-0.205,0.065
5473,-0.205,0.075
5474,-0.195,0.065
5475,-0.195,0.050
5476,-0.230,0.025
5477,-0.255,0.020
5478,-0.255,0.030
5479,-0.240,0.035
5480,-0.245,0.035
5481,-0.245,0.030
5482,-0.250,0.015
5483,-0.270,0.020
5484,-0.250,0.030
5485,-0.235,0.050
5486,-0.220,0.065
5487,-0.220,0.045
5488,-0.240,0.045
5489,-0.250,0.035
5490,-0.235,0.045
5491,-0.220,0.055
5492,-0.200,0.055
5493,-0.205,0.040
5494,-0.215,0.010
5495,-0.245,-0.005
5496,-0.265,-0.005
5497,-0.265,0.005
5498,-0.265,-0.005
5499,-0.275,0.005
5500,-0.295,-0.015
5501,-0.295,-0.005
5502,-0.295,-0.005
5503,-0.280,0.010
5504,-0.260,0.000
5505,-0.270,-0.005
5506,-0.280,-0.025
5507,-0.305,-0.020
5508,-0.295,-0.015
5509,-0.280,-0.005
5510,-0.265,-0.005
5511,-0.280,-0.010
5512,-0.285,-0.020
5513,-0.300,-0.015
5514,-0.290,-0.005
5515,-0.275,-0.005
5516,-0.260,-0.010
5517,-0.280,-0.025
5518,-0.295,-0.025
5519,-0.295,-0.015
5520,-0.285,-0.005
5521,-0.260,0.010
5522,-0.255,-0.005
5523,-0.270,-0.005
5524,-0.280,-0.015
5525,-0.290,-0.010
5526,-0.285,0.005
5527,-0.260,0.030
5528,-0.250,0.040
5529,-0.255,0.050
5530,-0.255,0.050
5531,-0.255,0.075
5532,-0.245,0.130
5533,-0.215,0.185
5534,-0.190,0.250
5535,-0.185,0.295
5536,-0.180,0.340
5537,-0.215,0.380
5538,-0.270,0.520
5539,-0.345,0.670
5540,-0.410,0.825
5541,-0.475,0.965
5542,-0.545,1.105
5543,-0.645,1.275
5544,-0.715,1.440
5545,-0.755,1.620
5546,-0.725,1.815
5547,-0.660,2.020
5548,-0.570,2.145
5549,-0.470,2.140
5550,-0.325,1.950
5551,-0.185,1.605
5552,-0.135,1.120
5553,-0.195,0.690
5554,-0.365,0.385
5555,-0.550,0.160
5556,-0.650,0.030
5557,-0.670,-0.020
5558,-0.640,-0.015
5559,-0.585,-0.015
5560,-0.505,-0.015
5561,-0.425,-0.030
5562,-0.320,-0.015
5563,-0.290,-0.015
5564,-0.245,-0.020
5565,-0.235,-0.050
5566,-0.225,-0.085
5567,-0.240,-0.100
5568,-0.245,-0.095
5569,-0.225,-0.100
5570,-0.215,-0.105
5571,-0.200,-0.120
5572,-0.210,-0.140
5573,-0.215,-0.130
5574,-0.205,-0.130
5575,-0.205,-0.125
5576,-0.190,-0.115
5577,-0.190,-0.120
5578,-0.185,-0.140
5579,-0.200,-0.150
5580,-0.180,-0.130
5581,-0.155,-0.130
5582,-0.150,-0.130
5583,-0.155,-0.140
5584,-0.155,-0.165
5585,-0.170,-0.160
5586,-0.160,-0.140
5587,-0.150,-0.145
5588,-0.140,-0.145
5589,-0.130,-0.170
5590,-0.150,-0.180
5591,-0.145,-0.180
5592,-0.145,-0.165
5593,-0.140,-0.155
5594,-0.140,-0.155
5595,-0.135,-0.170
5596,-0.145,-0.190
5597,-0.155,-0.190
5598,-0.150,-0.180
5599,-0.145,-0.180
5600,-0.120,-0.170
5601,-0.135,-0.180
5602,-0.145,-0.200
5603,-0.145,-0.190
5604,-0.145,-0.185
5605,-0.125,-0.170
5606,-0.120,-0.175
5607,-0.125,-0.185
5608,-0.135,-0.200
5609,-0.145,-0.200
5610,-0.135,-0.180
5611,-0.120,-0.170
5612,-0.115,-0.155
5613,-0.120,-0.165
5614,-0.125,-0.195
5615,-0.120,-0.190
5616,-0.105,-0.180
5617,-0.100,-0.165
5618,-0.080,-0.165
5619,-0.075,-0.175
5620,-0.080,-0.190
5621,-0.090,-0.170
5622,-0.095,-0.160
5623,-0.070,-0.145
5624,-0.055,-0.160
5625,-0.055,-0.160
5626,-0.060,-0.165
5627,-0.070,-0.170
5628,-0.055,-0.155
5629,-0.060,-0.130
5630,-0.035,-0.125
5631,-0.030,-0.140
5632,-0.025,-0.140
5633,-0.045,-0.135
5634,-0.030,-0.110
5635,0.000,-0.080
5636,0.000,-0.080
5637,0.005,-0.080
5638,-0.005,-0.070
5639,-0.005,-0.060
5640,0.005,-0.035
5641,0.025,-0.010
5642,0.035,0.000
5643,0.035,0.005
5644,0.035,0.015
5645,0.015,0.030
5646,0.035,0.055
5647,0.050,0.090
5648,0.075,0.095
5649,0.065,0.100
5650,0.065,0.110
5651,0.050,0.140
5652,0.060,0.160
5653,0.075,0.205
5654,0.090,0.220
5655,0.070,0.215
5656,0.060,0.220
5657,0.070,0.220
5658,0.065,0.240
5659,0.070,0.260
5660,0.075,0.255
5661,0.070,0.245
5662,0.040,0.240
5663,0.025,0.225
5664,0.010,0.250
5665,0.015,0.245
5666,0.005,0.230
5667,-0.010,0.215
5668,-0.020,0.195
5669,-0.040,0.180
5670,-0.055,0.185
5671,-0.050,0.185
5672,-0.045,0.175
5673,-0.065,0.145
5674,-0.090,0.120
5675,-0.105,0.120
5676,-0.115,0.115
5677,-0.115,0.120
5678,-0.110,0.105
5679,-0.120,0.100
5680,-0.135,0.070
5681,-0.150,0.075
5682,-0.150,0.075
5683,-0.145,0.090
5684,-0.145,0.075
5685,-0.140,0.080
5686,-0.170,0.060
5687,-0.175,0.055
5688,-0.170,0.065
5689,-0.165,0.080
5690,-0.165,0.075
5691,-0.175,0.060
5692,-0.185,0.040
5693,-0.190,0.050
5694,-0.180,0.060
5695,-0.165,0.075
5696,-0.170,0.065
5697,-0.180,0.055
5698,-0.170,0.040
5699,-0.200,0.040
5700,-0.185,0.055
5701,-0.190,0.065
5702,-0.175,0.060
5703,-0.175,0.060
5704,-0.175,0.045
5705,-0.195,0.055
5706,-0.195,0.055
5707,-0.170,0.060
5708,-0.160,0.060
5709,-0.175,0.045
5710,-0.190,0.025
5711,-0.205,0.035
5712,-0.185,0.035
5713,-0.165,0.050
5714,-0.155,0.040
5715,-0.160,0.040
5716,-0.185,0.015
5717,-0.195,0.020
5718,-0.185,0.030
5719,-0.185,0.030
5720,-0.170,0.040
5721,-0.175,0.025
5722,-0.190,0.020
5723,-0.195,0.020
5724,-0.190,0.035
5725,-0.160,0.040
5726,-0.155,0.040
5727,-0.155,0.020
5728,-0.175,0.010
5729,-0.180,0.020
5730,-0.190,0.035
5731,-0.170,0.050
5732,-0.160,0.040
5733,-0.160,0.035
5734,-0.165,0.015
5735,-0.180,0.015
5736,-0.175,0.030
5737,-0.165,0.045
5738,-0.160,0.045
5739,-0.155,0.035
5740,-0.170,0.040
5741,-0.200,0.025
5742,-0.205,0.035
5743,-0.175,0.045
5744,-0.170,0.035
5745,-0.170,0.025
5746,-0.190,0.030
5747,-0.195,0.030
5748,-0.190,0.035
5749,-0.175,0.055
5750,-0.160,0.045
5751,-0.165,0.035
5752,-0.195,0.025
5753,-0.200,0.025
5754,-0.190,0.035
5755,-0.180,0.050
5756,-0.170,0.050
5757,-0.185,0.045
5758,-0.200,0.015
5759,-0.200,0.025
5760,-0.200,0.030
5761,-0.190,0.030
5762,-0.190,0.040
5763,-0.195,0.035
5764,-0.200,0.020
5765,-0.220,0.010
5766,-0.220,0.020
5767,-0.220,0.030
5768,-0.205,0.040
5769,-0.215,0.020
5770,-0.240,0.010
5771,-0.235,0.020
5772,-0.240,0.030
5773,-0.210,0.035
5774,-0.210,0.020
5775,-0.225,0.010
5776,-0.225,0.000
5777,-0.245,-0.010
5778,-0.255,0.020
5779,-0.235,0.020
5780,-0.215,0.020
5781,-0.225,0.005
5782,-0.230,0.000
5783,-0.235,0.000
5784,-0.260,0.005
5785,-0.235,0.020
5786,-0.215,0.015
5787,-0.220,0.010
5788,-0.235,0.000
5789,-0.250,0.000
5790,-0.260,0.020
5791,-0.230,0.020
5792,-0.240,0.015
5793,-0.245,0.010
5794,-0.250,-0.005
5795,-0.260,-0.005
5796,-0.255,0.020
5797,-0.240,0.015
5798,-0.225,0.015
5799,-0.230,0.010
5800,-0.240,0.000
5801,-0.250,0.005
5802,-0.255,0.020
5803,-0.240,0.015
5804,-0.225,0.015
5805,-0.240,0.005
5806,-0.245,-0.005
5807,-0.260,0.015
5808,-0.260,0.020
5809,-0.260,0.035
5810,-0.235,0.025
5811,-0.250,0.020
5812,-0.255,-0.005
5813,-0.270,0.010
5814,-0.265,0.010
5815,-0.245,0.035
5816,-0.230,0.035
5817,-0.230,0.030
5818,-0.245,0.005
5819,-0.255,0.015
5820,-0.245,0.030
5821,-0.230,0.040
5822,-0.220,0.025
5823,-0.220,0.010
5824,-0.240,0.000
5825,-0.245,0.020
5826,-0.245,0.030
5827,-0.225,0.050
5828,-0.220,0.025
5829,-0.220,0.035
5830,-0.240,0.010
5831,-0.260,0.000
5832,-0.250,0.030
5833,-0.235,0.045
5834,-0.225,0.040
5835,-0.230,0.025
5836,-0.240,0.025
5837,-0.240,0.015
5838,-0.240,0.030
5839,-0.225,0.045
5840,-0.220,0.025
5841,-0.230,0.020
5842,-0.240,0.010
5843,-0.250,0.015
5844,-0.245,0.030
5845,-0.220,0.045
5846,-0.195,0.050
5847,-0.190,0.045
5848,-0.210,0.030
5849,-0.200,0.045
5850,-0.195,0.065
5851,-0.175,0.075
5852,-0.155,0.085
5853,-0.170,0.075
5854,-0.175,0.060
5855,-0.180,0.070
5856,-0.185,0.085
5857,-0.160,0.095
5858,-0.145,0.100
5859,-0.150,0.080
5860,-0.175,0.075
5861,-0.190,0.090
5862,-0.200,0.100
5863,-0.170,0.100
5864,-0.170,0.080
5865,-0.170,0.075
5866,-0.205,0.045
5867,-0.225,0.045
5868,-0.230,0.065
5869,-0.220,0.080
5870,-0.205,0.065
5871,-0.210,0.065
5872,-0.220,0.055
5873,-0.235,0.065
5874,-0.230,0.080
5875,-0.210,0.100
5876,-0.205,0.090
5877,-0.195,0.075
5878,-0.200,0.065
5879,-0.215,0.060
5880,-0.195,0.070
5881,-0.175,0.080
5882,-0.180,0.055
5883,-0.200,0.035
5884,-0.230,0.010
5885,-0.255,0.020
5886,-0.265,0.030
5887,-0.255,0.045
5888,-0.245,0.035
5889,-0.265,0.045
5890,-0.265,0.025
5891,-0.265,0.020
5892,-0.250,0.020
5893,-0.255,0.035
5894,-0.250,0.040
5895,-0.250,0.030
5896,-0.255,0.010
5897,-0.265,0.010
5898,-0.250,0.025
5899,-0.230,0.035
5900,-0.225,0.035
5901,-0.235,0.015
5902,-0.250,0.015
5903,-0.265,0.010
5904,-0.255,0.015
5905,-0.250,0.030
5906,-0.240,0.030
5907,-0.225,0.020
5908,-0.265,0.000
5909,-0.270,0.010
5910,-0.260,0.025
5911,-0.240,0.015
5912,-0.245,0.025
5913,-0.225,0.020
5914,-0.245,0.020
5915,-0.260,0.025
5916,-0.265,0.045
5917,-0.245,0.055
5918,-0.215,0.055
5919,-0.240,0.060
5920,-0.245,0.060
5921,-0.235,0.090
5922,-0.215,0.145
5923,-0.205,0.205
5924,-0.185,0.265
5925,-0.165,0.300
5926,-0.145,0.360
5927,-0.150,0.435
5928,-0.175,0.545
5929,-0.260,0.710
5930,-0.300,0.875
5931,-0.335,1.035
5932,-0.385,1.175
5933,-0.460,1.330
5934,-0.545,1.515
5935,-0.590,1.680
5936,-0.570,1.880
5937,-0.515,2.080
5938,-0.445,2.205
5939,-0.320,2.245
5940,-0.185,2.170
5941,-0.045,1.890
5942,0.035,1.465
5943,0.010,0.990
5944,-0.150,0.605
5945,-0.360,0.330
5946,-0.510,0.175
5947,-0.590,0.085
5948,-0.590,0.025
5949,-0.580,0.015
5950,-0.560,0.025
5951,-0.495,0.015
5952,-0.385,0.030
5953,-0.315,0.010
5954,-0.245,0.010
5955,-0.220,-0.005
5956,-0.230,-0.035
5957,-0.225,-0.040
5958,-0.205,-0.050
5959,-0.190,-0.055
5960,-0.175,-0.070
5961,-0.180,-0.080
5962,-0.195,-0.105
5963,-0.200,-0.100
5964,-0.185,-0.080
5965,-0.150,-0.070
5966,-0.125,-0.080
5967,-0.140,-0.090
5968,-0.160,-0.100
5969,-0.150,-0.105
5970,-0.145,-0.085
5971,-0.135,-0.085
5972,-0.120,-0.075
5973,-0.125,-0.090
5974,-0.130,-0.100
5975,-0.125,-0.100
5976,-0.135,-0.090
5977,-0.105,-0.080
5978,-0.100,-0.090
5979,-0.105,-0.095
5980,-0.110,-0.115
5981,-0.135,-0.120
5982,-0.130,-0.105
5983,-0.105,-0.100
5984,-0.125,-0.085
5985,-0.105,-0.110
5986,-0.115,-0.125
5987,-0.125,-0.120
5988,-0.135,-0.105
5989,-0.120,-0.090
5990,-0.100,-0.100
5991,-0.100,-0.100
5992,-0.100,-0.115
5993,-0.115,-0.125
5994,-0.100,-0.105
5995,-0.085,-0.095
5996,-0.075,-0.110
5997,-0.075,-0.130
5998,-0.095,-0.130
5999,-0.110,-0.135
6000,-0.100,-0.130
6001,-0.075,-0.110
6002,-0.060,-0.110
6003,-0.080,-0.120
6004,-0.085,-0.135
6005,-0.085,-0.130
6006,-0.085,-0.120
6007,-0.060,-0.105
6008,-0.050,-0.100
6009,-0.065,-0.105
6010,-0.065,-0.130
6011,-0.075,-0.120
6012,-0.075,-0.100
6013,-0.065,-0.095
6014,-0.060,-0.110
6015,-0.050,-0.105
6016,-0.060,-0.110
6017,-0.060,-0.105
6018,-0.050,-0.095
6019,-0.040,-0.070
6020,-0.020,-0.085
6021,-0.025,-0.085
6022,-0.020,-0.110
6023,-0.030,-0.100
6024,-0.020,-0.080
6025,-0.005,-0.055
6026,0.005,-0.050
6027,0.010,-0.060
6028,0.010,-0.065
6029,-0.010,-0.035
6030,0.015,-0.020
6031,0.025,-0.005
6032,0.045,0.000
6033,0.055,-0.005
6034,0.025,0.000
6035,0.040,0.035
6036,0.045,0.050
6037,0.070,0.075
6038,0.070,0.095
6039,0.080,0.090
6040,0.075,0.110
6041,0.070,0.125
6042,0.090,0.160
6043,0.105,0.185
6044,0.130,0.215
6045,0.110,0.205
6046,0.110,0.205
6047,0.095,0.240
6048,0.105,0.270
6049,0.105,0.285
6050,0.140,0.300
6051,0.110,0.295
6052,0.100,0.300
6053,0.080,0.290
6054,0.080,0.300
6055,0.075,0.310
6056,0.070,0.290
6057,0.065,0.280
6058,0.040,0.260
6059,0.020,0.245
6060,0.000,0.250
6061,0.000,0.250
6062,0.010,0.230
6063,-0.025,0.220
6064,-0.065,0.185
6065,-0.080,0.165
6066,-0.075,0.170
6067,-0.075,0.185
6068,-0.080,0.150
6069,-0.095,0.130
6070,-0.100,0.110
6071,-0.110,0.115
6072,-0.120,0.115
6073,-0.110,0.130
6074,-0.125,0.105
6075,-0.135,0.100
6076,-0.140,0.095
6077,-0.145,0.080
6078,-0.135,0.095
6079,-0.140,0.100
6080,-0.125,0.100
6081,-0.125,0.090
6082,-0.140,0.070
6083,-0.155,0.085
6084,-0.155,0.105
6085,-0.145,0.095
6086,-0.125,0.090
6087,-0.145,0.070
6088,-0.175,0.060
6089,-0.180,0.065
6090,-0.175,0.080
6091,-0.155,0.090
6092,-0.140,0.085
6093,-0.145,0.075
6094,-0.155,0.050
6095,-0.170,0.040
6096,-0.180,0.060
6097,-0.155,0.070
6098,-0.145,0.065
6099,-0.155,0.050
6100,-0.160,0.040
6101,-0.190,0.040
6102,-0.180,0.045
6103,-0.160,0.050
6104,-0.155,0.045
6105,-0.170,0.045
6106,-0.165,0.030
6107,-0.185,0.035
6108,-0.185,0.035
6109,-0.165,0.040
6110,-0.160,0.030
6111,-0.175,0.025
6112,-0.190,0.010
6113,-0.215,0.015
6114,-0.210,0.035
6115,-0.180,0.050
6116,-0.175,0.045
6117,-0.185,0.030
6118,-0.205,0.020
6119,-0.200,0.020
6120,-0.195,0.040
6121,-0.170,0.060
6122,-0.170,0.045
6123,-0.180,0.055
6124,-0.170,0.015
6125,-0.185,0.030
6126,-0.180,0.035
6127,-0.165,0.035
6128,-0.155,0.040
6129,-0.165,0.045
6130,-0.175,0.045
6131,-0.195,0.050
6132,-0.175,0.060
6133,-0.175,0.070
6134,-0.155,0.070
6135,-0.170,0.055
6136,-0.185,0.040
6137,-0.200,0.030
6138,-0.185,0.055
6139,-0.175,0.070
6140,-0.165,0.070
6141,-0.170,0.065
6142,-0.185,0.045
6143,-0.190,0.050
6144,-0.190,0.045
6145,-0.180,0.060
6146,-0.185,0.065
6147,-0.180,0.050
6148,-0.200,0.035
6149,-0.215,0.035
6150,-0.205,0.040
6151,-0.190,0.070
6152,-0.185,0.060
6153,-0.190,0.045
6154,-0.210,0.030
6155,-0.220,0.020
6156,-0.200,0.045
6157,-0.190,0.040
6158,-0.200,0.050
6159,-0.205,0.030
6160,-0.240,0.015
6161,-0.230,0.015
6162,-0.220,0.030
6163,-0.210,0.045
6164,-0.195,0.040
6165,-0.205,0.035
6166,-0.215,0.010
6167,-0.225,0.015
6168,-0.215,0.020
6169,-0.210,0.040
6170,-0.195,0.030
6171,-0.210,0.020
6172,-0.225,0.015
6173,-0.230,0.030
6174,-0.225,0.025
6175,-0.220,0.025
6176,-0.210,0.025
6177,-0.220,0.020
6178,-0.245,0.015
6179,-0.240,0.020
6180,-0.240,0.030
6181,-0.225,0.035
6182,-0.215,0.020
6183,-0.230,0.020
6184,-0.245,0.000
6185,-0.250,0.005
6186,-0.245,0.015
6187,-0.220,0.025
6188,-0.215,0.020
6189,-0.235,0.015
6190,-0.250,0.000
6191,-0.260,0.005
6192,-0.250,0.015
6193,-0.240,0.020
6194,-0.230,0.025
6195,-0.230,0.010
6196,-0.250,0.000
6197,-0.250,0.010
6198,-0.255,0.020
6199,-0.255,0.050
6200,-0.230,0.040
6201,-0.240,0.010
6202,-0.255,-0.005
6203,-0.255,0.000
6204,-0.255,0.010
6205,-0.245,0.030
6206,-0.235,0.020
6207,-0.250,0.015
6208,-0.265,0.010
6209,-0.270,0.000
6210,-0.260,0.015
6211,-0.240,0.015
6212,-0.225,0.010
6213,-0.240,-0.010
6214,-0.250,-0.010
6215,-0.260,0.000
6216,-0.265,0.005
6217,-0.245,0.020
6218,-0.245,0.010
6219,-0.255,0.015
6220,-0.245,-0.005
6221,-0.260,0.000
6222,-0.255,0.005
6223,-0.235,0.020
6224,-0.225,0.020
6225,-0.235,0.000
6226,-0.245,0.000
6227,-0.250,-0.005
6228,-0.245,0.005
6229,-0.240,0.025
6230,-0.225,0.020
6231,-0.245,0.010
6232,-0.250,0.000
6233,-0.255,0.015
6234,-0.255,0.020
6235,-0.245,0.020
6236,-0.245,0.010
6237,-0.255,0.010
6238,-0.260,0.005
6239,-0.265,0.020
6240,-0.230,0.030
6241,-0.215,0.040
6242,-0.225,0.050
6243,-0.210,0.040
6244,-0.215,0.020
6245,-0.230,0.035
6246,-0.225,0.040
6247,-0.195,0.055
6248,-0.175,0.055
6249,-0.180,0.060
6250,-0.205,0.060
6251,-0.205,0.065
6252,-0.205,0.065
6253,-0.185,0.080
6254,-0.180,0.070
6255,-0.200,0.050
6256,-0.215,0.040
6257,-0.235,0.040
6258,-0.240,0.045
6259,-0.235,0.050
6260,-0.235,0.055
6261,-0.250,0.040
6262,-0.265,0.010
6263,-0.275,0.025
6264,-0.250,0.040
6265,-0.250,0.055
6266,-0.240,0.060
6267,-0.240,0.050
6268,-0.255,0.040
6269,-0.260,0.040
6270,-0.230,0.055
6271,-0.215,0.065
6272,-0.200,0.055
6273,-0.205,0.035
6274,-0.235,0.015
6275,-0.245,0.010
6276,-0.265,0.010
6277,-0.260,0.010
6278,-0.275,0.005
6279,-0.270,0.010
6280,-0.290,-0.005
6281,-0.285,0.005
6282,-0.265,0.030
6283,-0.265,0.040
6284,-0.255,0.025
6285,-0.270,0.010
6286,-0.290,-0.020
6287,-0.300,-0.005
6288,-0.285,0.000
6289,-0.280,0.010
6290,-0.265,0.015
6291,-0.280,-0.005
6292,-0.300,0.000
6293,-0.305,-0.010
6294,-0.300,0.000
6295,-0.280,0.020
6296,-0.285,0.015
6297,-0.280,-0.005
6298,-0.295,-0.010
6299,-0.300,-0.010
6300,-0.290,0.010
6301,-0.280,0.010
6302,-0.270,0.000
6303,-0.275,0.005
6304,-0.300,-0.005
6305,-0.315,0.005
6306,-0.300,0.035
6307,-0.285,0.045
6308,-0.255,0.040
6309,-0.265,0.035
6310,-0.270,0.050
6311,-0.275,0.085
6312,-0.260,0.130
6313,-0.215,0.180
6314,-0.200,0.235
6315,-0.200,0.280
6316,-0.190,0.325
6317,-0.170,0.395
6318,-0.185,0.500
6319,-0.225,0.635
6320,-0.280,0.780
6321,-0.335,0.950
6322,-0.400,1.085
6323,-0.475,1.250
6324,-0.545,1.420
6325,-0.620,1.585
6326,-0.615,1.765
6327,-0.595,1.965
6328,-0.500,2.125
6329,-0.380,2.175
6330,-0.220,2.075
6331,-0.085,1.765
6332,-0.015,1.250
6333,-0.075,0.745
6334,-0.285,0.375
6335,-0.500,0.155
6336,-0.630,0.045
6337,-0.645,0.015
6338,-0.600,0.015
6339,-0.530,0.000
6340,-0.455,-0.010
6341,-0.350,-0.020
6342,-0.300,-0.005
6343,-0.285,-0.020
6344,-0.260,-0.045
6345,-0.255,-0.070
6346,-0.260,-0.115
6347,-0.280,-0.110
6348,-0.275,-0.105
6349,-0.250,-0.100
6350,-0.230,-0.105
6351,-0.225,-0.115
6352,-0.235,-0.120
6353,-0.245,-0.120
6354,-0.225,-0.115
6355,-0.210,-0.110
6356,-0.195,-0.120
6357,-0.200,-0.135
6358,-0.235,-0.135
6359,-0.230,-0.145
6360,-0.205,-0.145
6361,-0.200,-0.125
6362,-0.195,-0.135
6363,-0.205,-0.145
6364,-0.210,-0.135
6365,-0.210,-0.130
6366,-0.215,-0.130
6367,-0.185,-0.130
6368,-0.185,-0.145
6369,-0.185,-0.145
6370,-0.200,-0.170
6371,-0.210,-0.160
6372,-0.200,-0.145
6373,-0.185,-0.135
6374,-0.175,-0.140
6375,-0.185,-0.140
6376,-0.190,-0.155
6377,-0.190,-0.170
6378,-0.200,-0.165
6379,-0.175,-0.140
6380,-0.175,-0.155
6381,-0.185,-0.155
6382,-0.185,-0.165
6383,-0.195,-0.165
6384,-0.180,-0.165
6385,-0.170,-0.145
6386,-0.160,-0.145
6387,-0.170,-0.165
6388,-0.185,-0.170
6389,-0.190,-0.165
6390,-0.170,-0.160
6391,-0.160,-0.150
6392,-0.145,-0.150
6393,-0.165,-0.155
6394,-0.165,-0.175
6395,-0.175,-0.190
6396,-0.170,-0.165
6397,-0.150,-0.155
6398,-0.135,-0.160
6399,-0.150,-0.150
6400,-0.140,-0.160
6401,-0.145,-0.155
6402,-0.135,-0.145
6403,-0.120,-0.140
6404,-0.115,-0.140
6405,-0.120,-0.155
6406,-0.125,-0.175
6407,-0.120,-0.160
6408,-0.115,-0.135
6409,-0.105,-0.120
6410,-0.085,-0.125
6411,-0.090,-0.130
6412,-0.105,-0.130
6413,-0.100,-0.125
6414,-0.090,-0.105
6415,-0.080,-0.095
6416,-0.065,-0.080
6417,-0.070,-0.075
6418,-0.060,-0.090
6419,-0.060,-0.070
6420,-0.050,-0.045
6421,-0.040,-0.015
6422,-0.030,-0.010
6423,-0.020,-0.005
6424,-0.030,0.005
6425,-0.025,0.025
6426,-0.010,0.060
6427,-0.005,0.080
6428,0.010,0.090
6429,0.000,0.105
6430,0.000,0.105
6431,-0.010,0.140
6432,-0.005,0.165
6433,0.005,0.175
6434,0.020,0.195
6435,0.015,0.180
6436,0.000,0.190
6437,-0.010,0.195
6438,-0.010,0.225
6439,0.005,0.235
6440,0.000,0.230
6441,-0.005,0.210
6442,-0.035,0.195
6443,-0.040,0.195
6444,-0.045,0.190
6445,-0.070,0.185
6446,-0.070,0.180
6447,-0.075,0.160
6448,-0.105,0.135
6449,-0.125,0.115
6450,-0.130,0.105
6451,-0.130,0.125
6452,-0.135,0.095
6453,-0.130,0.080
6454,-0.160,0.070
6455,-0.170,0.065
6456,-0.170,0.070
6457,-0.160,0.075
6458,-0.160,0.055
6459,-0.175,0.050
6460,-0.185,0.035
6461,-0.210,0.020
6462,-0.190,0.045
6463,-0.200,0.045
6464,-0.195,0.045
6465,-0.185,0.035
6466,-0.200,0.025
6467,-0.220,0.025
6468,-0.215,0.035
6469,-0.195,0.040
6470,-0.195,0.020
6471,-0.195,0.015
6472,-0.215,0.020
6473,-0.230,0.020
6474,-0.220,0.025
6475,-0.205,0.025
6476,-0.200,0.020
6477,-0.210,0.005
6478,-0.220,0.000
6479,-0.230,-0.005
6480,-0.230,-0.005
6481,-0.210,0.010
6482,-0.205,0.000
6483,-0.205,-0.010
6484,-0.225,-0.025
6485,-0.235,-0.020
6486,-0.240,-0.015
6487,-0.205,-0.010
6488,-0.195,0.000
6489,-0.195,-0.025
6490,-0.215,-0.025
6491,-0.230,-0.025
6492,-0.220,-0.020
6493,-0.210,-0.005
6494,-0.205,-0.015
6495,-0.210,-0.030
6496,-0.225,-0.045
6497,-0.230,-0.060
6498,-0.225,-0.045
6499,-0.215,-0.030
6500,-0.205,-0.025
6501,-0.205,-0.035
6502,-0.215,-0.045
6503,-0.225,-0.045
6504,-0.220,-0.045
6505,-0.205,-0.025
6506,-0.200,-0.040
6507,-0.200,-0.045
6508,-0.210,-0.045
6509,-0.215,-0.050
6510,-0.225,-0.040
6511,-0.210,-0.020
6512,-0.195,-0.035
6513,-0.200,-0.040
6514,-0.205,-0.045
6515,-0.215,-0.045
6516,-0.215,-0.030
6517,-0.190,-0.015
6518,-0.195,-0.025
6519,-0.190,-0.035
6520,-0.205,-0.045
6521,-0.215,-0.040
6522,-0.210,-0.025
6523,-0.200,-0.020
6524,-0.200,-0.015
6525,-0.195,-0.040
6526,-0.220,-0.035
6527,-0.220,-0.045
6528,-0.235,-0.040
6529,-0.205,-0.025
6530,-0.200,-0.050
6531,-0.200,-0.050
6532,-0.220,-0.060
6533,-0.235,-0.055
6534,-0.225,-0.045
6535,-0.210,-0.035
6536,-0.205,-0.035
6537,-0.210,-0.055
6538,-0.230,-0.065
6539,-0.245,-0.055
6540,-0.230,-0.040
6541,-0.220,-0.020
6542,-0.220,-0.045
6543,-0.210,-0.040
6544,-0.235,-0.085
6545,-0.245,-0.070
6546,-0.235,-0.050
6547,-0.240,-0.045
6548,-0.225,-0.040
6549,-0.225,-0.055
6550,-0.240,-0.080
6551,-0.255,-0.055
6552,-0.240,-0.055
6553,-0.235,-0.040
6554,-0.230,-0.045
6555,-0.230,-0.050
6556,-0.255,-0.070
6557,-0.250,-0.065
6558,-0.245,-0.040
6559,-0.230,-0.040
6560,-0.225,-0.055
6561,-0.230,-0.060
6562,-0.245,-0.065
6563,-0.255,-0.070
6564,-0.250,-0.060
6565,-0.245,-0.040
6566,-0.245,-0.050
6567,-0.235,-0.065
6568,-0.260,-0.075
6569,-0.260,-0.070
6570,-0.255,-0.060
6571,-0.245,-0.050
6572,-0.240,-0.055
6573,-0.250,-0.065
6574,-0.255,-0.080
6575,-0.285,-0.070
6576,-0.275,-0.070
6577,-0.255,-0.055
6578,-0.245,-0.055
6579,-0.250,-0.080
6580,-0.270,-0.090
6581,-0.280,-0.085
6582,-0.275,-0.075
6583,-0.245,-0.060
6584,-0.240,-0.055
6585,-0.235,-0.055
6586,-0.250,-0.085
6587,-0.270,-0.090
6588,-0.260,-0.080
6589,-0.250,-0.065
6590,-0.230,-0.065
