'sample interval','MLII','V1'
'0.00277778 sec','mV','mV'
0,-0.020,0.160
1,-0.020,0.160
2,-0.020,0.160
3,-0.020,0.160
4,-0.020,0.160
5,-0.020,0.160
6,-0.020,0.160
7,-0.020,0.160
8,-0.020,0.160
9,0.005,0.140
10,0.020,0.140
11,0.025,0.155
12,0.040,0.145
13,0.040,0.160
14,0.045,0.175
15,0.075,0.155
16,0.090,0.135
17,0.090,0.130
18,0.095,0.130
19,0.090,0.155
20,0.110,0.175
21,0.130,0.170
22,0.130,0.160
23,0.140,0.145
24,0.130,0.120
25,0.120,0.130
26,0.125,0.135
27,0.130,0.165
28,0.150,0.175
29,0.140,0.195
30,0.120,0.200
31,0.135,0.170
32,0.135,0.170
33,0.155,0.165
34,0.165,0.155
35,0.165,0.130
36,0.135,0.115
37,0.125,0.135
38,0.130,0.145
39,0.125,0.160
40,0.110,0.180
41,0.100,0.185
42,0.080,0.175
43,0.060,0.155
44,0.075,0.160
45,0.085,0.155
46,0.090,0.130
47,0.070,0.105
48,0.045,0.100
49,0.020,0.100
50,0.010,0.125
51,0.005,0.140
52,-0.010,0.140
53,-0.045,0.110
54,-0.065,0.095
55,-0.070,0.100
56,-0.080,0.110
57,-0.070,0.130
58,-0.055,0.125
59,-0.080,0.145
60,-0.115,0.140
61,-0.130,0.155
62,-0.105,0.140
63,-0.080,0.130
64,-0.070,0.120
65,-0.085,0.105
66,-0.110,0.105
67,-0.120,0.115
68,-0.120,0.140
69,-0.105,0.125
70,-0.090,0.115
71,-0.100,0.095
72,-0.110,0.090
73,-0.125,0.105
74,-0.125,0.110
75,-0.105,0.125
76,-0.120,0.110
77,-0.085,0.090
78,-0.100,0.050
79,-0.100,0.045
80,-0.105,0.055
81,-0.105,0.085
82,-0.115,0.110
83,-0.115,0.100
84,-0.110,0.110
85,-0.135,0.095
86,-0.135,0.090
87,-0.120,0.100
88,-0.120,0.115
89,-0.120,0.105
90,-0.115,0.105
91,-0.125,0.105
92,-0.125,0.120
93,-0.120,0.140
94,-0.100,0.120
95,-0.100,0.110
96,-0.110,0.095
97,-0.120,0.090
98,-0.115,0.090
99,-0.115,0.085
100,-0.105,0.075
101,-0.095,0.075
102,-0.125,0.065
103,-0.140,0.070
104,-0.125,0.090
105,-0.110,0.105
106,-0.090,0.120
107,-0.100,0.105
108,-0.120,0.105
109,-0.130,0.145
110,-0.140,0.175
111,-0.140,0.190
112,-0.115,0.175
113,-0.100,0.140
114,-0.110,0.100
115,-0.110,0.090
116,-0.085,0.105
117,-0.065,0.120
118,-0.040,0.110
119,-0.035,0.095
120,-0.055,0.065
121,-0.075,0.075
122,-0.055,0.105
123,-0.030,0.140
124,0.000,0.135
125,-0.020,0.125
126,-0.045,0.110
127,-0.060,0.110
128,-0.045,0.115
129,-0.030,0.105
130,-0.025,0.075
131,-0.020,0.050
132,-0.025,0.020
133,-0.060,0.040
134,-0.070,0.060
135,-0.050,0.090
136,-0.045,0.090
137,-0.055,0.065
138,-0.090,0.060
139,-0.105,0.055
140,-0.110,0.050
141,-0.110,0.055
142,-0.090,0.050
143,-0.095,0.045
144,-0.090,0.060
145,-0.090,0.080
146,-0.070,0.095
147,-0.060,0.090
148,-0.065,0.075
149,-0.080,0.060
150,-0.100,0.035
151,-0.115,0.050
152,-0.125,0.055
153,-0.130,0.055
154,-0.140,0.055
155,-0.160,0.050
156,-0.160,0.055
157,-0.165,0.060
158,-0.185,0.075
159,-0.175,0.120
160,-0.185,0.130
161,-0.185,0.140
162,-0.195,0.170
163,-0.200,0.175
164,-0.190,0.180
165,-0.190,0.150
166,-0.185,0.125
167,-0.180,0.095
168,-0.185,0.080
169,-0.190,0.050
170,-0.190,0.045
171,-0.185,0.050
172,-0.175,0.065
173,-0.190,0.075
174,-0.190,0.090
175,-0.200,0.090
176,-0.195,0.090
177,-0.200,0.120
178,-0.210,0.135
179,-0.240,0.165
180,-0.260,0.170
181,-0.250,0.180
182,-0.215,0.205
183,-0.115,0.210
184,0.010,0.215
185,0.170,0.210
186,0.375,0.215
187,0.600,0.235
188,0.850,0.235
189,1.080,0.205
190,1.195,0.120
191,1.150,-0.005
192,0.900,-0.120
193,0.550,-0.155
194,0.115,-0.120
195,-0.340,-0.095
196,-0.710,-0.080
197,-0.850,-0.085
198,-0.800,-0.085
199,-0.680,-0.070
200,-0.555,-0.055
201,-0.445,-0.035
202,-0.375,-0.020
203,-0.320,-0.010
204,-0.285,-0.010
205,-0.255,0.005
206,-0.235,0.010
207,-0.215,0.050
208,-0.220,0.080
209,-0.220,0.070
210,-0.235,0.050
211,-0.210,0.050
212,-0.200,0.070
213,-0.205,0.090
214,-0.200,0.105
215,-0.205,0.090
216,-0.210,0.095
217,-0.225,0.100
218,-0.210,0.120
219,-0.190,0.125
220,-0.180,0.115
221,-0.195,0.100
222,-0.205,0.095
223,-0.210,0.110
224,-0.210,0.105
225,-0.200,0.125
226,-0.195,0.115
227,-0.205,0.115
228,-0.215,0.110
229,-0.205,0.105
230,-0.205,0.125
231,-0.175,0.155
232,-0.175,0.145
233,-0.160,0.115
234,-0.160,0.075
235,-0.140,0.065
236,-0.150,0.080
237,-0.125,0.115
238,-0.120,0.135
239,-0.125,0.150
240,-0.145,0.185
241,-0.145,0.205
242,-0.125,0.205
243,-0.090,0.170
244,-0.060,0.100
245,-0.070,0.070
246,-0.070,0.075
247,-0.075,0.105
248,-0.060,0.120
249,-0.040,0.120
250,-0.015,0.095
251,-0.020,0.080
252,-0.020,0.090
253,0.005,0.110
254,0.025,0.120
255,0.040,0.125
256,0.040,0.130
257,0.050,0.135
258,0.025,0.125
259,0.025,0.115
260,0.035,0.130
261,0.060,0.140
262,0.085,0.125
263,0.090,0.110
264,0.070,0.130
265,0.065,0.125
266,0.070,0.135
267,0.095,0.155
268,0.110,0.150
269,0.105,0.145
270,0.090,0.135
271,0.075,0.145
272,0.075,0.160
273,0.080,0.175
274,0.090,0.160
275,0.085,0.160
276,0.055,0.150
277,0.035,0.155
278,0.055,0.175
279,0.055,0.185
280,0.045,0.220
281,0.025,0.235
282,0.000,0.225
283,-0.005,0.200
284,-0.020,0.185
285,-0.035,0.175
286,-0.045,0.160
287,-0.060,0.145
288,-0.085,0.105
289,-0.105,0.095
290,-0.115,0.070
291,-0.125,0.075
292,-0.120,0.065
293,-0.130,0.060
294,-0.155,0.055
295,-0.160,0.080
296,-0.170,0.090
297,-0.165,0.105
298,-0.175,0.095
299,-0.165,0.080
300,-0.190,0.090
301,-0.205,0.080
302,-0.205,0.100
303,-0.200,0.115
304,-0.205,0.120
305,-0.210,0.125
306,-0.220,0.125
307,-0.235,0.140
308,-0.225,0.140
309,-0.205,0.160
310,-0.195,0.165
311,-0.200,0.155
312,-0.210,0.110
313,-0.230,0.105
314,-0.215,0.105
315,-0.205,0.105
316,-0.200,0.100
317,-0.190,0.080
318,-0.210,0.050
319,-0.220,0.070
320,-0.215,0.100
321,-0.215,0.135
322,-0.195,0.130
323,-0.195,0.115
324,-0.195,0.095
325,-0.210,0.075
326,-0.210,0.090
327,-0.205,0.100
328,-0.195,0.105
329,-0.200,0.095
330,-0.200,0.095
331,-0.205,0.110
332,-0.205,0.125
333,-0.195,0.145
334,-0.180,0.135
335,-0.185,0.115
336,-0.200,0.075
337,-0.200,0.055
338,-0.165,0.055
339,-0.165,0.080
340,-0.145,0.110
341,-0.155,0.125
342,-0.165,0.115
343,-0.150,0.105
344,-0.145,0.095
345,-0.145,0.105
346,-0.150,0.100
347,-0.165,0.095
348,-0.165,0.095
349,-0.170,0.120
350,-0.150,0.125
351,-0.145,0.135
352,-0.130,0.130
353,-0.140,0.120
354,-0.145,0.105
355,-0.145,0.125
356,-0.135,0.160
357,-0.130,0.170
358,-0.115,0.145
359,-0.110,0.115
360,-0.115,0.070
361,-0.120,0.040
362,-0.110,0.030
363,-0.120,0.045
364,-0.120,0.045
365,-0.130,0.050
366,-0.135,0.030
367,-0.140,0.050
368,-0.145,0.050
369,-0.140,0.055
370,-0.125,0.065
371,-0.120,0.050
372,-0.140,0.050
373,-0.170,0.040
374,-0.180,0.030
375,-0.180,0.050
376,-0.175,0.040
377,-0.185,0.025
378,-0.190,0.025
379,-0.205,0.025
380,-0.185,0.040
381,-0.165,0.060
382,-0.145,0.070
383,-0.160,0.080
384,-0.190,0.100
385,-0.215,0.115
386,-0.225,0.130
387,-0.235,0.120
388,-0.245,0.095
389,-0.275,0.075
390,-0.280,0.070
391,-0.275,0.080
392,-0.270,0.090
393,-0.235,0.100
394,-0.240,0.075
395,-0.255,0.075
396,-0.265,0.095
397,-0.265,0.100
398,-0.255,0.090
399,-0.260,0.095
400,-0.250,0.085
401,-0.250,0.065
402,-0.250,0.030
403,-0.250,0.030
404,-0.255,0.065
405,-0.250,0.090
406,-0.240,0.105
407,-0.240,0.095
408,-0.240,0.070
409,-0.260,0.055
410,-0.255,0.065
411,-0.255,0.085
412,-0.285,0.110
413,-0.320,0.115
414,-0.335,0.135
415,-0.360,0.140
416,-0.310,0.170
417,-0.250,0.205
418,-0.160,0.200
419,-0.035,0.190
420,0.100,0.185
421,0.280,0.210
422,0.520,0.215
423,0.760,0.220
424,0.960,0.175
425,1.080,0.110
426,1.055,0.000
427,0.905,-0.090
428,0.635,-0.140
429,0.325,-0.130
430,-0.060,-0.115
431,-0.500,-0.110
432,-0.810,-0.115
433,-0.880,-0.115
434,-0.825,-0.090
435,-0.740,-0.070
436,-0.650,-0.070
437,-0.550,-0.100
438,-0.475,-0.085
439,-0.410,-0.060
440,-0.370,-0.005
441,-0.335,0.030
442,-0.320,0.040
443,-0.300,0.065
444,-0.305,0.070
445,-0.300,0.070
446,-0.280,0.095
447,-0.275,0.080
448,-0.275,0.060
449,-0.290,0.030
450,-0.285,0.035
451,-0.280,0.020
452,-0.265,0.040
453,-0.260,0.035
454,-0.250,0.050
455,-0.255,0.045
456,-0.270,0.035
457,-0.265,0.040
458,-0.255,0.045
459,-0.245,0.085
460,-0.245,0.070
461,-0.285,0.055
462,-0.275,0.050
463,-0.260,0.040
464,-0.250,0.055
465,-0.235,0.070
466,-0.240,0.070
467,-0.255,0.070
468,-0.225,0.060
469,-0.235,0.055
470,-0.225,0.065
471,-0.210,0.075
472,-0.200,0.055
473,-0.195,0.045
474,-0.205,0.025
475,-0.205,0.035
476,-0.190,0.060
477,-0.160,0.075
478,-0.130,0.080
479,-0.135,0.065
480,-0.155,0.045
481,-0.165,0.055
482,-0.160,0.065
483,-0.145,0.085
484,-0.140,0.080
485,-0.135,0.085
486,-0.130,0.095
487,-0.120,0.105
488,-0.105,0.130
489,-0.075,0.120
490,-0.060,0.125
491,-0.035,0.100
492,-0.040,0.085
493,-0.040,0.065
494,-0.005,0.060
495,0.010,0.065
496,0.015,0.065
497,0.015,0.065
498,0.005,0.065
499,0.010,0.065
500,0.035,0.050
501,0.040,0.040
502,0.060,0.030
503,0.060,0.045
504,0.050,0.055
505,0.030,0.070
506,0.045,0.085
507,0.040,0.105
508,0.050,0.090
509,0.050,0.080
510,0.050,0.060
511,0.045,0.055
512,0.055,0.060
513,0.060,0.075
514,0.060,0.070
515,0.055,0.065
516,0.035,0.065
517,0.015,0.075
518,0.005,0.100
519,0.005,0.110
520,-0.010,0.135
521,-0.035,0.130
522,-0.080,0.125
523,-0.095,0.140
524,-0.085,0.125
525,-0.080,0.115
526,-0.085,0.055
527,-0.100,0.020
528,-0.125,-0.025
529,-0.145,-0.020
530,-0.150,0.010
531,-0.160,0.030
532,-0.180,0.050
533,-0.185,0.050
534,-0.195,0.050
535,-0.200,0.035
536,-0.205,0.040
537,-0.195,0.060
538,-0.190,0.075
539,-0.190,0.080
540,-0.200,0.065
541,-0.230,0.055
542,-0.215,0.060
543,-0.205,0.050
544,-0.205,0.060
545,-0.220,0.055
546,-0.210,0.060
547,-0.230,0.070
548,-0.240,0.105
549,-0.235,0.125
550,-0.245,0.135
551,-0.235,0.080
552,-0.250,0.020
553,-0.250,-0.030
554,-0.230,-0.025
555,-0.225,-0.010
556,-0.220,-0.005
557,-0.235,-0.005
558,-0.240,-0.005
559,-0.250,0.000
560,-0.250,0.015
561,-0.230,0.025
562,-0.215,0.040
563,-0.220,0.030
564,-0.225,0.015
565,-0.225,0.020
566,-0.215,0.025
567,-0.200,0.040
568,-0.200,0.040
569,-0.215,0.040
570,-0.230,0.040
571,-0.240,0.050
572,-0.230,0.085
573,-0.205,0.090
574,-0.200,0.105
575,-0.205,0.070
576,-0.235,0.040
577,-0.265,0.050
578,-0.250,0.040
579,-0.230,0.055
580,-0.205,0.050
581,-0.205,0.040
582,-0.230,0.025
583,-0.235,0.015
584,-0.225,0.000
585,-0.195,0.020
586,-0.185,0.025
587,-0.165,0.015
588,-0.170,0.005
589,-0.170,0.010
590,-0.185,0.040
591,-0.185,0.065
592,-0.185,0.070
593,-0.175,0.070
594,-0.165,0.050
595,-0.155,0.055
596,-0.160,0.065
597,-0.150,0.070
598,-0.140,0.050
599,-0.155,0.015
600,-0.165,0.005
601,-0.185,0.010
602,-0.195,0.045
603,-0.190,0.065
604,-0.210,0.080
605,-0.215,0.070
606,-0.220,0.045
607,-0.190,0.020
608,-0.180,-0.015
609,-0.185,-0.025
610,-0.185,-0.055
611,-0.195,-0.045
612,-0.220,-0.050
613,-0.230,-0.025
614,-0.230,-0.025
615,-0.235,-0.040
616,-0.230,-0.030
617,-0.240,-0.015
618,-0.255,0.005
619,-0.255,0.010
620,-0.235,0.030
621,-0.240,0.030
622,-0.250,0.020
623,-0.290,0.005
624,-0.315,-0.005
625,-0.325,-0.005
626,-0.315,0.000
627,-0.300,0.015
628,-0.300,0.030
629,-0.295,0.035
630,-0.315,0.040
631,-0.310,0.040
632,-0.310,0.030
633,-0.300,0.030
634,-0.295,0.020
635,-0.305,0.015
636,-0.335,0.005
637,-0.350,0.025
638,-0.340,0.040
639,-0.320,0.035
640,-0.310,0.045
641,-0.295,0.045
642,-0.305,0.025
643,-0.310,0.010
644,-0.305,0.020
645,-0.300,0.015
646,-0.310,0.035
647,-0.335,0.065
648,-0.375,0.105
649,-0.405,0.135
650,-0.415,0.165
651,-0.375,0.175
652,-0.325,0.155
653,-0.220,0.130
654,-0.090,0.095
655,0.065,0.085
656,0.285,0.130
657,0.515,0.155
658,0.755,0.155
659,0.940,0.130
660,0.995,0.050
661,0.920,-0.040
662,0.725,-0.110
663,0.445,-0.105
664,0.095,-0.100
665,-0.340,-0.110
666,-0.705,-0.120
667,-0.885,-0.105
668,-0.885,-0.095
669,-0.805,-0.100
670,-0.750,-0.105
671,-0.700,-0.115
672,-0.600,-0.120
673,-0.515,-0.130
674,-0.440,-0.120
675,-0.415,-0.090
676,-0.410,-0.050
677,-0.395,-0.045
678,-0.385,-0.035
679,-0.375,-0.010
680,-0.365,0.020
681,-0.330,0.035
682,-0.315,0.030
683,-0.320,0.015
684,-0.340,0.000
685,-0.345,0.030
686,-0.335,0.030
687,-0.315,0.060
688,-0.300,0.035
689,-0.310,0.010
690,-0.330,0.000
691,-0.355,0.010
692,-0.335,0.040
693,-0.305,0.050
694,-0.295,0.015
695,-0.305,0.015
696,-0.320,-0.005
697,-0.325,0.000
698,-0.315,0.030
699,-0.290,0.035
700,-0.285,0.040
701,-0.285,0.040
702,-0.285,0.030
703,-0.275,0.025
704,-0.260,0.010
705,-0.250,0.010
706,-0.245,0.000
707,-0.245,0.005
708,-0.240,-0.010
709,-0.230,-0.005
710,-0.220,0.000
711,-0.200,0.020
712,-0.195,0.035
713,-0.185,0.040
714,-0.200,0.040
715,-0.190,0.015
716,-0.175,0.030
717,-0.160,0.030
718,-0.135,0.015
719,-0.110,0.005
720,-0.100,-0.005
721,-0.100,0.005
722,-0.090,0.045
723,-0.095,0.045
724,-0.095,0.035
725,-0.080,0.015
726,-0.070,0.010
727,-0.060,0.025
728,-0.045,0.045
729,-0.025,0.050
730,-0.010,0.020
731,0.010,-0.005
732,-0.005,-0.005
733,-0.025,0.015
734,-0.035,0.035
735,-0.020,0.070
736,0.000,0.070
737,-0.015,0.045
738,-0.025,0.020
739,0.005,0.020
740,0.010,0.040
741,0.035,0.055
742,0.030,0.040
743,0.015,0.030
744,-0.015,0.005
745,-0.035,0.005
746,-0.035,0.045
747,-0.050,0.055
748,-0.075,0.070
749,-0.100,0.060
750,-0.120,0.065
751,-0.130,0.045
752,-0.140,0.050
753,-0.115,0.045
754,-0.110,0.050
755,-0.135,0.025
756,-0.165,0.010
757,-0.180,-0.015
758,-0.190,0.000
759,-0.200,0.010
760,-0.205,0.020
761,-0.220,0.005
762,-0.240,-0.010
763,-0.280,0.000
764,-0.305,0.010
765,-0.315,0.025
766,-0.305,0.045
767,-0.300,0.055
768,-0.290,0.045
769,-0.315,0.055
770,-0.305,0.045
771,-0.305,0.050
772,-0.305,0.030
773,-0.315,0.010
774,-0.335,-0.020
775,-0.340,-0.015
776,-0.330,0.000
777,-0.320,0.025
778,-0.305,0.035
779,-0.315,0.015
780,-0.310,0.015
781,-0.310,0.025
782,-0.290,0.045
783,-0.280,0.075
784,-0.275,0.065
785,-0.295,0.045
786,-0.305,0.025
787,-0.315,0.030
788,-0.295,0.040
789,-0.300,0.040
790,-0.275,0.010
791,-0.280,0.010
792,-0.260,0.010
793,-0.270,0.035
794,-0.255,0.040
795,-0.260,0.030
796,-0.250,0.000
797,-0.265,-0.010
798,-0.275,-0.015
799,-0.295,0.010
800,-0.275,0.025
801,-0.265,0.020
802,-0.235,0.025
803,-0.270,0.020
804,-0.290,0.010
805,-0.290,0.035
806,-0.280,0.045
807,-0.250,0.040
808,-0.210,0.040
809,-0.215,0.020
810,-0.240,0.015
811,-0.275,0.010
812,-0.285,0.010
813,-0.260,0.040
814,-0.240,0.035
815,-0.225,0.030
816,-0.250,0.015
817,-0.265,0.025
818,-0.250,0.045
819,-0.235,0.050
820,-0.230,0.045
821,-0.235,0.045
822,-0.250,0.040
823,-0.230,0.040
824,-0.230,0.055
825,-0.215,0.060
826,-0.195,0.065
827,-0.200,0.065
828,-0.210,0.040
829,-0.205,-0.010
830,-0.230,-0.045
831,-0.225,-0.040
832,-0.210,-0.045
833,-0.200,-0.020
834,-0.235,-0.010
835,-0.265,-0.015
836,-0.270,-0.005
837,-0.260,-0.020
838,-0.240,-0.020
839,-0.225,-0.020
840,-0.235,-0.030
841,-0.240,-0.015
842,-0.240,-0.020
843,-0.230,-0.025
844,-0.245,-0.050
845,-0.280,-0.055
846,-0.310,-0.060
847,-0.285,-0.050
848,-0.255,-0.010
849,-0.235,0.005
850,-0.255,0.020
851,-0.280,0.030
852,-0.285,0.020
853,-0.305,0.005
854,-0.320,0.000
855,-0.355,0.020
856,-0.360,0.025
857,-0.355,0.015
858,-0.345,0.010
859,-0.345,0.000
860,-0.355,0.025
861,-0.340,0.040
862,-0.330,0.040
863,-0.315,0.050
864,-0.330,0.030
865,-0.355,0.045
866,-0.375,0.070
867,-0.365,0.085
868,-0.345,0.045
869,-0.340,0.005
870,-0.350,-0.015
871,-0.350,-0.040
872,-0.350,-0.030
873,-0.340,-0.010
874,-0.340,-0.020
875,-0.345,-0.025
876,-0.380,-0.010
877,-0.390,0.000
878,-0.420,0.050
879,-0.450,0.085
880,-0.430,0.100
881,-0.405,0.105
882,-0.350,0.085
883,-0.265,0.090
884,-0.120,0.095
885,0.080,0.110
886,0.325,0.125
887,0.570,0.155
888,0.780,0.140
889,0.940,0.120
890,1.035,0.050
891,0.960,-0.020
892,0.770,-0.100
893,0.460,-0.125
894,0.065,-0.140
895,-0.415,-0.120
896,-0.765,-0.080
897,-0.900,-0.065
898,-0.865,-0.095
899,-0.805,-0.135
900,-0.740,-0.180
901,-0.660,-0.155
902,-0.555,-0.120
903,-0.470,-0.080
904,-0.430,-0.055
905,-0.440,-0.050
906,-0.445,-0.035
907,-0.450,-0.035
908,-0.420,-0.005
909,-0.380,0.010
910,-0.375,0.010
911,-0.390,-0.005
912,-0.395,-0.035
913,-0.410,-0.025
914,-0.420,0.020
915,-0.410,0.050
916,-0.385,0.050
917,-0.370,0.010
918,-0.355,-0.030
919,-0.385,-0.040
920,-0.400,-0.025
921,-0.405,-0.005
922,-0.380,-0.015
923,-0.375,0.010
924,-0.355,-0.005
925,-0.340,0.000
926,-0.335,0.030
927,-0.360,0.040
928,-0.370,0.045
929,-0.365,0.010
930,-0.350,-0.025
931,-0.340,-0.020
932,-0.355,-0.005
933,-0.345,0.020
934,-0.315,0.020
935,-0.295,0.020
936,-0.290,0.025
937,-0.295,0.025
938,-0.295,0.010
939,-0.285,0.000
940,-0.290,0.015
941,-0.290,0.030
942,-0.295,0.040
943,-0.280,0.060
944,-0.255,0.020
945,-0.230,-0.025
946,-0.185,-0.035
947,-0.170,-0.040
948,-0.185,-0.020
949,-0.230,-0.010
950,-0.255,-0.005
951,-0.225,0.015
952,-0.170,0.030
953,-0.150,0.045
954,-0.175,0.035
955,-0.185,0.035
956,-0.175,0.015
957,-0.145,0.025
958,-0.110,0.020
959,-0.090,0.010
960,-0.085,0.010
961,-0.090,0.030
962,-0.055,0.035
963,-0.030,0.040
964,0.005,0.010
965,-0.030,0.000
966,-0.070,-0.015
967,-0.110,0.010
968,-0.105,0.045
969,-0.080,0.095
970,-0.060,0.080
971,-0.065,0.055
972,-0.105,0.045
973,-0.100,0.050
974,-0.045,0.050
975,-0.020,0.050
976,-0.045,0.035
977,-0.080,0.035
978,-0.110,0.030
979,-0.085,0.010
980,-0.085,0.015
981,-0.130,0.025
982,-0.170,0.045
983,-0.185,0.055
984,-0.170,0.045
985,-0.150,0.030
986,-0.145,0.020
987,-0.175,-0.005
988,-0.225,-0.025
989,-0.230,-0.025
990,-0.180,-0.005
991,-0.180,0.005
992,-0.220,0.005
993,-0.315,-0.015
994,-0.355,-0.015
995,-0.350,-0.020
996,-0.335,-0.025
997,-0.325,-0.010
998,-0.290,0.005
999,-0.280,0.030
1000,-0.285,0.015
1001,-0.310,-0.015
1002,-0.345,-0.010
1003,-0.380,0.020
1004,-0.380,0.045
1005,-0.360,0.060
1006,-0.350,0.065
1007,-0.330,0.075
1008,-0.330,0.075
1009,-0.315,0.080
1010,-0.320,0.070
1011,-0.335,0.010
1012,-0.355,-0.040
1013,-0.365,-0.085
1014,-0.340,-0.095
1015,-0.330,-0.065
1016,-0.305,-0.030
1017,-0.320,-0.025
1018,-0.355,-0.035
1019,-0.390,-0.045
1020,-0.395,-0.020
1021,-0.365,0.000
1022,-0.325,0.030
1023,-0.315,0.020
1024,-0.325,0.015
1025,-0.355,-0.010
1026,-0.390,-0.015
1027,-0.395,-0.015
1028,-0.360,-0.010
1029,-0.325,-0.025
1030,-0.320,-0.025
1031,-0.335,-0.035
1032,-0.330,-0.020
1033,-0.315,0.000
1034,-0.285,0.020
1035,-0.280,0.015
1036,-0.300,0.000
1037,-0.305,-0.005
1038,-0.300,-0.010
1039,-0.290,-0.015
1040,-0.290,0.005
1041,-0.305,0.015
1042,-0.315,0.015
1043,-0.320,0.000
1044,-0.290,-0.005
1045,-0.250,0.020
1046,-0.200,0.050
1047,-0.190,0.045
1048,-0.215,0.040
1049,-0.235,0.045
1050,-0.250,0.035
1051,-0.225,0.025
1052,-0.185,0.020
1053,-0.170,0.010
1054,-0.190,-0.020
1055,-0.245,-0.025
1056,-0.250,-0.030
1057,-0.240,-0.015
1058,-0.240,-0.015
1059,-0.265,-0.025
1060,-0.310,-0.015
1061,-0.335,-0.020
1062,-0.340,-0.010
1063,-0.315,-0.010
1064,-0.310,0.015
1065,-0.295,0.015
1066,-0.300,-0.035
1067,-0.300,-0.085
1068,-0.290,-0.100
1069,-0.280,-0.085
1070,-0.295,-0.040
1071,-0.325,-0.045
1072,-0.325,-0.065
1073,-0.320,-0.055
1074,-0.300,-0.050
1075,-0.290,-0.030
1076,-0.275,-0.015
1077,-0.275,-0.015
1078,-0.300,-0.025
1079,-0.335,-0.035
1080,-0.375,-0.060
1081,-0.365,-0.050
1082,-0.365,-0.040
1083,-0.360,-0.035
1084,-0.355,-0.035
1085,-0.390,-0.040
1086,-0.405,-0.025
1087,-0.370,0.005
1088,-0.305,0.020
1089,-0.305,0.035
1090,-0.370,0.040
1091,-0.435,0.035
1092,-0.440,0.015
1093,-0.410,-0.020
1094,-0.365,-0.030
1095,-0.355,-0.025
1096,-0.370,0.000
1097,-0.390,-0.010
1098,-0.405,-0.005
1099,-0.350,-0.040
1100,-0.310,-0.050
1101,-0.295,-0.055
1102,-0.330,-0.040
1103,-0.380,-0.015
1104,-0.430,0.020
1105,-0.400,0.050
1106,-0.350,0.080
1107,-0.250,0.090
1108,-0.140,0.100
1109,0.000,0.110
1110,0.195,0.105
1111,0.440,0.140
1112,0.705,0.175
1113,0.945,0.180
1114,1.105,0.145
1115,1.110,0.045
1116,0.895,-0.055
1117,0.505,-0.105
1118,0.060,-0.120
1119,-0.405,-0.135
1120,-0.795,-0.150
1121,-0.970,-0.160
1122,-0.985,-0.140
1123,-0.935,-0.115
1124,-0.865,-0.145
1125,-0.785,-0.175
1126,-0.700,-0.160
1127,-0.635,-0.140
1128,-0.595,-0.120
1129,-0.545,-0.080
1130,-0.480,-0.060
1131,-0.420,-0.045
1132,-0.420,-0.035
1133,-0.445,0.000
1134,-0.450,0.025
1135,-0.455,0.035
1136,-0.450,0.000
1137,-0.445,-0.025
1138,-0.455,-0.040
1139,-0.450,-0.045
1140,-0.435,-0.040
1141,-0.415,-0.005
1142,-0.410,0.030
1143,-0.385,0.045
1144,-0.370,0.025
1145,-0.360,-0.025
1146,-0.375,-0.065
1147,-0.390,-0.080
1148,-0.370,-0.070
1149,-0.360,-0.075
1150,-0.345,-0.060
1151,-0.340,-0.055
1152,-0.335,-0.045
1153,-0.355,-0.020
1154,-0.380,0.010
1155,-0.405,0.015
1156,-0.420,0.005
1157,-0.395,-0.005
1158,-0.380,0.000
1159,-0.360,0.005
1160,-0.360,-0.005
1161,-0.355,0.010
1162,-0.370,0.015
1163,-0.355,0.010
1164,-0.360,-0.020
1165,-0.355,-0.055
1166,-0.370,-0.055
1167,-0.330,-0.010
1168,-0.290,-0.015
1169,-0.285,-0.025
1170,-0.280,-0.005
1171,-0.290,0.025
1172,-0.290,0.050
1173,-0.270,0.045
1174,-0.240,0.005
1175,-0.195,-0.015
1176,-0.180,-0.015
1177,-0.195,0.005
1178,-0.230,0.010
1179,-0.235,0.005
1180,-0.200,0.015
1181,-0.175,-0.010
1182,-0.150,-0.020
1183,-0.135,-0.010
1184,-0.125,0.010
1185,-0.140,0.020
1186,-0.160,0.010
1187,-0.170,-0.005
1188,-0.180,0.000
1189,-0.165,-0.005
1190,-0.135,0.005
1191,-0.100,0.000
1192,-0.105,-0.020
1193,-0.110,-0.025
1194,-0.090,-0.005
1195,-0.085,0.020
1196,-0.070,0.045
1197,-0.050,0.055
1198,-0.025,0.040
1199,-0.020,0.035
1200,-0.030,0.025
1201,-0.070,0.025
1202,-0.085,0.035
1203,-0.105,0.040
1204,-0.115,0.040
1205,-0.135,0.030
1206,-0.145,0.040
1207,-0.155,0.025
1208,-0.165,0.030
1209,-0.205,0.010
1210,-0.250,0.000
1211,-0.280,-0.010
1212,-0.270,-0.005
1213,-0.265,-0.010
1214,-0.270,0.000
1215,-0.310,0.010
1216,-0.325,0.005
1217,-0.330,0.010
1218,-0.325,-0.005
1219,-0.320,0.005
1220,-0.330,0.020
1221,-0.335,0.050
1222,-0.335,0.050
1223,-0.375,0.050
1224,-0.365,0.075
1225,-0.355,0.090
1226,-0.340,0.090
1227,-0.310,0.055
1228,-0.300,0.025
1229,-0.330,0.020
1230,-0.345,0.040
1231,-0.340,0.040
1232,-0.330,0.025
1233,-0.300,0.000
1234,-0.275,-0.010
1235,-0.300,-0.020
1236,-0.325,-0.050
1237,-0.335,-0.065
1238,-0.315,-0.060
1239,-0.285,-0.040
1240,-0.270,-0.040
1241,-0.285,-0.025
1242,-0.300,-0.025
1243,-0.295,0.000
1244,-0.285,0.010
1245,-0.280,0.000
1246,-0.275,-0.005
1247,-0.295,-0.010
1248,-0.295,-0.010
1249,-0.305,0.005
1250,-0.290,0.030
1251,-0.285,0.020
1252,-0.285,0.020
1253,-0.280,-0.005
1254,-0.280,0.000
1255,-0.295,0.015
1256,-0.305,0.040
1257,-0.300,0.040
1258,-0.290,0.020
1259,-0.290,0.020
1260,-0.315,0.030
1261,-0.295,0.025
1262,-0.270,0.050
1263,-0.250,0.060
1264,-0.255,0.045
1265,-0.270,0.030
1266,-0.270,0.045
1267,-0.260,0.070
1268,-0.225,0.115
1269,-0.215,0.125
1270,-0.205,0.140
1271,-0.190,0.110
1272,-0.195,0.080
1273,-0.205,0.045
1274,-0.185,0.010
1275,-0.170,-0.005
1276,-0.165,-0.010
1277,-0.170,-0.010
1278,-0.185,-0.025
1279,-0.185,-0.030
1280,-0.180,-0.025
1281,-0.165,0.005
1282,-0.190,0.020
1283,-0.205,0.025
1284,-0.200,0.030
1285,-0.200,0.005
1286,-0.195,-0.015
1287,-0.205,-0.020
1288,-0.245,-0.030
1289,-0.250,-0.035
1290,-0.260,-0.030
1291,-0.250,-0.020
1292,-0.245,0.015
1293,-0.235,0.020
1294,-0.235,0.010
1295,-0.230,-0.015
1296,-0.245,-0.020
1297,-0.230,-0.005
1298,-0.220,0.030
1299,-0.205,0.030
1300,-0.210,0.015
1301,-0.245,-0.010
1302,-0.270,-0.005
1303,-0.300,0.015
1304,-0.300,0.055
1305,-0.300,0.050
1306,-0.305,0.035
1307,-0.305,0.025
1308,-0.300,0.025
1309,-0.305,0.075
1310,-0.285,0.095
1311,-0.280,0.065
1312,-0.265,0.030
1313,-0.280,-0.010
1314,-0.280,-0.030
1315,-0.270,-0.025
1316,-0.260,0.000
1317,-0.265,0.010
1318,-0.275,0.020
1319,-0.280,0.020
1320,-0.290,0.020
1321,-0.280,0.025
1322,-0.270,0.030
1323,-0.255,0.025
1324,-0.270,0.005
1325,-0.295,0.010
1326,-0.335,0.035
1327,-0.350,0.085
1328,-0.335,0.130
1329,-0.270,0.170
1330,-0.170,0.160
1331,-0.025,0.115
1332,0.165,0.105
1333,0.415,0.130
1334,0.695,0.195
1335,0.965,0.210
1336,1.145,0.185
1337,1.175,0.100
1338,1.005,0.010
1339,0.685,-0.075
1340,0.255,-0.105
1341,-0.225,-0.100
1342,-0.670,-0.105
1343,-0.860,-0.100
1344,-0.845,-0.105
1345,-0.780,-0.115
1346,-0.695,-0.135
1347,-0.600,-0.130
1348,-0.500,-0.095
1349,-0.440,-0.070
1350,-0.405,-0.045
1351,-0.375,-0.015
1352,-0.360,0.025
1353,-0.320,0.055
1354,-0.305,0.055
1355,-0.310,0.050
1356,-0.325,0.050
1357,-0.310,0.035
1358,-0.295,0.005
1359,-0.290,0.010
1360,-0.295,0.025
1361,-0.310,0.050
1362,-0.305,0.045
1363,-0.300,0.005
1364,-0.295,0.000
1365,-0.275,-0.005
1366,-0.260,-0.005
1367,-0.255,-0.005
1368,-0.250,0.000
1369,-0.250,0.030
1370,-0.240,0.060
1371,-0.220,0.070
1372,-0.235,0.060
1373,-0.240,0.055
1374,-0.245,0.035
1375,-0.240,0.045
1376,-0.205,0.075
1377,-0.195,0.070
1378,-0.190,0.060
1379,-0.195,0.060
1380,-0.195,0.035
1381,-0.190,0.010
1382,-0.170,0.035
1383,-0.170,0.045
1384,-0.155,0.070
1385,-0.170,0.070
1386,-0.160,0.070
1387,-0.140,0.070
1388,-0.115,0.080
1389,-0.100,0.060
1390,-0.100,0.070
1391,-0.085,0.070
1392,-0.080,0.065
1393,-0.060,0.060
1394,-0.030,0.045
1395,-0.010,0.050
1396,-0.010,0.035
1397,-0.025,0.040
1398,-0.040,0.060
1399,-0.025,0.080
1400,0.010,0.095
1401,0.040,0.090
1402,0.060,0.075
1403,0.060,0.060
1404,0.055,0.080
1405,0.055,0.095
1406,0.065,0.090
1407,0.070,0.090
1408,0.080,0.085
1409,0.075,0.075
1410,0.075,0.080
1411,0.090,0.105
1412,0.110,0.130
1413,0.115,0.115
1414,0.120,0.130
1415,0.110,0.130
1416,0.095,0.105
1417,0.080,0.075
1418,0.070,0.070
1419,0.055,0.090
1420,0.055,0.090
1421,0.055,0.085
1422,0.045,0.075
1423,0.045,0.080
1424,0.040,0.085
1425,0.025,0.080
1426,-0.005,0.075
1427,-0.035,0.055
1428,-0.050,0.065
1429,-0.070,0.070
1430,-0.080,0.095
1431,-0.095,0.100
1432,-0.115,0.100
1433,-0.135,0.090
1434,-0.145,0.085
1435,-0.135,0.100
1436,-0.120,0.120
1437,-0.125,0.115
1438,-0.120,0.100
1439,-0.155,0.075
1440,-0.145,0.065
1441,-0.160,0.095
1442,-0.160,0.115
1443,-0.155,0.125
1444,-0.165,0.115
1445,-0.170,0.105
1446,-0.170,0.110
1447,-0.180,0.145
1448,-0.165,0.155
1449,-0.140,0.160
1450,-0.135,0.090
1451,-0.120,0.020
1452,-0.135,0.005
1453,-0.135,0.020
1454,-0.130,0.055
1455,-0.110,0.070
1456,-0.120,0.055
1457,-0.135,0.050
1458,-0.160,0.065
1459,-0.160,0.075
1460,-0.155,0.085
1461,-0.150,0.085
1462,-0.140,0.090
1463,-0.145,0.090
1464,-0.155,0.115
1465,-0.155,0.125
1466,-0.145,0.150
1467,-0.135,0.120
1468,-0.135,0.120
1469,-0.130,0.090
1470,-0.125,0.075
1471,-0.135,0.095
1472,-0.120,0.135
1473,-0.105,0.135
1474,-0.110,0.085
1475,-0.130,0.055
1476,-0.145,0.075
1477,-0.150,0.085
1478,-0.125,0.125
1479,-0.110,0.140
1480,-0.115,0.150
1481,-0.125,0.150
1482,-0.120,0.145
1483,-0.110,0.125
1484,-0.105,0.090
1485,-0.095,0.095
1486,-0.080,0.115
1487,-0.075,0.125
1488,-0.060,0.120
1489,-0.065,0.120
1490,-0.045,0.130
1491,-0.030,0.145
1492,-0.045,0.145
1493,-0.035,0.130
1494,-0.055,0.110
1495,-0.060,0.080
1496,-0.065,0.060
1497,-0.070,0.050
1498,-0.080,0.050
1499,-0.070,0.045
1500,-0.100,0.060
1501,-0.095,0.060
1502,-0.090,0.095
1503,-0.085,0.085
1504,-0.085,0.095
1505,-0.100,0.090
1506,-0.120,0.080
1507,-0.130,0.105
1508,-0.120,0.105
1509,-0.105,0.095
1510,-0.115,0.080
1511,-0.120,0.075
1512,-0.130,0.090
1513,-0.140,0.100
1514,-0.125,0.115
1515,-0.095,0.120
1516,-0.095,0.115
1517,-0.105,0.090
1518,-0.120,0.060
1519,-0.145,0.085
1520,-0.150,0.080
1521,-0.155,0.100
1522,-0.165,0.100
1523,-0.180,0.105
1524,-0.200,0.105
1525,-0.190,0.110
1526,-0.180,0.125
1527,-0.180,0.125
1528,-0.175,0.135
1529,-0.185,0.125
1530,-0.190,0.105
1531,-0.190,0.135
1532,-0.185,0.140
1533,-0.180,0.145
1534,-0.175,0.140
1535,-0.190,0.120
1536,-0.205,0.110
1537,-0.200,0.110
1538,-0.190,0.135
1539,-0.180,0.155
1540,-0.185,0.140
1541,-0.205,0.105
1542,-0.225,0.095
1543,-0.260,0.140
1544,-0.245,0.205
1545,-0.215,0.235
1546,-0.155,0.250
1547,-0.050,0.235
1548,0.095,0.230
1549,0.295,0.245
1550,0.560,0.285
1551,0.830,0.285
1552,1.090,0.255
1553,1.255,0.195
1554,1.300,0.080
1555,1.150,-0.030
1556,0.830,-0.085
1557,0.410,-0.080
1558,-0.105,-0.065
1559,-0.590,-0.060
1560,-0.830,-0.070
1561,-0.825,-0.075
1562,-0.710,-0.055
1563,-0.600,-0.050
1564,-0.495,-0.045
1565,-0.410,-0.020
1566,-0.335,0.010
1567,-0.280,0.055
1568,-0.235,0.080
1569,-0.215,0.090
1570,-0.215,0.095
1571,-0.220,0.100
1572,-0.230,0.115
1573,-0.220,0.130
1574,-0.205,0.135
1575,-0.180,0.140
1576,-0.200,0.150
1577,-0.210,0.160
1578,-0.235,0.170
1579,-0.220,0.155
1580,-0.205,0.145
1581,-0.205,0.125
1582,-0.195,0.120
1583,-0.185,0.080
1584,-0.190,0.075
1585,-0.190,0.075
1586,-0.170,0.110
1587,-0.155,0.115
1588,-0.160,0.105
1589,-0.160,0.080
1590,-0.160,0.090
1591,-0.175,0.105
1592,-0.155,0.115
1593,-0.150,0.135
1594,-0.155,0.140
1595,-0.150,0.115
1596,-0.160,0.105
1597,-0.150,0.120
1598,-0.145,0.135
1599,-0.105,0.135
1600,-0.115,0.130
1601,-0.120,0.120
1602,-0.105,0.140
1603,-0.085,0.140
1604,-0.060,0.135
1605,-0.055,0.170
1606,-0.045,0.180
1607,-0.045,0.175
1608,-0.035,0.160
1609,-0.015,0.135
1610,0.005,0.150
1611,0.030,0.155
1612,0.025,0.145
1613,0.025,0.135
1614,0.010,0.115
1615,0.045,0.160
1616,0.075,0.180
1617,0.090,0.160
1618,0.105,0.140
1619,0.085,0.120
1620,0.095,0.130
1621,0.110,0.135
1622,0.120,0.150
1623,0.145,0.150
1624,0.130,0.150
1625,0.140,0.140
1626,0.145,0.155
1627,0.135,0.175
1628,0.155,0.190
1629,0.170,0.195
1630,0.165,0.210
1631,0.145,0.215
1632,0.130,0.220
1633,0.135,0.220
1634,0.155,0.210
1635,0.155,0.190
1636,0.155,0.200
1637,0.150,0.215
1638,0.140,0.225
1639,0.150,0.180
1640,0.160,0.135
1641,0.165,0.090
1642,0.145,0.085
1643,0.110,0.100
1644,0.090,0.115
1645,0.075,0.140
1646,0.065,0.150
1647,0.065,0.160
1648,0.045,0.150
1649,0.020,0.145
1650,-0.015,0.145
1651,-0.040,0.140
1652,-0.035,0.145
1653,-0.025,0.135
1654,-0.040,0.145
1655,-0.065,0.140
1656,-0.095,0.125
1657,-0.090,0.135
1658,-0.055,0.140
1659,-0.050,0.160
1660,-0.070,0.145
1661,-0.080,0.135
1662,-0.080,0.135
1663,-0.080,0.170
1664,-0.080,0.190
1665,-0.065,0.195
1666,-0.060,0.175
1667,-0.070,0.135
1668,-0.090,0.115
1669,-0.085,0.105
1670,-0.080,0.110
1671,-0.065,0.110
1672,-0.070,0.115
1673,-0.080,0.135
1674,-0.090,0.130
1675,-0.100,0.140
1676,-0.100,0.155
1677,-0.085,0.130
1678,-0.090,0.115
1679,-0.085,0.100
1680,-0.105,0.100
1681,-0.110,0.130
1682,-0.085,0.155
1683,-0.070,0.155
1684,-0.075,0.150
1685,-0.090,0.155
1686,-0.100,0.155
1687,-0.090,0.160
1688,-0.080,0.145
1689,-0.065,0.135
1690,-0.080,0.135
1691,-0.075,0.140
1692,-0.085,0.160
1693,-0.085,0.170
1694,-0.070,0.175
1695,-0.070,0.160
1696,-0.090,0.145
1697,-0.095,0.160
1698,-0.090,0.180
1699,-0.080,0.180
1700,-0.065,0.170
1701,-0.055,0.145
1702,-0.080,0.110
1703,-0.080,0.125
1704,-0.085,0.125
1705,-0.065,0.135
1706,-0.045,0.135
1707,-0.035,0.135
1708,-0.030,0.150
1709,-0.025,0.170
1710,-0.030,0.170
1711,-0.015,0.170
1712,0.000,0.165
1713,0.015,0.185
1714,0.010,0.165
1715,0.015,0.140
1716,0.020,0.115
1717,-0.005,0.115
1718,-0.015,0.130
1719,-0.015,0.125
1720,-0.025,0.120
1721,-0.040,0.100
1722,-0.055,0.105
1723,-0.025,0.105
1724,-0.015,0.120
1725,-0.030,0.125
1726,-0.035,0.125
1727,-0.050,0.125
1728,-0.045,0.110
1729,-0.070,0.120
1730,-0.075,0.115
1731,-0.055,0.135
1732,-0.065,0.150
1733,-0.080,0.125
1734,-0.090,0.110
1735,-0.100,0.135
1736,-0.055,0.160
1737,-0.045,0.175
1738,-0.055,0.120
1739,-0.060,0.095
1740,-0.065,0.075
1741,-0.075,0.080
1742,-0.070,0.085
1743,-0.095,0.070
1744,-0.110,0.075
1745,-0.150,0.080
1746,-0.155,0.100
1747,-0.155,0.125
1748,-0.130,0.145
1749,-0.125,0.125
1750,-0.125,0.135
1751,-0.130,0.145
1752,-0.135,0.130
1753,-0.145,0.160
1754,-0.130,0.160
1755,-0.105,0.165
1756,-0.110,0.140
1757,-0.135,0.130
1758,-0.145,0.155
1759,-0.135,0.200
1760,-0.115,0.185
1761,-0.100,0.150
1762,-0.120,0.125
1763,-0.155,0.115
1764,-0.185,0.135
1765,-0.215,0.185
1766,-0.195,0.240
1767,-0.155,0.250
1768,-0.065,0.255
1769,0.075,0.275
1770,0.260,0.310
1771,0.535,0.345
1772,0.855,0.350
1773,1.165,0.285
1774,1.395,0.165
1775,1.370,0.020
1776,1.045,-0.060
1777,0.510,-0.080
1778,-0.110,-0.050
1779,-0.595,-0.055
1780,-0.765,-0.085
1781,-0.665,-0.085
1782,-0.475,-0.075
1783,-0.325,-0.035
1784,-0.245,0.015
1785,-0.200,0.065
1786,-0.170,0.085
1787,-0.170,0.090
1788,-0.165,0.125
1789,-0.170,0.145
1790,-0.170,0.160
1791,-0.155,0.130
1792,-0.150,0.130
1793,-0.160,0.140
1794,-0.165,0.125
1795,-0.160,0.130
1796,-0.155,0.145
1797,-0.125,0.155
1798,-0.120,0.150
1799,-0.125,0.120
1800,-0.150,0.145
1801,-0.165,0.160
1802,-0.135,0.165
1803,-0.125,0.140
1804,-0.115,0.100
1805,-0.125,0.085
1806,-0.135,0.095
1807,-0.140,0.120
1808,-0.125,0.140
1809,-0.120,0.140
1810,-0.125,0.125
1811,-0.130,0.110
1812,-0.130,0.130
1813,-0.120,0.145
1814,-0.110,0.165
1815,-0.080,0.165
1816,-0.080,0.160
1817,-0.080,0.150
1818,-0.075,0.155
1819,-0.065,0.150
1820,-0.065,0.155
1821,-0.040,0.150
1822,-0.040,0.165
1823,-0.040,0.150
1824,-0.040,0.140
1825,-0.030,0.175
1826,0.005,0.205
1827,0.035,0.220
1828,0.035,0.200
1829,0.050,0.160
1830,0.045,0.155
1831,0.065,0.155
1832,0.095,0.145
1833,0.105,0.150
1834,0.105,0.160
1835,0.105,0.155
1836,0.105,0.160
1837,0.115,0.160
1838,0.145,0.160
1839,0.155,0.165
1840,0.160,0.160
1841,0.155,0.155
1842,0.140,0.155
1843,0.140,0.185
1844,0.150,0.215
1845,0.180,0.210
1846,0.185,0.190
1847,0.180,0.160
1848,0.160,0.170
1849,0.165,0.175
1850,0.185,0.205
1851,0.200,0.220
1852,0.195,0.195
1853,0.190,0.185
1854,0.180,0.175
1855,0.165,0.190
1856,0.160,0.200
1857,0.160,0.185
1858,0.155,0.150
1859,0.125,0.130
1860,0.115,0.125
1861,0.110,0.165
1862,0.115,0.165
1863,0.105,0.165
1864,0.070,0.160
1865,0.040,0.165
1866,0.025,0.165
1867,0.005,0.175
1868,0.000,0.175
1869,-0.005,0.165
1870,-0.010,0.155
1871,-0.050,0.145
1872,-0.050,0.140
1873,-0.055,0.150
1874,-0.050,0.155
1875,-0.060,0.165
1876,-0.065,0.170
1877,-0.090,0.145
1878,-0.090,0.135
1879,-0.080,0.140
1880,-0.065,0.150
1881,-0.070,0.150
1882,-0.065,0.155
1883,-0.090,0.145
1884,-0.105,0.145
1885,-0.115,0.165
1886,-0.100,0.180
1887,-0.090,0.170
1888,-0.095,0.150
1889,-0.110,0.120
1890,-0.115,0.120
1891,-0.115,0.130
1892,-0.105,0.125
1893,-0.095,0.130
1894,-0.090,0.125
1895,-0.095,0.110
1896,-0.105,0.105
1897,-0.110,0.100
1898,-0.105,0.125
1899,-0.100,0.130
1900,-0.100,0.135
1901,-0.110,0.125
1902,-0.125,0.115
1903,-0.125,0.115
1904,-0.125,0.125
1905,-0.105,0.130
1906,-0.110,0.145
1907,-0.130,0.145
1908,-0.145,0.135
1909,-0.135,0.135
1910,-0.130,0.140
1911,-0.120,0.165
1912,-0.125,0.160
1913,-0.140,0.175
1914,-0.140,0.185
1915,-0.125,0.205
1916,-0.100,0.180
1917,-0.100,0.155
1918,-0.115,0.140
1919,-0.115,0.155
1920,-0.110,0.135
1921,-0.110,0.120
1922,-0.100,0.120
1923,-0.080,0.110
1924,-0.085,0.120
1925,-0.090,0.110
1926,-0.085,0.105
1927,-0.075,0.125
1928,-0.060,0.140
1929,-0.050,0.160
1930,-0.040,0.165
1931,-0.050,0.165
1932,-0.065,0.145
1933,-0.050,0.140
1934,-0.030,0.140
1935,-0.015,0.140
1936,-0.015,0.140
1937,-0.040,0.135
1938,-0.045,0.120
1939,-0.045,0.115
1940,-0.050,0.125
1941,-0.040,0.130
1942,-0.060,0.115
1943,-0.055,0.105
1944,-0.070,0.100
1945,-0.070,0.100
1946,-0.055,0.095
1947,-0.055,0.075
1948,-0.060,0.070
1949,-0.090,0.060
1950,-0.110,0.060
1951,-0.115,0.070
1952,-0.115,0.105
1953,-0.105,0.125
1954,-0.095,0.135
1955,-0.110,0.125
1956,-0.115,0.110
1957,-0.095,0.085
1958,-0.065,0.080
1959,-0.060,0.065
1960,-0.075,0.065
1961,-0.100,0.080
1962,-0.115,0.075
1963,-0.145,0.100
1964,-0.155,0.115
1965,-0.160,0.120
1966,-0.165,0.120
1967,-0.190,0.100
1968,-0.200,0.125
1969,-0.185,0.140
1970,-0.185,0.170
1971,-0.160,0.180
1972,-0.170,0.145
1973,-0.175,0.110
1974,-0.175,0.110
1975,-0.200,0.115
1976,-0.170,0.135
1977,-0.165,0.130
1978,-0.170,0.125
1979,-0.170,0.105
1980,-0.180,0.100
1981,-0.190,0.120
1982,-0.165,0.145
1983,-0.160,0.145
1984,-0.180,0.130
1985,-0.195,0.125
1986,-0.205,0.115
1987,-0.220,0.120
1988,-0.255,0.135
1989,-0.280,0.180
1990,-0.270,0.215
1991,-0.245,0.215
1992,-0.185,0.225
1993,-0.060,0.245
1994,0.120,0.280
1995,0.345,0.295
1996,0.580,0.315
1997,0.830,0.300
1998,1.075,0.250
1999,1.235,0.195
2000,1.285,0.105
2001,1.150,0.010
2002,0.880,-0.075
2003,0.515,-0.105
2004,0.120,-0.100
2005,-0.320,-0.090
2006,-0.680,-0.100
2007,-0.810,-0.110
2008,-0.760,-0.110
2009,-0.655,-0.105
2010,-0.565,-0.095
2011,-0.485,-0.045
2012,-0.395,0.025
2013,-0.325,0.050
2014,-0.285,0.060
2015,-0.265,0.055
2016,-0.240,0.085
2017,-0.215,0.115
2018,-0.200,0.150
2019,-0.215,0.150
2020,-0.225,0.140
2021,-0.235,0.115
2022,-0.235,0.125
2023,-0.245,0.120
2024,-0.240,0.145
2025,-0.215,0.125
2026,-0.215,0.100
2027,-0.225,0.060
2028,-0.225,0.060
2029,-0.230,0.090
2030,-0.215,0.115
2031,-0.195,0.130
2032,-0.210,0.115
2033,-0.210,0.100
2034,-0.210,0.100
2035,-0.215,0.110
2036,-0.200,0.135
2037,-0.180,0.140
2038,-0.190,0.125
2039,-0.200,0.110
2040,-0.205,0.110
2041,-0.210,0.120
2042,-0.190,0.125
2043,-0.165,0.130
2044,-0.160,0.110
2045,-0.175,0.110
2046,-0.190,0.115
2047,-0.165,0.130
2048,-0.145,0.130
2049,-0.130,0.160
2050,-0.125,0.135
2051,-0.145,0.110
2052,-0.150,0.100
2053,-0.140,0.125
2054,-0.120,0.135
2055,-0.100,0.150
2056,-0.100,0.140
2057,-0.100,0.130
2058,-0.105,0.150
2059,-0.100,0.175
2060,-0.080,0.215
2061,-0.060,0.245
2062,-0.050,0.225
2063,-0.050,0.190
2064,-0.030,0.180
2065,-0.015,0.170
2066,0.005,0.170
2067,-0.010,0.170
2068,0.020,0.170
2069,0.020,0.155
2070,0.025,0.165
2071,0.045,0.165
2072,0.075,0.160
2073,0.090,0.150
2074,0.100,0.135
2075,0.095,0.120
2076,0.090,0.130
2077,0.095,0.145
2078,0.110,0.160
2079,0.115,0.165
2080,0.115,0.150
2081,0.115,0.145
2082,0.100,0.170
2083,0.115,0.165
2084,0.125,0.170
2085,0.145,0.155
2086,0.125,0.150
2087,0.115,0.135
2088,0.105,0.145
2089,0.095,0.160
2090,0.100,0.175
2091,0.110,0.185
2092,0.100,0.180
2093,0.090,0.170
2094,0.075,0.185
2095,0.065,0.205
2096,0.045,0.210
2097,0.045,0.215
2098,0.025,0.195
2099,0.010,0.165
2100,-0.020,0.145
2101,-0.030,0.155
2102,-0.040,0.155
2103,-0.050,0.180
2104,-0.070,0.180
2105,-0.085,0.175
2106,-0.090,0.155
2107,-0.095,0.135
2108,-0.100,0.120
2109,-0.090,0.115
2110,-0.130,0.120
2111,-0.150,0.120
2112,-0.140,0.115
2113,-0.140,0.130
2114,-0.125,0.135
2115,-0.135,0.135
2116,-0.155,0.115
2117,-0.155,0.105
2118,-0.165,0.115
2119,-0.160,0.130
2120,-0.160,0.165
2121,-0.150,0.175
2122,-0.170,0.155
2123,-0.165,0.150
2124,-0.180,0.145
2125,-0.175,0.170
2126,-0.175,0.170
2127,-0.135,0.140
2128,-0.140,0.100
2129,-0.165,0.080
2130,-0.175,0.085
2131,-0.185,0.105
2132,-0.160,0.110
2133,-0.165,0.120
2134,-0.155,0.140
2135,-0.175,0.130
2136,-0.200,0.135
2137,-0.190,0.140
2138,-0.175,0.155
2139,-0.160,0.155
2140,-0.155,0.130
2141,-0.155,0.105
2142,-0.165,0.105
2143,-0.165,0.095
2144,-0.160,0.120
2145,-0.160,0.125
2146,-0.150,0.125
2147,-0.170,0.110
2148,-0.170,0.100
2149,-0.165,0.115
2150,-0.170,0.125
2151,-0.170,0.130
2152,-0.165,0.110
2153,-0.175,0.105
2154,-0.165,0.110
2155,-0.160,0.125
2156,-0.150,0.130
2157,-0.140,0.120
2158,-0.130,0.100
2159,-0.145,0.095
2160,-0.165,0.100
2161,-0.155,0.115
2162,-0.135,0.120
2163,-0.140,0.115
2164,-0.130,0.110
2165,-0.135,0.110
2166,-0.130,0.120
2167,-0.120,0.130
2168,-0.105,0.135
2169,-0.115,0.160
2170,-0.115,0.165
2171,-0.120,0.165
2172,-0.115,0.165
2173,-0.100,0.175
2174,-0.090,0.180
2175,-0.085,0.160
2176,-0.100,0.120
2177,-0.115,0.085
2178,-0.120,0.075
2179,-0.120,0.080
2180,-0.100,0.115
2181,-0.100,0.145
2182,-0.110,0.135
2183,-0.130,0.130
2184,-0.135,0.125
2185,-0.135,0.070
2186,-0.120,0.035
2187,-0.120,0.025
2188,-0.140,0.020
2189,-0.155,0.000
2190,-0.165,0.010
2191,-0.170,0.025
2192,-0.155,0.040
2193,-0.155,0.060
2194,-0.160,0.065
2195,-0.155,0.045
2196,-0.155,0.055
2197,-0.160,0.080
2198,-0.150,0.095
2199,-0.160,0.095
2200,-0.185,0.085
2201,-0.220,0.085
2202,-0.240,0.080
2203,-0.240,0.100
2204,-0.235,0.105
2205,-0.225,0.120
2206,-0.230,0.125
2207,-0.235,0.120
2208,-0.245,0.120
2209,-0.245,0.130
2210,-0.220,0.160
2211,-0.210,0.150
2212,-0.215,0.135
2213,-0.230,0.100
2214,-0.255,0.100
2215,-0.250,0.135
2216,-0.255,0.175
2217,-0.235,0.180
2218,-0.230,0.150
2219,-0.255,0.120
2220,-0.240,0.105
2221,-0.235,0.100
2222,-0.230,0.100
2223,-0.240,0.090
2224,-0.255,0.105
2225,-0.285,0.125
2226,-0.320,0.170
2227,-0.325,0.225
2228,-0.285,0.260
2229,-0.200,0.275
2230,-0.105,0.260
2231,0.025,0.220
2232,0.195,0.205
2233,0.445,0.205
2234,0.710,0.245
2235,0.970,0.240
2236,1.145,0.185
2237,1.215,0.110
2238,1.095,0.005
2239,0.815,-0.090
2240,0.450,-0.110
2241,0.045,-0.105
2242,-0.400,-0.115
2243,-0.765,-0.130
2244,-0.900,-0.145
2245,-0.835,-0.120
2246,-0.720,-0.105
2247,-0.615,-0.065
2248,-0.515,-0.055
2249,-0.420,-0.045
2250,-0.375,-0.025
2251,-0.350,0.015
2252,-0.310,0.060
2253,-0.295,0.090
2254,-0.270,0.095
2255,-0.280,0.115
2256,-0.290,0.130
2257,-0.295,0.140
2258,-0.265,0.135
2259,-0.250,0.105
2260,-0.250,0.090
2261,-0.250,0.075
2262,-0.260,0.080
2263,-0.260,0.120
2264,-0.245,0.140
2265,-0.245,0.135
2266,-0.260,0.130
2267,-0.250,0.105
2268,-0.265,0.100
2269,-0.255,0.100
2270,-0.255,0.095
2271,-0.250,0.105
2272,-0.255,0.115
2273,-0.245,0.115
2274,-0.225,0.115
2275,-0.210,0.115
2276,-0.215,0.115
2277,-0.195,0.110
2278,-0.200,0.115
2279,-0.200,0.105
2280,-0.200,0.105
2281,-0.200,0.120
2282,-0.190,0.135
2283,-0.185,0.130
2284,-0.195,0.145
2285,-0.190,0.165
2286,-0.185,0.185
2287,-0.165,0.175
2288,-0.165,0.210
2289,-0.155,0.180
2290,-0.135,0.155
2291,-0.125,0.125
2292,-0.115,0.110
2293,-0.095,0.100
2294,-0.080,0.120
2295,-0.070,0.125
2296,-0.065,0.125
2297,-0.065,0.120
2298,-0.075,0.135
2299,-0.060,0.165
2300,-0.030,0.180
2301,-0.020,0.200
2302,-0.015,0.210
2303,-0.005,0.185
2304,0.000,0.160
2305,0.015,0.165
2306,0.025,0.155
2307,0.040,0.175
2308,0.040,0.185
2309,0.045,0.185
2310,0.055,0.175
2311,0.065,0.160
2312,0.075,0.140
2313,0.095,0.130
2314,0.085,0.135
2315,0.075,0.125
2316,0.060,0.155
2317,0.070,0.170
2318,0.090,0.195
2319,0.090,0.165
2320,0.100,0.155
2321,0.080,0.150
2322,0.065,0.160
2323,0.075,0.180
2324,0.075,0.190
2325,0.095,0.180
2326,0.055,0.155
2327,0.040,0.145
2328,0.045,0.150
2329,0.040,0.160
2330,0.045,0.175
2331,0.035,0.170
2332,0.010,0.160
2333,-0.015,0.140
2334,-0.030,0.150
2335,-0.040,0.155
2336,-0.040,0.160
2337,-0.040,0.150
2338,-0.065,0.135
2339,-0.100,0.120
2340,-0.120,0.115
2341,-0.110,0.120
2342,-0.115,0.120
2343,-0.135,0.110
2344,-0.135,0.105
2345,-0.155,0.095
2346,-0.170,0.125
2347,-0.180,0.145
2348,-0.160,0.155
2349,-0.170,0.135
2350,-0.180,0.135
2351,-0.185,0.125
2352,-0.205,0.135
2353,-0.195,0.135
2354,-0.175,0.160
2355,-0.175,0.150
2356,-0.170,0.155
2357,-0.190,0.130
2358,-0.190,0.145
2359,-0.200,0.165
2360,-0.190,0.170
2361,-0.180,0.140
2362,-0.170,0.095
2363,-0.175,0.065
2364,-0.185,0.070
2365,-0.185,0.075
2366,-0.160,0.095
2367,-0.155,0.075
2368,-0.180,0.075
2369,-0.210,0.075
2370,-0.235,0.100
2371,-0.210,0.110
2372,-0.200,0.115
2373,-0.180,0.115
2374,-0.200,0.115
2375,-0.205,0.110
2376,-0.215,0.140
2377,-0.210,0.125
2378,-0.180,0.115
2379,-0.170,0.130
2380,-0.180,0.090
2381,-0.205,0.080
2382,-0.205,0.095
2383,-0.190,0.105
2384,-0.200,0.130
2385,-0.190,0.140
2386,-0.200,0.150
2387,-0.195,0.130
2388,-0.210,0.130
2389,-0.220,0.135
2390,-0.195,0.150
2391,-0.195,0.165
2392,-0.195,0.155
2393,-0.205,0.135
2394,-0.235,0.115
2395,-0.220,0.105
2396,-0.195,0.105
2397,-0.180,0.095
2398,-0.175,0.085
2399,-0.190,0.080
2400,-0.200,0.065
2401,-0.195,0.075
2402,-0.185,0.100
2403,-0.175,0.110
2404,-0.165,0.140
2405,-0.160,0.155
2406,-0.155,0.165
2407,-0.175,0.175
2408,-0.150,0.170
2409,-0.140,0.150
2410,-0.155,0.115
2411,-0.145,0.105
2412,-0.165,0.115
2413,-0.135,0.095
2414,-0.130,0.090
2415,-0.120,0.055
2416,-0.135,0.030
2417,-0.155,0.035
2418,-0.165,0.040
2419,-0.165,0.065
2420,-0.150,0.055
2421,-0.170,0.050
2422,-0.165,0.040
2423,-0.175,0.035
2424,-0.195,0.055
2425,-0.195,0.060
2426,-0.195,0.045
2427,-0.205,0.015
2428,-0.195,-0.005
2429,-0.205,-0.005
2430,-0.210,0.000
2431,-0.215,0.000
2432,-0.215,0.035
2433,-0.195,0.035
2434,-0.195,0.080
2435,-0.215,0.085
2436,-0.225,0.100
2437,-0.245,0.120
2438,-0.225,0.140
2439,-0.235,0.145
2440,-0.250,0.125
2441,-0.275,0.090
2442,-0.300,0.075
2443,-0.300,0.075
2444,-0.280,0.085
2445,-0.265,0.085
2446,-0.275,0.090
2447,-0.285,0.085
2448,-0.295,0.085
2449,-0.295,0.100
2450,-0.275,0.120
2451,-0.265,0.110
2452,-0.265,0.110
2453,-0.285,0.105
2454,-0.305,0.090
2455,-0.290,0.070
2456,-0.285,0.075
2457,-0.270,0.070
2458,-0.265,0.085
2459,-0.285,0.065
2460,-0.285,0.065
2461,-0.275,0.075
2462,-0.260,0.085
2463,-0.270,0.085
2464,-0.295,0.100
2465,-0.330,0.110
2466,-0.370,0.145
2467,-0.370,0.190
2468,-0.330,0.210
2469,-0.265,0.210
2470,-0.180,0.215
2471,-0.040,0.205
2472,0.120,0.205
2473,0.350,0.220
2474,0.610,0.230
2475,0.825,0.220
2476,1.025,0.160
2477,1.105,0.075
2478,1.015,-0.010
2479,0.790,-0.105
2480,0.485,-0.145
2481,0.115,-0.145
2482,-0.335,-0.125
2483,-0.750,-0.130
2484,-0.940,-0.145
2485,-0.905,-0.155
2486,-0.800,-0.145
2487,-0.680,-0.135
2488,-0.570,-0.110
2489,-0.475,-0.080
2490,-0.435,-0.045
2491,-0.385,0.000
2492,-0.350,0.030
2493,-0.320,0.035
2494,-0.305,0.030
2495,-0.315,0.045
2496,-0.335,0.035
2497,-0.330,0.055
2498,-0.320,0.075
2499,-0.320,0.070
2500,-0.320,0.065
2501,-0.330,0.070
2502,-0.325,0.075
2503,-0.320,0.090
2504,-0.315,0.105
2505,-0.305,0.100
2506,-0.285,0.115
2507,-0.290,0.120
2508,-0.300,0.110
2509,-0.315,0.110
2510,-0.315,0.105
2511,-0.290,0.120
2512,-0.270,0.105
2513,-0.265,0.075
2514,-0.270,0.060
2515,-0.260,0.070
2516,-0.250,0.065
2517,-0.245,0.090
2518,-0.235,0.090
2519,-0.250,0.085
2520,-0.250,0.095
2521,-0.255,0.075
2522,-0.240,0.085
2523,-0.225,0.090
2524,-0.230,0.110
2525,-0.220,0.115
2526,-0.240,0.105
2527,-0.235,0.095
2528,-0.215,0.080
2529,-0.200,0.065
2530,-0.205,0.055
2531,-0.185,0.045
2532,-0.180,0.060
2533,-0.165,0.060
2534,-0.140,0.070
2535,-0.135,0.095
2536,-0.145,0.095
2537,-0.145,0.095
2538,-0.135,0.095
2539,-0.110,0.095
2540,-0.080,0.100
2541,-0.065,0.115
2542,-0.060,0.125
2543,-0.045,0.125
2544,-0.040,0.115
2545,-0.035,0.120
2546,-0.020,0.145
2547,0.000,0.130
2548,-0.005,0.120
2549,0.005,0.080
2550,0.000,0.065
2551,-0.005,0.095
2552,0.005,0.105
2553,0.030,0.115
2554,0.050,0.105
2555,0.045,0.090
2556,0.040,0.105
2557,0.040,0.120
2558,0.060,0.155
2559,0.050,0.170
2560,0.035,0.180
2561,0.035,0.160
2562,0.035,0.125
2563,0.060,0.105
2564,0.070,0.090
2565,0.075,0.090
2566,0.055,0.100
2567,0.050,0.115
2568,0.035,0.120
2569,0.020,0.115
2570,0.020,0.115
2571,0.020,0.105
2572,-0.005,0.105
2573,-0.025,0.115
2574,-0.045,0.100
2575,-0.095,0.095
2576,-0.120,0.105
2577,-0.115,0.110
2578,-0.130,0.120
2579,-0.140,0.090
2580,-0.160,0.075
2581,-0.190,0.055
2582,-0.200,0.060
2583,-0.200,0.070
2584,-0.205,0.070
2585,-0.215,0.100
2586,-0.220,0.105
2587,-0.240,0.120
2588,-0.225,0.105
2589,-0.225,0.090
2590,-0.230,0.075
2591,-0.255,0.075
2592,-0.250,0.075
2593,-0.250,0.085
2594,-0.260,0.095
2595,-0.255,0.095
2596,-0.245,0.090
2597,-0.240,0.085
2598,-0.270,0.100
2599,-0.255,0.135
2600,-0.245,0.145
2601,-0.235,0.130
2602,-0.230,0.090
2603,-0.240,0.075
2604,-0.260,0.085
2605,-0.275,0.070
2606,-0.270,0.055
2607,-0.265,0.050
2608,-0.240,0.020
2609,-0.260,0.015
2610,-0.275,0.015
2611,-0.265,0.035
2612,-0.260,0.060
2613,-0.260,0.075
2614,-0.270,0.075
2615,-0.250,0.080
2616,-0.250,0.090
2617,-0.245,0.090
2618,-0.260,0.110
2619,-0.250,0.105
2620,-0.260,0.085
2621,-0.280,0.055
2622,-0.275,0.050
2623,-0.275,0.060
2624,-0.275,0.065
2625,-0.250,0.070
2626,-0.255,0.070
2627,-0.260,0.085
2628,-0.265,0.095
2629,-0.250,0.105
2630,-0.235,0.090
2631,-0.215,0.075
2632,-0.225,0.040
2633,-0.235,0.020
2634,-0.250,0.025
2635,-0.240,0.045
2636,-0.215,0.090
2637,-0.190,0.095
2638,-0.175,0.085
2639,-0.190,0.090
2640,-0.200,0.100
2641,-0.195,0.110
2642,-0.170,0.105
2643,-0.160,0.095
2644,-0.170,0.085
2645,-0.170,0.095
2646,-0.180,0.095
2647,-0.170,0.110
2648,-0.175,0.100
2649,-0.165,0.075
2650,-0.160,0.050
2651,-0.175,0.030
2652,-0.190,0.020
2653,-0.195,0.020
2654,-0.195,0.035
2655,-0.175,0.035
2656,-0.195,0.025
2657,-0.195,0.010
2658,-0.220,0.005
2659,-0.225,0.010
2660,-0.225,0.035
2661,-0.210,0.045
2662,-0.205,0.025
2663,-0.215,0.000
2664,-0.225,0.005
2665,-0.220,0.025
2666,-0.215,0.050
2667,-0.190,0.045
2668,-0.200,0.045
2669,-0.215,0.040
2670,-0.250,0.045
2671,-0.275,0.070
2672,-0.285,0.075
2673,-0.300,0.065
2674,-0.280,0.060
2675,-0.295,0.060
2676,-0.295,0.060
2677,-0.295,0.085
2678,-0.290,0.105
2679,-0.275,0.100
2680,-0.285,0.070
2681,-0.295,0.055
2682,-0.300,0.070
2683,-0.305,0.080
2684,-0.285,0.080
2685,-0.270,0.040
2686,-0.270,0.045
2687,-0.300,0.045
2688,-0.305,0.035
2689,-0.300,0.055
2690,-0.285,0.080
2691,-0.270,0.095
2692,-0.280,0.080
2693,-0.290,0.070
2694,-0.320,0.070
2695,-0.355,0.095
2696,-0.365,0.130
2697,-0.340,0.160
2698,-0.305,0.155
2699,-0.250,0.150
2700,-0.155,0.150
2701,0.020,0.175
2702,0.255,0.190
2703,0.490,0.215
2704,0.765,0.220
2705,0.975,0.190
2706,1.035,0.130
2707,0.920,0.045
2708,0.670,-0.050
2709,0.330,-0.110
2710,-0.100,-0.130
2711,-0.565,-0.135
2712,-0.840,-0.125
2713,-0.875,-0.105
2714,-0.815,-0.080
2715,-0.740,-0.090
2716,-0.650,-0.085
2717,-0.570,-0.085
2718,-0.485,-0.075
2719,-0.435,-0.030
2720,-0.385,0.025
2721,-0.375,0.055
2722,-0.340,0.065
2723,-0.330,0.060
2724,-0.315,0.055
2725,-0.300,0.055
2726,-0.300,0.055
2727,-0.305,0.055
2728,-0.310,0.050
2729,-0.295,0.055
2730,-0.300,0.055
2731,-0.315,0.060
2732,-0.305,0.055
2733,-0.290,0.060
2734,-0.285,0.070
2735,-0.295,0.090
2736,-0.300,0.110
2737,-0.290,0.095
2738,-0.265,0.070
2739,-0.250,0.045
2740,-0.240,0.020
2741,-0.250,0.020
2742,-0.255,0.035
2743,-0.250,0.050
2744,-0.240,0.065
2745,-0.225,0.075
2746,-0.230,0.075
2747,-0.220,0.075
2748,-0.220,0.095
2749,-0.215,0.130
2750,-0.205,0.135
2751,-0.195,0.120
2752,-0.185,0.095
2753,-0.175,0.070
2754,-0.185,0.045
2755,-0.180,0.050
2756,-0.155,0.050
2757,-0.140,0.070
2758,-0.155,0.070
2759,-0.145,0.065
2760,-0.125,0.060
2761,-0.120,0.055
2762,-0.120,0.065
2763,-0.105,0.070
2764,-0.100,0.100
2765,-0.095,0.100
2766,-0.100,0.125
2767,-0.095,0.120
2768,-0.070,0.130
2769,-0.035,0.110
2770,-0.035,0.095
2771,-0.035,0.085
2772,-0.025,0.070
2773,-0.020,0.055
2774,0.015,0.075
2775,0.035,0.070
2776,0.040,0.070
2777,0.045,0.065
2778,0.025,0.090
2779,0.040,0.105
2780,0.065,0.125
2781,0.055,0.125
2782,0.065,0.125
2783,0.055,0.125
2784,0.045,0.115
2785,0.070,0.130
2786,0.080,0.130
2787,0.075,0.135
2788,0.070,0.145
2789,0.070,0.165
2790,0.065,0.165
2791,0.070,0.155
2792,0.065,0.130
2793,0.065,0.105
2794,0.065,0.100
2795,0.050,0.105
2796,0.040,0.090
2797,0.045,0.085
2798,0.040,0.100
2799,0.030,0.095
2800,0.025,0.115
2801,0.000,0.130
2802,-0.025,0.125
2803,-0.030,0.130
2804,-0.030,0.145
2805,-0.040,0.120
2806,-0.050,0.110
2807,-0.085,0.080
2808,-0.095,0.055
2809,-0.105,0.065
2810,-0.110,0.090
2811,-0.115,0.090
2812,-0.115,0.080
2813,-0.140,0.080
2814,-0.165,0.085
2815,-0.160,0.120
2816,-0.150,0.140
2817,-0.150,0.145
2818,-0.165,0.110
2819,-0.170,0.070
2820,-0.175,0.080
2821,-0.175,0.090
2822,-0.155,0.110
2823,-0.150,0.120
2824,-0.155,0.120
2825,-0.165,0.075
2826,-0.180,0.060
2827,-0.185,0.085
2828,-0.180,0.100
2829,-0.160,0.100
2830,-0.160,0.095
2831,-0.165,0.075
2832,-0.175,0.065
2833,-0.175,0.075
2834,-0.155,0.095
2835,-0.140,0.105
2836,-0.145,0.110
2837,-0.150,0.095
2838,-0.155,0.100
2839,-0.155,0.105
2840,-0.160,0.110
2841,-0.150,0.110
2842,-0.140,0.100
2843,-0.160,0.095
2844,-0.175,0.115
2845,-0.155,0.130
2846,-0.140,0.145
2847,-0.125,0.135
2848,-0.110,0.105
2849,-0.135,0.080
2850,-0.150,0.090
2851,-0.150,0.095
2852,-0.140,0.120
2853,-0.135,0.135
2854,-0.120,0.120
2855,-0.125,0.090
2856,-0.130,0.085
2857,-0.140,0.100
2858,-0.130,0.100
2859,-0.130,0.085
2860,-0.120,0.075
2861,-0.140,0.095
2862,-0.135,0.075
2863,-0.135,0.085
2864,-0.115,0.115
2865,-0.100,0.120
2866,-0.075,0.120
2867,-0.080,0.085
2868,-0.080,0.095
2869,-0.080,0.115
2870,-0.075,0.140
2871,-0.070,0.160
2872,-0.075,0.135
2873,-0.065,0.110
2874,-0.070,0.110
2875,-0.065,0.115
2876,-0.055,0.125
2877,-0.055,0.120
2878,-0.065,0.110
2879,-0.080,0.095
2880,-0.095,0.100
2881,-0.090,0.100
2882,-0.080,0.095
2883,-0.075,0.090
2884,-0.065,0.080
2885,-0.080,0.085
2886,-0.095,0.090
2887,-0.095,0.095
2888,-0.090,0.085
2889,-0.100,0.055
2890,-0.100,0.030
2891,-0.130,0.030
2892,-0.130,0.040
2893,-0.135,0.065
2894,-0.115,0.090
2895,-0.095,0.105
2896,-0.075,0.110
2897,-0.070,0.100
2898,-0.085,0.070
2899,-0.105,0.050
2900,-0.125,0.065
2901,-0.145,0.085
2902,-0.160,0.085
2903,-0.180,0.095
2904,-0.185,0.115
2905,-0.195,0.135
2906,-0.165,0.165
2907,-0.160,0.155
2908,-0.160,0.140
2909,-0.180,0.110
2910,-0.175,0.090
2911,-0.175,0.120
2912,-0.175,0.115
2913,-0.160,0.120
2914,-0.165,0.115
2915,-0.180,0.105
2916,-0.200,0.105
2917,-0.195,0.120
2918,-0.180,0.145
2919,-0.170,0.125
2920,-0.165,0.120
2921,-0.185,0.120
2922,-0.200,0.140
2923,-0.215,0.165
2924,-0.225,0.190
2925,-0.225,0.205
2926,-0.210,0.235
2927,-0.155,0.260
2928,-0.045,0.260
2929,0.135,0.250
2930,0.335,0.260
2931,0.595,0.280
2932,0.870,0.295
2933,1.120,0.300
2934,1.310,0.250
2935,1.355,0.165
2936,1.195,0.050
2937,0.835,-0.040
2938,0.365,-0.090
2939,-0.175,-0.090
2940,-0.630,-0.090
2941,-0.800,-0.095
2942,-0.730,-0.110
2943,-0.595,-0.110
2944,-0.465,-0.080
2945,-0.380,-0.045
2946,-0.335,0.000
2947,-0.290,0.035
2948,-0.240,0.085
2949,-0.220,0.095
2950,-0.220,0.120
2951,-0.230,0.130
2952,-0.245,0.155
2953,-0.225,0.155
2954,-0.220,0.150
2955,-0.210,0.130
2956,-0.195,0.110
2957,-0.205,0.095
2958,-0.215,0.100
2959,-0.225,0.125
2960,-0.215,0.130
2961,-0.200,0.140
2962,-0.200,0.150
2963,-0.205,0.150
2964,-0.205,0.155
2965,-0.210,0.155
2966,-0.200,0.135
2967,-0.175,0.140
2968,-0.170,0.140
2969,-0.175,0.140
2970,-0.165,0.120
2971,-0.155,0.100
2972,-0.135,0.080
2973,-0.130,0.095
2974,-0.140,0.105
2975,-0.150,0.105
2976,-0.140,0.105
2977,-0.140,0.115
2978,-0.130,0.135
2979,-0.120,0.135
2980,-0.115,0.155
2981,-0.110,0.140
2982,-0.110,0.145
2983,-0.095,0.160
2984,-0.095,0.185
2985,-0.085,0.195
2986,-0.075,0.185
2987,-0.080,0.165
2988,-0.070,0.145
2989,-0.065,0.140
2990,-0.055,0.155
2991,-0.035,0.165
2992,-0.010,0.175
2993,-0.005,0.170
2994,-0.005,0.175
2995,0.005,0.190
2996,0.030,0.190
2997,0.060,0.175
2998,0.065,0.165
2999,0.055,0.170
3000,0.045,0.175
3001,0.050,0.200
3002,0.085,0.195
3003,0.100,0.175
3004,0.110,0.155
3005,0.105,0.140
3006,0.100,0.155
3007,0.105,0.155
3008,0.105,0.180
3009,0.110,0.205
3010,0.115,0.215
3011,0.115,0.195
3012,0.115,0.200
3013,0.115,0.210
3014,0.120,0.205
3015,0.135,0.195
3016,0.140,0.200
3017,0.135,0.190
3018,0.120,0.165
3019,0.105,0.145
3020,0.120,0.150
3021,0.115,0.165
3022,0.120,0.175
3023,0.075,0.175
3024,0.055,0.180
3025,0.045,0.200
3026,0.055,0.195
3027,0.060,0.195
3028,0.035,0.175
3029,0.000,0.160
3030,-0.035,0.155
3031,-0.055,0.170
3032,-0.035,0.185
3033,-0.040,0.175
3034,-0.045,0.170
3035,-0.065,0.150
3036,-0.090,0.135
3037,-0.095,0.130
3038,-0.105,0.135
3039,-0.080,0.150
3040,-0.095,0.160
3041,-0.120,0.155
3042,-0.135,0.135
3043,-0.130,0.155
3044,-0.115,0.170
3045,-0.115,0.155
3046,-0.115,0.140
3047,-0.120,0.130
3048,-0.140,0.130
3049,-0.140,0.135
3050,-0.120,0.135
3051,-0.120,0.130
3052,-0.130,0.135
3053,-0.130,0.135
3054,-0.135,0.150
3055,-0.150,0.165
3056,-0.135,0.185
3057,-0.135,0.185
3058,-0.130,0.160
3059,-0.135,0.155
3060,-0.140,0.155
3061,-0.150,0.155
3062,-0.145,0.155
3063,-0.140,0.160
3064,-0.140,0.155
3065,-0.150,0.130
3066,-0.150,0.125
3067,-0.165,0.135
3068,-0.150,0.165
3069,-0.140,0.165
3070,-0.145,0.160
3071,-0.135,0.160
3072,-0.160,0.165
3073,-0.170,0.175
3074,-0.140,0.180
3075,-0.155,0.165
3076,-0.125,0.155
3077,-0.135,0.120
3078,-0.155,0.120
3079,-0.165,0.130
3080,-0.145,0.140
3081,-0.125,0.125
3082,-0.140,0.120
3083,-0.150,0.120
3084,-0.155,0.110
3085,-0.160,0.140
3086,-0.150,0.190
3087,-0.145,0.225
3088,-0.140,0.220
3089,-0.135,0.200
3090,-0.135,0.120
3091,-0.125,0.080
3092,-0.135,0.075
3093,-0.120,0.110
3094,-0.125,0.130
3095,-0.110,0.140
3096,-0.110,0.155
3097,-0.100,0.190
3098,-0.090,0.195
3099,-0.080,0.210
3100,-0.075,0.205
3101,-0.070,0.195
3102,-0.070,0.195
3103,-0.075,0.160
3104,-0.055,0.165
3105,-0.055,0.150
3106,-0.070,0.130
3107,-0.080,0.120
3108,-0.080,0.120
3109,-0.070,0.125
3110,-0.070,0.125
3111,-0.070,0.105
3112,-0.090,0.090
3113,-0.100,0.075
3114,-0.110,0.070
3115,-0.110,0.070
3116,-0.140,0.085
3117,-0.130,0.090
3118,-0.135,0.115
3119,-0.155,0.100
3120,-0.145,0.090
3121,-0.140,0.085
3122,-0.135,0.075
3123,-0.135,0.070
3124,-0.125,0.080
3125,-0.145,0.060
3126,-0.135,0.080
3127,-0.140,0.100
3128,-0.130,0.125
3129,-0.140,0.140
3130,-0.165,0.140
3131,-0.185,0.135
3132,-0.205,0.145
3133,-0.220,0.170
3134,-0.220,0.175
3135,-0.200,0.155
3136,-0.210,0.130
3137,-0.215,0.125
3138,-0.230,0.115
3139,-0.210,0.125
3140,-0.210,0.120
3141,-0.210,0.145
3142,-0.205,0.150
3143,-0.205,0.140
3144,-0.205,0.140
3145,-0.210,0.110
3146,-0.200,0.115
3147,-0.200,0.120
3148,-0.195,0.130
3149,-0.215,0.135
3150,-0.240,0.150
3151,-0.215,0.145
3152,-0.215,0.145
3153,-0.230,0.135
3154,-0.270,0.155
3155,-0.290,0.175
3156,-0.280,0.210
3157,-0.240,0.240
3158,-0.125,0.275
3159,0.015,0.280
3160,0.185,0.255
3161,0.385,0.265
3162,0.630,0.290
3163,0.890,0.275
3164,1.135,0.255
3165,1.235,0.175
3166,1.145,0.040
3167,0.845,-0.070
3168,0.465,-0.105
3169,0.050,-0.095
3170,-0.395,-0.085
3171,-0.725,-0.100
3172,-0.825,-0.115
3173,-0.770,-0.130
3174,-0.680,-0.115
3175,-0.570,-0.055
3176,-0.460,0.000
3177,-0.380,0.045
3178,-0.320,0.045
3179,-0.285,0.040
3180,-0.265,0.045
3181,-0.255,0.070
3182,-0.240,0.105
3183,-0.230,0.130
3184,-0.220,0.135
3185,-0.230,0.120
3186,-0.245,0.125
3187,-0.245,0.115
3188,-0.240,0.115
3189,-0.245,0.125
3190,-0.245,0.130
3191,-0.230,0.130
3192,-0.230,0.135
3193,-0.215,0.135
3194,-0.210,0.135
3195,-0.215,0.135
3196,-0.215,0.140
3197,-0.225,0.150
3198,-0.225,0.125
3199,-0.215,0.125
3200,-0.195,0.145
3201,-0.195,0.160
3202,-0.195,0.160
3203,-0.205,0.145
3204,-0.200,0.140
3205,-0.190,0.165
3206,-0.180,0.170
3207,-0.160,0.155
3208,-0.155,0.100
3209,-0.170,0.075
3210,-0.155,0.095
3211,-0.160,0.125
3212,-0.155,0.155
3213,-0.140,0.180
3214,-0.120,0.175
3215,-0.135,0.140
3216,-0.120,0.130
3217,-0.110,0.140
3218,-0.105,0.175
3219,-0.085,0.205
3220,-0.090,0.170
3221,-0.070,0.145
3222,-0.065,0.130
3223,-0.050,0.160
3224,-0.035,0.180
3225,-0.005,0.205
3226,-0.005,0.200
3227,-0.010,0.190
3228,-0.010,0.185
3229,0.015,0.170
3230,0.030,0.165
3231,0.050,0.180
3232,0.070,0.190
3233,0.065,0.205
3234,0.060,0.205
3235,0.065,0.210
3236,0.090,0.210
3237,0.095,0.180
3238,0.100,0.165
3239,0.100,0.160
3240,0.080,0.190
3241,0.095,0.200
3242,0.115,0.215
3243,0.120,0.240
3244,0.125,0.235
3245,0.120,0.210
3246,0.105,0.215
3247,0.105,0.220
3248,0.120,0.215
3249,0.110,0.205
3250,0.125,0.200
3251,0.090,0.180
3252,0.090,0.165
3253,0.085,0.160
3254,0.075,0.165
3255,0.085,0.190
3256,0.065,0.190
3257,0.045,0.195
3258,0.010,0.190
3259,-0.005,0.190
3260,-0.015,0.200
3261,-0.020,0.180
3262,-0.045,0.160
3263,-0.055,0.150
3264,-0.090,0.155
3265,-0.090,0.170
3266,-0.100,0.190
3267,-0.085,0.195
3268,-0.100,0.175
3269,-0.130,0.150
3270,-0.145,0.140
3271,-0.155,0.155
3272,-0.150,0.185
3273,-0.135,0.190
3274,-0.130,0.170
3275,-0.140,0.145
3276,-0.150,0.140
3277,-0.155,0.165
3278,-0.155,0.180
3279,-0.140,0.165
3280,-0.135,0.135
3281,-0.150,0.130
3282,-0.165,0.135
3283,-0.170,0.135
3284,-0.155,0.150
3285,-0.150,0.150
3286,-0.150,0.140
3287,-0.165,0.165
3288,-0.165,0.155
3289,-0.155,0.170
3290,-0.150,0.165
3291,-0.145,0.145
3292,-0.150,0.115
3293,-0.170,0.110
3294,-0.170,0.120
3295,-0.180,0.150
3296,-0.165,0.150
3297,-0.155,0.145
3298,-0.150,0.145
3299,-0.165,0.135
3300,-0.165,0.150
3301,-0.175,0.145
3302,-0.165,0.140
3303,-0.145,0.150
3304,-0.155,0.155
3305,-0.165,0.145
3306,-0.170,0.140
3307,-0.160,0.155
3308,-0.145,0.165
3309,-0.150,0.180
3310,-0.140,0.150
3311,-0.150,0.130
3312,-0.170,0.125
3313,-0.165,0.135
3314,-0.155,0.140
3315,-0.130,0.180
3316,-0.145,0.170
3317,-0.145,0.175
3318,-0.140,0.110
3319,-0.145,0.055
3320,-0.115,0.065
3321,-0.100,0.100
3322,-0.090,0.155
3323,-0.095,0.165
3324,-0.105,0.175
3325,-0.110,0.170
3326,-0.090,0.185
3327,-0.070,0.185
3328,-0.060,0.170
3329,-0.055,0.145
3330,-0.075,0.115
3331,-0.075,0.115
3332,-0.075,0.120
3333,-0.080,0.125
3334,-0.065,0.105
3335,-0.075,0.090
3336,-0.080,0.070
3337,-0.085,0.090
3338,-0.075,0.105
3339,-0.090,0.090
3340,-0.110,0.085
3341,-0.125,0.090
3342,-0.120,0.110
3343,-0.135,0.115
3344,-0.135,0.125
3345,-0.130,0.135
3346,-0.130,0.110
3347,-0.145,0.070
3348,-0.160,0.055
3349,-0.160,0.065
3350,-0.135,0.075
3351,-0.120,0.105
3352,-0.125,0.125
3353,-0.150,0.150
3354,-0.180,0.160
3355,-0.180,0.160
3356,-0.185,0.145
3357,-0.190,0.110
3358,-0.205,0.095
3359,-0.220,0.110
3360,-0.220,0.130
3361,-0.220,0.140
3362,-0.210,0.170
3363,-0.205,0.170
3364,-0.200,0.120
3365,-0.220,0.095
3366,-0.220,0.080
3367,-0.205,0.095
3368,-0.205,0.110
3369,-0.210,0.130
3370,-0.200,0.140
3371,-0.205,0.140
3372,-0.210,0.135
3373,-0.200,0.135
3374,-0.190,0.130
3375,-0.205,0.150
3376,-0.215,0.175
3377,-0.230,0.180
3378,-0.255,0.195
3379,-0.290,0.220
3380,-0.290,0.245
3381,-0.260,0.245
3382,-0.190,0.240
3383,-0.095,0.220
3384,0.045,0.240
3385,0.225,0.275
3386,0.465,0.300
3387,0.725,0.310
3388,0.985,0.260
3389,1.155,0.200
3390,1.180,0.100
3391,0.995,0.005
3392,0.690,-0.050
3393,0.310,-0.075
3394,-0.135,-0.080
3395,-0.595,-0.100
3396,-0.855,-0.140
3397,-0.850,-0.145
3398,-0.725,-0.130
3399,-0.575,-0.090
3400,-0.475,-0.075
3401,-0.380,-0.040
3402,-0.340,0.025
3403,-0.310,0.075
3404,-0.260,0.130
3405,-0.225,0.135
3406,-0.220,0.105
3407,-0.235,0.115
3408,-0.240,0.120
3409,-0.230,0.105
3410,-0.220,0.120
3411,-0.220,0.130
3412,-0.235,0.150
3413,-0.245,0.145
3414,-0.240,0.125
3415,-0.235,0.105
3416,-0.230,0.115
3417,-0.210,0.140
3418,-0.200,0.150
3419,-0.210,0.125
3420,-0.225,0.115
3421,-0.225,0.120
3422,-0.210,0.145
3423,-0.195,0.140
3424,-0.200,0.135
3425,-0.210,0.125
3426,-0.200,0.105
3427,-0.205,0.115
3428,-0.185,0.145
3429,-0.180,0.150
3430,-0.170,0.155
3431,-0.170,0.135
3432,-0.175,0.135
3433,-0.170,0.140
3434,-0.160,0.160
3435,-0.145,0.180
3436,-0.140,0.175
3437,-0.145,0.175
3438,-0.140,0.180
3439,-0.135,0.180
3440,-0.110,0.175
3441,-0.085,0.160
3442,-0.070,0.135
3443,-0.080,0.115
3444,-0.065,0.125
3445,-0.055,0.140
3446,-0.035,0.160
3447,-0.025,0.155
3448,-0.025,0.155
3449,-0.035,0.135
3450,-0.005,0.140
3451,0.000,0.150
3452,0.015,0.180
3453,0.035,0.180
3454,0.030,0.185
3455,0.050,0.170
3456,0.035,0.165
3457,0.050,0.180
3458,0.060,0.190
3459,0.080,0.175
3460,0.075,0.165
3461,0.080,0.160
3462,0.075,0.175
3463,0.065,0.190
3464,0.095,0.215
3465,0.110,0.215
3466,0.120,0.210
3467,0.115,0.190
3468,0.100,0.190
3469,0.100,0.195
3470,0.110,0.215
3471,0.125,0.220
3472,0.130,0.205
3473,0.120,0.190
3474,0.105,0.165
3475,0.110,0.150
3476,0.120,0.145
3477,0.115,0.160
3478,0.095,0.170
3479,0.085,0.155
3480,0.055,0.155
3481,0.040,0.165
3482,0.040,0.190
3483,0.045,0.175
3484,0.025,0.180
3485,0.005,0.170
3486,-0.010,0.170
3487,-0.040,0.170
3488,-0.040,0.195
3489,-0.045,0.180
3490,-0.045,0.175
3491,-0.070,0.150
3492,-0.090,0.135
3493,-0.105,0.155
3494,-0.095,0.165
3495,-0.090,0.170
3496,-0.100,0.150
3497,-0.125,0.125
3498,-0.145,0.130
3499,-0.145,0.140
3500,-0.145,0.155
3501,-0.120,0.160
3502,-0.120,0.140
3503,-0.155,0.110
3504,-0.170,0.125
3505,-0.175,0.145
3506,-0.170,0.175
3507,-0.155,0.195
3508,-0.155,0.185
3509,-0.150,0.160
3510,-0.150,0.145
3511,-0.175,0.140
3512,-0.155,0.125
3513,-0.140,0.130
3514,-0.135,0.120
3515,-0.140,0.115
3516,-0.145,0.100
3517,-0.150,0.120
3518,-0.150,0.125
3519,-0.135,0.130
3520,-0.130,0.135
3521,-0.150,0.145
3522,-0.150,0.135
3523,-0.155,0.135
3524,-0.150,0.110
3525,-0.140,0.120
3526,-0.125,0.135
3527,-0.135,0.120
3528,-0.140,0.115
3529,-0.155,0.105
3530,-0.155,0.120
3531,-0.150,0.130
3532,-0.140,0.125
3533,-0.160,0.100
3534,-0.165,0.100
3535,-0.160,0.095
3536,-0.150,0.115
3537,-0.135,0.130
3538,-0.145,0.110
3539,-0.155,0.115
3540,-0.165,0.110
3541,-0.160,0.105
3542,-0.150,0.125
3543,-0.145,0.150
3544,-0.155,0.135
3545,-0.150,0.110
3546,-0.180,0.105
3547,-0.180,0.110
3548,-0.155,0.130
3549,-0.140,0.145
3550,-0.115,0.165
3551,-0.115,0.140
3552,-0.115,0.140
3553,-0.095,0.165
3554,-0.090,0.180
3555,-0.090,0.155
3556,-0.075,0.135
3557,-0.075,0.150
3558,-0.080,0.155
3559,-0.065,0.150
3560,-0.050,0.130
3561,-0.055,0.115
3562,-0.065,0.080
3563,-0.070,0.075
3564,-0.090,0.075
3565,-0.100,0.070
3566,-0.090,0.090
3567,-0.055,0.080
3568,-0.075,0.065
3569,-0.105,0.060
3570,-0.115,0.065
3571,-0.135,0.080
3572,-0.130,0.085
3573,-0.135,0.075
3574,-0.125,0.040
3575,-0.140,0.010
3576,-0.140,0.010
3577,-0.150,0.040
3578,-0.160,0.060
3579,-0.135,0.095
3580,-0.120,0.100
3581,-0.130,0.105
3582,-0.150,0.115
3583,-0.160,0.140
3584,-0.175,0.145
3585,-0.180,0.125
3586,-0.190,0.110
3587,-0.215,0.090
3588,-0.235,0.090
3589,-0.235,0.115
3590,-0.215,0.120
3591,-0.210,0.155
3592,-0.220,0.170
3593,-0.235,0.205
3594,-0.245,0.195
3595,-0.240,0.165
3596,-0.220,0.120
3597,-0.215,0.100
3598,-0.215,0.095
3599,-0.215,0.115
3600,-0.220,0.105
3601,-0.225,0.095
3602,-0.225,0.080
3603,-0.200,0.085
3604,-0.200,0.095
3605,-0.225,0.095
3606,-0.250,0.095
3607,-0.265,0.125
3608,-0.280,0.165
3609,-0.285,0.205
3610,-0.270,0.220
3611,-0.250,0.220
3612,-0.190,0.220
3613,-0.075,0.215
3614,0.085,0.235
3615,0.300,0.265
3616,0.565,0.275
3617,0.820,0.265
3618,1.040,0.215
3619,1.145,0.155
3620,1.070,0.050
3621,0.800,-0.065
3622,0.425,-0.135
3623,-0.020,-0.140
3624,-0.495,-0.110
3625,-0.820,-0.105
3626,-0.890,-0.100
3627,-0.775,-0.090
3628,-0.645,-0.080
3629,-0.535,-0.060
3630,-0.425,-0.040
3631,-0.345,-0.020
3632,-0.300,-0.025
3633,-0.255,0.000
3634,-0.240,0.045
3635,-0.235,0.070
3636,-0.245,0.090
3637,-0.245,0.090
3638,-0.235,0.090
3639,-0.230,0.085
3640,-0.230,0.100
3641,-0.230,0.105
3642,-0.235,0.110
3643,-0.235,0.105
3644,-0.225,0.115
3645,-0.220,0.130
3646,-0.210,0.130
3647,-0.220,0.130
3648,-0.220,0.115
3649,-0.210,0.120
3650,-0.190,0.130
3651,-0.180,0.125
3652,-0.175,0.130
3653,-0.185,0.140
3654,-0.195,0.135
3655,-0.195,0.160
3656,-0.175,0.190
3657,-0.160,0.205
3658,-0.165,0.240
3659,-0.165,0.240
3660,-0.165,0.230
3661,-0.155,0.185
3662,-0.135,0.125
3663,-0.135,0.095
3664,-0.140,0.060
3665,-0.150,0.045
3666,-0.150,0.070
3667,-0.150,0.100
3668,-0.130,0.115
3669,-0.105,0.110
3670,-0.115,0.115
3671,-0.105,0.125
3672,-0.115,0.120
3673,-0.085,0.130
3674,-0.055,0.135
3675,-0.035,0.130
3676,-0.015,0.105
3677,-0.035,0.120
3678,-0.030,0.130
3679,-0.025,0.150
3680,0.000,0.170
3681,0.010,0.190
3682,0.030,0.195
3683,0.030,0.185
3684,0.035,0.175
3685,0.045,0.175
3686,0.035,0.195
3687,0.065,0.210
3688,0.080,0.210
3689,0.075,0.225
3690,0.085,0.215
3691,0.090,0.210
3692,0.105,0.190
3693,0.115,0.180
3694,0.095,0.150
3695,0.120,0.125
3696,0.105,0.100
3697,0.100,0.095
3698,0.105,0.130
3699,0.105,0.145
3700,0.100,0.150
3701,0.095,0.135
3702,0.100,0.150
3703,0.085,0.150
3704,0.085,0.165
3705,0.085,0.170
3706,0.080,0.175
3707,0.055,0.175
3708,0.045,0.165
3709,0.025,0.160
3710,0.020,0.160
3711,0.010,0.165
3712,0.000,0.160
3713,-0.010,0.155
3714,-0.030,0.155
3715,-0.040,0.175
3716,-0.070,0.190
3717,-0.070,0.210
3718,-0.090,0.185
3719,-0.095,0.115
3720,-0.115,0.085
3721,-0.110,0.100
3722,-0.105,0.130
3723,-0.110,0.130
3724,-0.120,0.115
3725,-0.135,0.080
3726,-0.155,0.060
3727,-0.160,0.095
3728,-0.155,0.115
3729,-0.165,0.115
3730,-0.165,0.105
3731,-0.185,0.100
3732,-0.200,0.100
3733,-0.205,0.120
3734,-0.190,0.135
3735,-0.175,0.140
3736,-0.175,0.120
3737,-0.200,0.090
3738,-0.210,0.095
3739,-0.205,0.110
3740,-0.185,0.140
3741,-0.155,0.140
3742,-0.145,0.145
3743,-0.160,0.130
3744,-0.180,0.145
3745,-0.175,0.165
3746,-0.175,0.175
3747,-0.160,0.170
3748,-0.155,0.145
3749,-0.180,0.100
3750,-0.185,0.070
3751,-0.165,0.085
3752,-0.145,0.080
3753,-0.130,0.070
3754,-0.135,0.090
3755,-0.175,0.100
3756,-0.180,0.085
3757,-0.190,0.090
3758,-0.165,0.095
3759,-0.145,0.095
3760,-0.150,0.080
3761,-0.145,0.075
3762,-0.175,0.065
3763,-0.180,0.100
3764,-0.175,0.130
3765,-0.160,0.140
3766,-0.140,0.135
3767,-0.145,0.095
3768,-0.165,0.085
3769,-0.175,0.110
3770,-0.175,0.125
3771,-0.160,0.115
3772,-0.170,0.115
3773,-0.185,0.105
3774,-0.185,0.110
3775,-0.165,0.135
3776,-0.125,0.185
3777,-0.115,0.215
3778,-0.110,0.205
3779,-0.120,0.145
3780,-0.115,0.100
3781,-0.120,0.105
3782,-0.115,0.120
3783,-0.090,0.130
3784,-0.090,0.100
3785,-0.095,0.090
3786,-0.105,0.075
3787,-0.105,0.060
3788,-0.095,0.045
3789,-0.095,0.040
3790,-0.105,0.040
3791,-0.120,0.040
3792,-0.135,0.040
3793,-0.135,0.070
3794,-0.125,0.080
3795,-0.115,0.070
3796,-0.135,0.055
3797,-0.175,0.055
3798,-0.210,0.055
3799,-0.205,0.075
3800,-0.165,0.055
3801,-0.130,0.065
3802,-0.140,0.060
3803,-0.170,0.070
3804,-0.200,0.085
3805,-0.185,0.090
3806,-0.160,0.100
3807,-0.145,0.085
3808,-0.155,0.075
3809,-0.185,0.055
3810,-0.215,0.065
3811,-0.230,0.095
3812,-0.230,0.120
3813,-0.220,0.115
3814,-0.230,0.100
3815,-0.240,0.060
3816,-0.230,0.035
3817,-0.230,0.040
3818,-0.215,0.055
3819,-0.230,0.070
3820,-0.230,0.080
3821,-0.245,0.075
3822,-0.260,0.065
3823,-0.255,0.080
3824,-0.240,0.115
3825,-0.230,0.130
3826,-0.225,0.125
3827,-0.220,0.115
3828,-0.215,0.120
3829,-0.235,0.110
3830,-0.235,0.120
3831,-0.255,0.115
3832,-0.275,0.100
3833,-0.275,0.100
3834,-0.305,0.105
3835,-0.330,0.150
3836,-0.300,0.190
3837,-0.245,0.225
3838,-0.175,0.225
3839,-0.055,0.235
3840,0.090,0.215
3841,0.305,0.240
3842,0.570,0.255
3843,0.835,0.275
3844,1.030,0.255
3845,1.130,0.180
3846,1.035,0.100
3847,0.830,0.010
3848,0.550,-0.075
3849,0.215,-0.095
3850,-0.245,-0.090
3851,-0.670,-0.085
3852,-0.860,-0.060
3853,-0.830,-0.040
3854,-0.750,-0.040
3855,-0.675,-0.060
3856,-0.595,-0.065
3857,-0.500,-0.055
3858,-0.430,-0.025
3859,-0.375,0.010
3860,-0.330,0.030
3861,-0.290,0.045
3862,-0.295,0.050
3863,-0.285,0.070
3864,-0.280,0.050
3865,-0.260,0.060
3866,-0.260,0.085
3867,-0.245,0.090
3868,-0.260,0.105
3869,-0.275,0.110
3870,-0.290,0.105
3871,-0.295,0.115
3872,-0.290,0.125
3873,-0.245,0.150
3874,-0.235,0.135
3875,-0.235,0.115
3876,-0.235,0.105
3877,-0.250,0.095
3878,-0.255,0.090
3879,-0.260,0.110
3880,-0.255,0.115
3881,-0.245,0.095
3882,-0.235,0.075
3883,-0.230,0.075
3884,-0.215,0.105
3885,-0.200,0.115
3886,-0.210,0.130
3887,-0.220,0.100
3888,-0.215,0.080
3889,-0.195,0.070
3890,-0.185,0.070
3891,-0.175,0.080
3892,-0.170,0.075
3893,-0.180,0.060
3894,-0.165,0.060
3895,-0.160,0.090
3896,-0.140,0.110
3897,-0.110,0.125
3898,-0.095,0.135
3899,-0.105,0.115
3900,-0.095,0.105
3901,-0.100,0.100
3902,-0.080,0.100
3903,-0.040,0.120
3904,-0.040,0.115
3905,-0.045,0.130
3906,-0.040,0.115
3907,-0.020,0.150
3908,-0.015,0.145
3909,0.010,0.150
3910,0.015,0.155
3911,0.015,0.160
3912,0.010,0.150
3913,0.015,0.130
3914,0.040,0.135
3915,0.060,0.135
3916,0.065,0.175
3917,0.050,0.190
3918,0.035,0.170
3919,0.050,0.130
3920,0.070,0.100
3921,0.085,0.090
3922,0.065,0.085
3923,0.050,0.100
3924,0.040,0.115
3925,0.055,0.150
3926,0.065,0.150
3927,0.085,0.155
3928,0.070,0.120
3929,0.065,0.095
3930,0.050,0.110
3931,0.040,0.165
3932,0.040,0.180
3933,0.045,0.175
3934,0.040,0.135
3935,0.010,0.115
3936,-0.015,0.115
3937,-0.030,0.130
3938,-0.040,0.165
3939,-0.045,0.170
3940,-0.070,0.160
3941,-0.090,0.155
3942,-0.105,0.150
3943,-0.140,0.155
3944,-0.155,0.140
3945,-0.160,0.120
3946,-0.160,0.115
3947,-0.180,0.095
3948,-0.200,0.090
3949,-0.205,0.130
3950,-0.200,0.150
3951,-0.205,0.165
3952,-0.215,0.145
3953,-0.205,0.140
3954,-0.220,0.105
3955,-0.230,0.105
3956,-0.225,0.120
3957,-0.210,0.145
3958,-0.205,0.165
3959,-0.225,0.175
3960,-0.225,0.175
3961,-0.210,0.150
3962,-0.195,0.125
3963,-0.190,0.125
3964,-0.210,0.140
3965,-0.215,0.130
3966,-0.225,0.115
3967,-0.220,0.120
3968,-0.210,0.135
3969,-0.185,0.140
3970,-0.195,0.150
3971,-0.205,0.145
3972,-0.220,0.140
3973,-0.210,0.145
3974,-0.180,0.145
3975,-0.165,0.120
3976,-0.175,0.110
3977,-0.180,0.095
3978,-0.185,0.090
3979,-0.185,0.105
3980,-0.185,0.125
3981,-0.185,0.155
3982,-0.190,0.160
3983,-0.195,0.160
3984,-0.200,0.155
3985,-0.195,0.185
3986,-0.180,0.195
3987,-0.160,0.180
3988,-0.150,0.145
3989,-0.160,0.120
3990,-0.175,0.115
3991,-0.180,0.120
3992,-0.165,0.110
3993,-0.155,0.125
3994,-0.135,0.155
3995,-0.130,0.150
3996,-0.145,0.145
3997,-0.150,0.150
3998,-0.135,0.180
3999,-0.125,0.185
4000,-0.125,0.180
4001,-0.145,0.155
4002,-0.160,0.125
4003,-0.155,0.125
4004,-0.145,0.125
4005,-0.145,0.110
4006,-0.150,0.090
4007,-0.175,0.085
4008,-0.180,0.115
4009,-0.180,0.125
4010,-0.165,0.130
4011,-0.155,0.125
4012,-0.165,0.105
4013,-0.195,0.065
4014,-0.215,0.045
4015,-0.225,0.070
4016,-0.230,0.080
4017,-0.205,0.110
4018,-0.205,0.105
4019,-0.225,0.105
4020,-0.220,0.100
4021,-0.215,0.110
4022,-0.200,0.115
4023,-0.200,0.125
4024,-0.205,0.120
4025,-0.230,0.115
4026,-0.245,0.115
4027,-0.270,0.130
4028,-0.270,0.135
4029,-0.255,0.130
4030,-0.260,0.135
4031,-0.280,0.150
4032,-0.295,0.165
4033,-0.280,0.175
4034,-0.260,0.170
4035,-0.260,0.175
4036,-0.270,0.165
4037,-0.285,0.165
4038,-0.275,0.150
4039,-0.265,0.165
4040,-0.250,0.155
4041,-0.230,0.150
4042,-0.235,0.125
4043,-0.275,0.140
4044,-0.270,0.155
4045,-0.270,0.175
4046,-0.265,0.185
4047,-0.250,0.220
4048,-0.255,0.220
4049,-0.300,0.210
4050,-0.330,0.165
4051,-0.360,0.160
4052,-0.335,0.190
4053,-0.265,0.225
4054,-0.185,0.255
4055,-0.055,0.260
4056,0.105,0.280
4057,0.335,0.300
4058,0.620,0.325
4059,0.890,0.320
4060,1.095,0.280
4061,1.160,0.200
4062,1.030,0.085
4063,0.745,0.005
4064,0.370,-0.010
4065,-0.060,0.025
4066,-0.540,0.020
4067,-0.855,-0.020
4068,-0.925,-0.065
4069,-0.855,-0.070
4070,-0.740,-0.050
4071,-0.630,0.000
4072,-0.525,0.025
4073,-0.435,0.070
4074,-0.370,0.100
4075,-0.335,0.105
4076,-0.295,0.085
4077,-0.270,0.090
4078,-0.255,0.120
4079,-0.260,0.125
4080,-0.260,0.115
4081,-0.260,0.110
4082,-0.250,0.130
4083,-0.240,0.145
4084,-0.245,0.140
4085,-0.260,0.130
4086,-0.260,0.140
4087,-0.260,0.145
4088,-0.240,0.160
4089,-0.240,0.180
4090,-0.245,0.185
4091,-0.245,0.175
4092,-0.245,0.165
4093,-0.245,0.180
4094,-0.235,0.200
4095,-0.235,0.205
4096,-0.230,0.210
4097,-0.230,0.195
4098,-0.220,0.165
4099,-0.205,0.185
4100,-0.190,0.205
4101,-0.175,0.200
4102,-0.180,0.190
4103,-0.185,0.175
4104,-0.190,0.160
4105,-0.185,0.175
4106,-0.165,0.185
4107,-0.160,0.185
4108,-0.155,0.195
4109,-0.155,0.200
4110,-0.140,0.210
4111,-0.145,0.205
4112,-0.140,0.205
4113,-0.110,0.215
4114,-0.095,0.215
4115,-0.095,0.200
4116,-0.075,0.195
4117,-0.060,0.190
4118,-0.035,0.185
4119,-0.030,0.205
4120,-0.020,0.215
4121,-0.015,0.210
4122,-0.005,0.205
4123,0.015,0.195
4124,0.020,0.220
4125,0.025,0.225
4126,0.025,0.235
4127,0.035,0.220
4128,0.030,0.220
4129,0.040,0.240
4130,0.060,0.245
4131,0.080,0.240
4132,0.070,0.230
4133,0.065,0.205
4134,0.055,0.215
4135,0.060,0.240
4136,0.080,0.235
4137,0.105,0.235
4138,0.110,0.225
4139,0.090,0.215
4140,0.090,0.225
4141,0.085,0.230
4142,0.100,0.250
4143,0.100,0.275
4144,0.085,0.255
4145,0.075,0.245
4146,0.075,0.250
4147,0.065,0.250
4148,0.080,0.260
4149,0.095,0.250
4150,0.075,0.210
4151,0.055,0.195
4152,0.045,0.175
4153,0.015,0.200
4154,0.010,0.225
4155,-0.010,0.255
4156,-0.030,0.235
4157,-0.050,0.215
4158,-0.070,0.200
4159,-0.095,0.200
4160,-0.080,0.225
4161,-0.080,0.235
4162,-0.090,0.250
4163,-0.095,0.230
4164,-0.100,0.205
4165,-0.130,0.200
4166,-0.130,0.220
4167,-0.125,0.225
4168,-0.140,0.230
4169,-0.140,0.215
4170,-0.150,0.200
4171,-0.160,0.215
4172,-0.160,0.215
4173,-0.155,0.200
4174,-0.140,0.195
4175,-0.160,0.205
4176,-0.175,0.220
4177,-0.180,0.235
4178,-0.165,0.235
4179,-0.145,0.210
4180,-0.150,0.195
4181,-0.170,0.190
4182,-0.170,0.205
4183,-0.165,0.235
4184,-0.140,0.225
4185,-0.145,0.240
4186,-0.145,0.225
4187,-0.150,0.200
4188,-0.150,0.185
4189,-0.160,0.190
4190,-0.145,0.205
4191,-0.135,0.215
4192,-0.140,0.235
4193,-0.155,0.220
4194,-0.155,0.220
4195,-0.160,0.210
4196,-0.160,0.220
4197,-0.125,0.220
4198,-0.135,0.200
4199,-0.145,0.170
4200,-0.150,0.175
4201,-0.150,0.185
4202,-0.150,0.215
4203,-0.140,0.240
4204,-0.150,0.235
4205,-0.150,0.230
4206,-0.155,0.220
4207,-0.170,0.230
4208,-0.140,0.245
4209,-0.125,0.215
4210,-0.130,0.200
4211,-0.155,0.190
4212,-0.170,0.185
4213,-0.160,0.205
4214,-0.140,0.215
4215,-0.135,0.205
4216,-0.140,0.200
4217,-0.155,0.195
4218,-0.165,0.195
4219,-0.160,0.200
4220,-0.120,0.240
4221,-0.100,0.235
4222,-0.085,0.225
4223,-0.085,0.205
4224,-0.085,0.225
4225,-0.100,0.250
4226,-0.105,0.285
4227,-0.080,0.310
4228,-0.080,0.300
4229,-0.060,0.250
4230,-0.065,0.185
4231,-0.060,0.155
4232,-0.055,0.165
4233,-0.040,0.170
4234,-0.065,0.190
4235,-0.070,0.210
4236,-0.075,0.215
4237,-0.080,0.205
4238,-0.065,0.165
4239,-0.065,0.150
4240,-0.070,0.150
4241,-0.095,0.135
4242,-0.105,0.135
4243,-0.115,0.130
4244,-0.125,0.150
4245,-0.125,0.155
4246,-0.120,0.140
4247,-0.110,0.135
4248,-0.125,0.140
4249,-0.140,0.155
4250,-0.115,0.175
4251,-0.105,0.180
4252,-0.105,0.180
4253,-0.120,0.195
4254,-0.145,0.205
4255,-0.150,0.220
4256,-0.150,0.230
4257,-0.150,0.225
4258,-0.160,0.215
4259,-0.195,0.205
4260,-0.190,0.200
4261,-0.205,0.200
4262,-0.185,0.195
4263,-0.195,0.195
4264,-0.195,0.195
4265,-0.220,0.195
4266,-0.205,0.210
4267,-0.220,0.215
4268,-0.200,0.225
4269,-0.170,0.215
4270,-0.180,0.215
4271,-0.180,0.200
4272,-0.195,0.175
4273,-0.215,0.180
4274,-0.195,0.180
4275,-0.200,0.195
4276,-0.195,0.185
4277,-0.215,0.185
4278,-0.220,0.175
4279,-0.225,0.205
4280,-0.225,0.210
4281,-0.220,0.225
4282,-0.245,0.205
4283,-0.275,0.225
4284,-0.260,0.265
4285,-0.215,0.295
4286,-0.095,0.325
4287,0.065,0.340
4288,0.250,0.355
4289,0.490,0.365
4290,0.725,0.390
4291,0.990,0.395
4292,1.235,0.380
4293,1.330,0.315
4294,1.225,0.175
4295,0.925,0.045
4296,0.545,-0.040
4297,0.110,-0.045
4298,-0.350,-0.010
4299,-0.700,-0.010
4300,-0.850,-0.035
4301,-0.825,-0.060
4302,-0.705,-0.075
4303,-0.595,-0.050
4304,-0.470,0.000
4305,-0.370,0.020
4306,-0.335,0.035
4307,-0.290,0.040
4308,-0.275,0.075
4309,-0.250,0.115
4310,-0.220,0.140
4311,-0.200,0.150
4312,-0.195,0.145
4313,-0.205,0.125
4314,-0.225,0.145
4315,-0.245,0.145
4316,-0.215,0.170
4317,-0.205,0.175
4318,-0.205,0.180
4319,-0.240,0.175
4320,-0.230,0.175
4321,-0.230,0.175
4322,-0.215,0.195
4323,-0.205,0.210
4324,-0.205,0.210
4325,-0.230,0.190
4326,-0.230,0.185
4327,-0.235,0.225
4328,-0.205,0.240
4329,-0.185,0.245
4330,-0.180,0.245
4331,-0.185,0.220
4332,-0.195,0.210
4333,-0.195,0.200
4334,-0.170,0.175
4335,-0.150,0.190
4336,-0.155,0.205
4337,-0.155,0.200
4338,-0.155,0.175
4339,-0.150,0.135
4340,-0.130,0.130
4341,-0.110,0.150
4342,-0.105,0.195
4343,-0.115,0.185
4344,-0.100,0.185
4345,-0.095,0.190
4346,-0.085,0.200
4347,-0.065,0.215
4348,-0.080,0.230
4349,-0.075,0.235
4350,-0.070,0.210
4351,-0.075,0.205
4352,-0.045,0.235
4353,-0.030,0.250
4354,-0.020,0.255
4355,-0.015,0.220
4356,-0.005,0.210
4357,-0.015,0.215
4358,0.020,0.245
4359,0.035,0.245
4360,0.060,0.230
4361,0.035,0.215
4362,0.030,0.215
4363,0.035,0.230
4364,0.055,0.260
4365,0.100,0.280
4366,0.100,0.275
4367,0.095,0.265
4368,0.085,0.240
4369,0.095,0.230
4370,0.115,0.230
4371,0.125,0.230
4372,0.125,0.215
4373,0.115,0.210
4374,0.110,0.215
4375,0.100,0.225
4376,0.120,0.255
4377,0.125,0.250
4378,0.120,0.235
4379,0.110,0.225
4380,0.100,0.225
4381,0.090,0.240
4382,0.105,0.255
4383,0.120,0.270
4384,0.115,0.275
4385,0.100,0.260
4386,0.090,0.245
4387,0.055,0.220
4388,0.040,0.230
4389,0.035,0.235
4390,0.020,0.240
4391,0.010,0.240
4392,-0.015,0.225
4393,-0.030,0.210
4394,-0.040,0.180
4395,-0.050,0.175
4396,-0.055,0.180
4397,-0.075,0.180
4398,-0.095,0.205
4399,-0.100,0.215
4400,-0.105,0.240
4401,-0.095,0.255
4402,-0.105,0.255
4403,-0.120,0.210
4404,-0.125,0.165
4405,-0.140,0.140
4406,-0.140,0.160
4407,-0.135,0.190
4408,-0.125,0.205
4409,-0.160,0.210
4410,-0.155,0.220
4411,-0.160,0.215
4412,-0.140,0.220
4413,-0.135,0.210
4414,-0.140,0.195
4415,-0.155,0.190
4416,-0.155,0.190
4417,-0.165,0.210
4418,-0.160,0.220
4419,-0.135,0.220
4420,-0.145,0.185
4421,-0.160,0.165
4422,-0.160,0.165
4423,-0.160,0.175
4424,-0.140,0.175
4425,-0.140,0.185
4426,-0.135,0.175
4427,-0.160,0.165
4428,-0.145,0.175
4429,-0.155,0.185
4430,-0.150,0.205
4431,-0.130,0.200
4432,-0.130,0.180
4433,-0.130,0.165
4434,-0.140,0.155
4435,-0.150,0.180
4436,-0.135,0.215
4437,-0.120,0.220
4438,-0.130,0.195
4439,-0.135,0.175
4440,-0.150,0.165
4441,-0.150,0.185
4442,-0.135,0.195
4443,-0.115,0.220
4444,-0.130,0.240
4445,-0.150,0.225
4446,-0.145,0.195
4447,-0.150,0.195
4448,-0.130,0.185
4449,-0.125,0.185
4450,-0.125,0.190
4451,-0.140,0.175
4452,-0.145,0.175
4453,-0.150,0.165
4454,-0.140,0.175
4455,-0.125,0.195
4456,-0.130,0.185
4457,-0.140,0.175
4458,-0.125,0.160
4459,-0.100,0.170
4460,-0.080,0.175
4461,-0.055,0.205
4462,-0.090,0.240
4463,-0.110,0.235
4464,-0.095,0.220
4465,-0.070,0.200
4466,-0.075,0.200
4467,-0.050,0.200
4468,-0.065,0.215
4469,-0.065,0.215
4470,-0.085,0.200
4471,-0.075,0.190
4472,-0.075,0.190
4473,-0.060,0.170
4474,-0.065,0.140
4475,-0.095,0.105
4476,-0.110,0.095
4477,-0.115,0.105
4478,-0.100,0.130
4479,-0.090,0.140
4480,-0.095,0.125
4481,-0.135,0.115
4482,-0.140,0.115
4483,-0.140,0.080
4484,-0.120,0.080
4485,-0.125,0.100
4486,-0.120,0.125
4487,-0.110,0.130
4488,-0.115,0.125
4489,-0.120,0.130
4490,-0.120,0.150
4491,-0.125,0.170
4492,-0.120,0.175
4493,-0.145,0.160
4494,-0.185,0.160
4495,-0.190,0.155
4496,-0.180,0.160
4497,-0.165,0.165
4498,-0.155,0.160
4499,-0.170,0.165
4500,-0.190,0.165
4501,-0.205,0.175
4502,-0.180,0.190
4503,-0.175,0.190
4504,-0.185,0.195
4505,-0.190,0.195
4506,-0.195,0.185
4507,-0.205,0.180
4508,-0.200,0.180
4509,-0.185,0.185
4510,-0.175,0.185
4511,-0.170,0.185
4512,-0.195,0.190
4513,-0.200,0.190
4514,-0.205,0.200
4515,-0.175,0.185
4516,-0.165,0.160
4517,-0.200,0.140
4518,-0.240,0.150
4519,-0.280,0.190
4520,-0.275,0.250
4521,-0.235,0.295
4522,-0.160,0.300
4523,-0.060,0.295
4524,0.095,0.270
4525,0.285,0.270
4526,0.540,0.305
4527,0.800,0.325
4528,1.055,0.310
4529,1.210,0.265
4530,1.185,0.165
4531,0.970,0.065
4532,0.615,-0.015
4533,0.195,-0.025
4534,-0.295,-0.050
4535,-0.715,-0.075
4536,-0.850,-0.105
4537,-0.790,-0.090
4538,-0.630,-0.065
4539,-0.495,-0.020
4540,-0.390,0.010
4541,-0.340,0.050
4542,-0.300,0.085
4543,-0.265,0.130
4544,-0.235,0.165
4545,-0.205,0.180
4546,-0.210,0.185
4547,-0.220,0.180
4548,-0.220,0.150
4549,-0.205,0.150
4550,-0.210,0.145
4551,-0.190,0.140
4552,-0.200,0.150
4553,-0.205,0.170
4554,-0.215,0.170
4555,-0.200,0.190
4556,-0.190,0.190
4557,-0.195,0.185
4558,-0.185,0.170
4559,-0.195,0.150
4560,-0.195,0.165
4561,-0.205,0.175
4562,-0.185,0.190
4563,-0.165,0.190
4564,-0.165,0.180
4565,-0.190,0.170
4566,-0.195,0.160
4567,-0.185,0.180
4568,-0.180,0.205
4569,-0.170,0.225
4570,-0.160,0.205
4571,-0.155,0.180
4572,-0.150,0.160
4573,-0.155,0.165
4574,-0.135,0.190
4575,-0.115,0.220
4576,-0.120,0.245
4577,-0.120,0.220
4578,-0.115,0.215
4579,-0.115,0.205
4580,-0.085,0.205
4581,-0.065,0.190
4582,-0.055,0.180
4583,-0.070,0.180
4584,-0.065,0.160
4585,-0.040,0.185
4586,-0.025,0.180
4587,-0.015,0.205
4588,-0.005,0.220
4589,-0.015,0.225
4590,-0.005,0.225
4591,0.005,0.215
4592,0.020,0.200
4593,0.025,0.190
4594,0.030,0.175
4595,0.035,0.170
4596,0.035,0.180
4597,0.050,0.185
4598,0.065,0.190
4599,0.085,0.220
4600,0.100,0.225
4601,0.095,0.235
4602,0.100,0.215
4603,0.095,0.225
4604,0.110,0.240
4605,0.120,0.220
4606,0.135,0.200
4607,0.130,0.200
4608,0.105,0.210
4609,0.105,0.230
4610,0.105,0.260
4611,0.135,0.260
4612,0.130,0.250
4613,0.130,0.215
4614,0.110,0.205
4615,0.120,0.205
4616,0.120,0.230
4617,0.140,0.240
4618,0.125,0.245
4619,0.105,0.245
4620,0.100,0.220
4621,0.080,0.210
4622,0.080,0.210
4623,0.090,0.205
4624,0.090,0.180
4625,0.060,0.170
4626,0.015,0.155
4627,0.010,0.160
4628,0.000,0.175
4629,0.000,0.195
4630,-0.020,0.195
4631,-0.055,0.190
4632,-0.075,0.205
4633,-0.085,0.210
4634,-0.085,0.220
4635,-0.080,0.200
4636,-0.095,0.180
4637,-0.115,0.155
4638,-0.115,0.150
4639,-0.120,0.150
4640,-0.105,0.160
4641,-0.105,0.165
4642,-0.115,0.165
4643,-0.120,0.165
4644,-0.155,0.165
4645,-0.145,0.180
4646,-0.150,0.200
4647,-0.140,0.225
4648,-0.140,0.235
4649,-0.155,0.245
4650,-0.170,0.230
4651,-0.150,0.205
4652,-0.150,0.170
4653,-0.125,0.140
4654,-0.130,0.120
4655,-0.125,0.110
4656,-0.145,0.105
4657,-0.145,0.120
4658,-0.130,0.165
4659,-0.125,0.170
4660,-0.115,0.165
4661,-0.130,0.165
4662,-0.140,0.160
4663,-0.140,0.175
4664,-0.140,0.205
4665,-0.125,0.220
4666,-0.130,0.225
4667,-0.155,0.200
4668,-0.155,0.185
4669,-0.150,0.160
4670,-0.150,0.165
4671,-0.125,0.180
4672,-0.140,0.160
4673,-0.155,0.145
4674,-0.155,0.135
4675,-0.155,0.120
4676,-0.150,0.125
4677,-0.135,0.130
4678,-0.150,0.130
4679,-0.175,0.140
4680,-0.175,0.140
4681,-0.180,0.155
4682,-0.165,0.180
4683,-0.150,0.185
4684,-0.155,0.185
4685,-0.165,0.155
4686,-0.170,0.140
4687,-0.170,0.150
4688,-0.150,0.150
4689,-0.145,0.155
4690,-0.145,0.155
4691,-0.160,0.165
4692,-0.165,0.175
4693,-0.150,0.185
4694,-0.125,0.175
4695,-0.095,0.185
4696,-0.075,0.150
4697,-0.105,0.150
4698,-0.110,0.165
4699,-0.110,0.195
4700,-0.110,0.215
4701,-0.090,0.200
4702,-0.090,0.190
4703,-0.085,0.165
4704,-0.115,0.140
4705,-0.110,0.140
4706,-0.110,0.155
4707,-0.105,0.155
4708,-0.085,0.135
4709,-0.100,0.100
4710,-0.120,0.080
4711,-0.125,0.100
4712,-0.125,0.130
4713,-0.110,0.140
4714,-0.125,0.090
4715,-0.125,0.045
4716,-0.150,0.010
4717,-0.185,0.025
4718,-0.180,0.050
4719,-0.170,0.065
4720,-0.160,0.070
4721,-0.165,0.070
4722,-0.175,0.070
4723,-0.180,0.075
4724,-0.160,0.105
4725,-0.140,0.135
4726,-0.135,0.140
4727,-0.165,0.140
4728,-0.180,0.145
4729,-0.200,0.135
4730,-0.205,0.140
4731,-0.220,0.135
4732,-0.220,0.125
4733,-0.230,0.125
4734,-0.235,0.115
4735,-0.255,0.115
4736,-0.235,0.125
4737,-0.235,0.130
4738,-0.230,0.135
4739,-0.255,0.130
4740,-0.265,0.135
4741,-0.260,0.150
4742,-0.250,0.165
4743,-0.235,0.170
4744,-0.235,0.160
4745,-0.235,0.145
4746,-0.240,0.130
4747,-0.255,0.120
4748,-0.230,0.145
4749,-0.235,0.155
4750,-0.230,0.165
4751,-0.235,0.145
4752,-0.255,0.130
4753,-0.270,0.135
4754,-0.285,0.140
4755,-0.295,0.160
4756,-0.320,0.180
4757,-0.340,0.205
4758,-0.340,0.215
4759,-0.315,0.255
4760,-0.240,0.275
4761,-0.110,0.295
4762,0.035,0.270
4763,0.220,0.255
4764,0.420,0.245
4765,0.660,0.255
4766,0.915,0.250
4767,1.090,0.230
4768,1.100,0.150
4769,0.910,0.025
4770,0.630,-0.100
4771,0.260,-0.145
4772,-0.185,-0.130
4773,-0.620,-0.100
4774,-0.890,-0.110
4775,-0.930,-0.110
4776,-0.855,-0.080
4777,-0.735,-0.055
4778,-0.615,-0.030
4779,-0.505,-0.030
4780,-0.430,-0.045
4781,-0.390,-0.050
4782,-0.360,-0.030
4783,-0.345,0.015
4784,-0.325,0.070
4785,-0.305,0.125
4786,-0.295,0.150
4787,-0.295,0.130
4788,-0.300,0.090
4789,-0.295,0.070
4790,-0.280,0.085
4791,-0.275,0.115
4792,-0.270,0.120
4793,-0.260,0.100
4794,-0.265,0.090
4795,-0.280,0.095
4796,-0.265,0.115
4797,-0.255,0.140
4798,-0.265,0.145
4799,-0.280,0.145
4800,-0.290,0.150
4801,-0.280,0.160
4802,-0.260,0.150
4803,-0.250,0.140
4804,-0.235,0.115
4805,-0.250,0.080
4806,-0.265,0.085
4807,-0.255,0.110
4808,-0.245,0.130
4809,-0.240,0.145
4810,-0.235,0.155
4811,-0.245,0.135
4812,-0.250,0.135
4813,-0.260,0.150
4814,-0.235,0.175
4815,-0.210,0.180
4816,-0.190,0.155
4817,-0.190,0.130
4818,-0.205,0.120
4819,-0.190,0.130
4820,-0.165,0.155
4821,-0.150,0.170
4822,-0.150,0.185
4823,-0.135,0.160
4824,-0.130,0.130
4825,-0.125,0.140
4826,-0.095,0.135
4827,-0.080,0.135
4828,-0.075,0.125
4829,-0.065,0.120
4830,-0.060,0.120
4831,-0.075,0.155
4832,-0.035,0.175
4833,-0.035,0.175
4834,-0.020,0.170
4835,-0.025,0.145
4836,-0.020,0.125
4837,-0.015,0.155
4838,-0.005,0.160
4839,0.010,0.160
4840,-0.015,0.175
4841,0.005,0.170
4842,0.020,0.170
4843,0.025,0.155
4844,0.040,0.165
4845,0.070,0.165
4846,0.055,0.180
4847,0.045,0.155
4848,0.040,0.165
4849,0.040,0.170
4850,0.040,0.175
4851,0.060,0.165
4852,0.075,0.135
4853,0.055,0.125
4854,0.050,0.135
4855,0.035,0.145
4856,0.040,0.170
4857,0.040,0.165
4858,0.030,0.155
4859,0.010,0.140
4860,0.000,0.135
4861,-0.015,0.140
4862,-0.015,0.130
4863,-0.030,0.135
4864,-0.035,0.115
4865,-0.060,0.115
4866,-0.080,0.135
4867,-0.095,0.155
4868,-0.105,0.170
4869,-0.105,0.150
4870,-0.120,0.150
4871,-0.140,0.130
4872,-0.150,0.140
4873,-0.170,0.130
4874,-0.180,0.125
4875,-0.170,0.120
4876,-0.175,0.125
4877,-0.205,0.120
4878,-0.220,0.120
4879,-0.225,0.140
4880,-0.215,0.165
4881,-0.210,0.155
4882,-0.200,0.150
4883,-0.215,0.110
4884,-0.230,0.090
4885,-0.225,0.095
4886,-0.230,0.090
4887,-0.220,0.115
4888,-0.215,0.115
4889,-0.225,0.110
4890,-0.245,0.100
4891,-0.250,0.100
4892,-0.235,0.125
4893,-0.235,0.135
4894,-0.235,0.120
4895,-0.255,0.100
4896,-0.240,0.080
4897,-0.240,0.080
4898,-0.245,0.095
4899,-0.225,0.105
4900,-0.230,0.115
4901,-0.250,0.100
4902,-0.280,0.100
4903,-0.270,0.105
4904,-0.280,0.110
4905,-0.255,0.125
4906,-0.240,0.125
4907,-0.245,0.120
4908,-0.240,0.120
4909,-0.240,0.135
4910,-0.215,0.140
4911,-0.215,0.140
4912,-0.225,0.115
4913,-0.240,0.110
4914,-0.265,0.115
4915,-0.255,0.120
4916,-0.230,0.115
4917,-0.225,0.100
4918,-0.245,0.085
4919,-0.255,0.080
4920,-0.255,0.090
4921,-0.245,0.105
4922,-0.230,0.100
4923,-0.225,0.115
4924,-0.235,0.105
4925,-0.230,0.110
4926,-0.235,0.115
4927,-0.250,0.125
4928,-0.245,0.130
4929,-0.225,0.140
4930,-0.240,0.145
4931,-0.245,0.135
4932,-0.255,0.155
4933,-0.255,0.165
4934,-0.235,0.140
4935,-0.210,0.110
4936,-0.200,0.095
4937,-0.205,0.075
4938,-0.190,0.115
4939,-0.195,0.150
4940,-0.180,0.160
4941,-0.185,0.160
4942,-0.185,0.130
4943,-0.190,0.100
4944,-0.185,0.085
4945,-0.185,0.085
4946,-0.185,0.110
4947,-0.170,0.110
4948,-0.185,0.095
4949,-0.185,0.085
4950,-0.190,0.050
4951,-0.190,0.040
4952,-0.175,0.045
4953,-0.165,0.040
4954,-0.190,0.040
4955,-0.215,0.045
4956,-0.240,0.045
4957,-0.235,0.050
4958,-0.230,0.050
4959,-0.235,0.050
4960,-0.245,0.055
4961,-0.260,0.040
4962,-0.265,0.060
4963,-0.255,0.065
4964,-0.250,0.075
4965,-0.245,0.090
4966,-0.230,0.080
4967,-0.215,0.085
4968,-0.225,0.075
4969,-0.235,0.085
4970,-0.245,0.105
4971,-0.255,0.125
4972,-0.275,0.120
4973,-0.305,0.115
4974,-0.345,0.095
4975,-0.350,0.100
4976,-0.325,0.100
4977,-0.295,0.100
4978,-0.300,0.090
4979,-0.305,0.075
4980,-0.320,0.090
4981,-0.310,0.085
4982,-0.270,0.080
4983,-0.265,0.050
4984,-0.265,0.040
4985,-0.305,0.045
4986,-0.320,0.070
4987,-0.335,0.100
4988,-0.315,0.115
4989,-0.315,0.105
4990,-0.300,0.100
4991,-0.295,0.085
4992,-0.290,0.070
4993,-0.305,0.075
4994,-0.290,0.090
4995,-0.290,0.105
4996,-0.320,0.095
4997,-0.350,0.080
4998,-0.385,0.090
4999,-0.410,0.140
5000,-0.410,0.180
5001,-0.370,0.200
5002,-0.325,0.200
5003,-0.205,0.215
5004,-0.065,0.210
5005,0.125,0.205
5006,0.365,0.210
5007,0.620,0.230
5008,0.855,0.225
5009,1.015,0.195
5010,1.015,0.115
5011,0.865,0.025
5012,0.605,-0.045
5013,0.270,-0.060
5014,-0.155,-0.055
5015,-0.625,-0.030
5016,-0.920,-0.010
5017,-0.975,0.000
5018,-0.890,-0.005
5019,-0.800,-0.040
5020,-0.715,-0.105
5021,-0.625,-0.110
5022,-0.550,-0.060
5023,-0.485,-0.015
5024,-0.430,0.045
5025,-0.390,0.050
5026,-0.395,0.065
5027,-0.360,0.070
5028,-0.355,0.070
5029,-0.345,0.075
5030,-0.350,0.080
5031,-0.340,0.080
5032,-0.345,0.090
5033,-0.350,0.070
5034,-0.340,0.060
5035,-0.340,0.045
5036,-0.330,0.070
5037,-0.325,0.075
5038,-0.310,0.065
5039,-0.320,0.055
5040,-0.335,0.045
5041,-0.330,0.070
5042,-0.330,0.085
5043,-0.315,0.105
5044,-0.320,0.100
5045,-0.330,0.100
5046,-0.335,0.095
5047,-0.330,0.120
5048,-0.315,0.150
5049,-0.305,0.155
5050,-0.290,0.150
5051,-0.290,0.120
5052,-0.290,0.125
5053,-0.290,0.125
5054,-0.270,0.140
5055,-0.250,0.140
5056,-0.235,0.120
5057,-0.250,0.100
5058,-0.250,0.075
5059,-0.245,0.080
5060,-0.215,0.075
5061,-0.205,0.060
5062,-0.200,0.085
5063,-0.205,0.105
5064,-0.205,0.115
5065,-0.200,0.115
5066,-0.180,0.105
5067,-0.145,0.105
5068,-0.125,0.090
5069,-0.130,0.060
5070,-0.120,0.045
5071,-0.100,0.035
5072,-0.085,0.070
5073,-0.060,0.105
5074,-0.055,0.120
5075,-0.065,0.130
5076,-0.060,0.105
5077,-0.055,0.085
5078,-0.040,0.090
5079,-0.035,0.095
5080,-0.030,0.105
5081,-0.030,0.095
5082,-0.025,0.100
5083,-0.020,0.120
5084,-0.010,0.140
5085,0.005,0.175
5086,0.005,0.185
5087,0.000,0.185
5088,0.010,0.165
5089,0.015,0.155
5090,0.030,0.115
5091,0.035,0.105
5092,0.010,0.105
5093,0.010,0.105
5094,0.010,0.100
5095,0.010,0.090
5096,0.020,0.105
5097,0.020,0.105
5098,0.015,0.120
5099,0.000,0.115
5100,-0.015,0.110
5101,-0.015,0.130
5102,-0.010,0.135
5103,-0.020,0.145
5104,-0.045,0.160
5105,-0.060,0.135
5106,-0.090,0.100
5107,-0.095,0.070
5108,-0.105,0.070
5109,-0.100,0.100
5110,-0.115,0.085
5111,-0.145,0.085
5112,-0.170,0.085
5113,-0.200,0.115
5114,-0.190,0.130
5115,-0.195,0.125
5116,-0.195,0.110
5117,-0.215,0.090
5118,-0.250,0.095
5119,-0.250,0.095
5120,-0.240,0.100
5121,-0.230,0.110
5122,-0.240,0.100
5123,-0.255,0.095
5124,-0.275,0.085
5125,-0.275,0.080
5126,-0.270,0.085
5127,-0.255,0.070
5128,-0.260,0.065
5129,-0.280,0.080
5130,-0.275,0.100
5131,-0.280,0.105
5132,-0.265,0.110
5133,-0.245,0.110
5134,-0.250,0.095
5135,-0.265,0.065
5136,-0.265,0.065
5137,-0.275,0.075
5138,-0.245,0.105
5139,-0.245,0.120
5140,-0.245,0.130
5141,-0.245,0.115
5142,-0.255,0.115
5143,-0.270,0.120
5144,-0.270,0.130
5145,-0.240,0.150
5146,-0.225,0.150
5147,-0.245,0.130
5148,-0.255,0.135
5149,-0.265,0.130
5150,-0.240,0.125
5151,-0.230,0.110
5152,-0.230,0.105
5153,-0.230,0.090
5154,-0.250,0.065
5155,-0.240,0.070
5156,-0.220,0.075
5157,-0.200,0.085
5158,-0.215,0.095
5159,-0.235,0.085
5160,-0.265,0.090
5161,-0.245,0.105
5162,-0.230,0.095
5163,-0.225,0.080
5164,-0.210,0.055
5165,-0.230,0.050
5166,-0.220,0.065
5167,-0.225,0.070
5168,-0.225,0.075
5169,-0.210,0.075
5170,-0.215,0.080
5171,-0.215,0.055
5172,-0.240,0.060
5173,-0.245,0.085
5174,-0.235,0.095
5175,-0.210,0.105
5176,-0.205,0.115
5177,-0.200,0.115
5178,-0.190,0.120
5179,-0.195,0.130
5180,-0.180,0.140
5181,-0.175,0.165
5182,-0.180,0.185
5183,-0.180,0.195
5184,-0.165,0.190
5185,-0.160,0.180
5186,-0.165,0.150
5187,-0.165,0.140
5188,-0.170,0.125
5189,-0.175,0.085
5190,-0.180,0.050
5191,-0.175,0.025
5192,-0.140,0.000
5193,-0.145,0.000
5194,-0.170,0.005
5195,-0.185,0.005
5196,-0.185,0.020
5197,-0.190,0.020
5198,-0.200,0.040
5199,-0.205,0.030
5200,-0.220,0.040
5201,-0.215,0.020
5202,-0.225,0.025
5203,-0.240,0.035
5204,-0.235,0.045
5205,-0.220,0.065
5206,-0.210,0.080
5207,-0.205,0.090
5208,-0.225,0.105
5209,-0.230,0.095
5210,-0.235,0.100
5211,-0.250,0.100
5212,-0.265,0.100
5213,-0.285,0.100
5214,-0.305,0.100
5215,-0.300,0.105
5216,-0.275,0.115
5217,-0.275,0.125
5218,-0.295,0.115
5219,-0.310,0.125
5220,-0.315,0.145
5221,-0.320,0.180
5222,-0.295,0.190
5223,-0.285,0.195
5224,-0.285,0.165
5225,-0.280,0.120
5226,-0.275,0.060
5227,-0.265,0.050
5228,-0.280,0.060
5229,-0.265,0.095
5230,-0.270,0.090
5231,-0.265,0.095
5232,-0.285,0.100
5233,-0.295,0.125
5234,-0.295,0.150
5235,-0.310,0.145
5236,-0.330,0.150
5237,-0.345,0.165
5238,-0.345,0.185
5239,-0.280,0.205
5240,-0.160,0.230
5241,-0.015,0.230
5242,0.180,0.240
5243,0.420,0.250
5244,0.685,0.260
5245,0.940,0.245
5246,1.140,0.220
5247,1.155,0.140
5248,0.960,0.030
5249,0.600,-0.070
5250,0.190,-0.115
5251,-0.275,-0.105
5252,-0.700,-0.090
5253,-0.925,-0.060
5254,-0.935,-0.060
5255,-0.835,-0.055
5256,-0.720,-0.065
5257,-0.590,-0.065
5258,-0.470,-0.030
5259,-0.375,0.015
5260,-0.335,0.075
5261,-0.325,0.125
5262,-0.305,0.130
5263,-0.300,0.110
5264,-0.280,0.085
5265,-0.270,0.080
5266,-0.260,0.065
5267,-0.285,0.055
5268,-0.290,0.050
5269,-0.295,0.080
5270,-0.290,0.105
5271,-0.295,0.120
5272,-0.290,0.130
5273,-0.285,0.115
5274,-0.290,0.100
5275,-0.270,0.115
5276,-0.265,0.120
5277,-0.265,0.130
5278,-0.270,0.140
5279,-0.270,0.145
5280,-0.270,0.140
5281,-0.270,0.155
5282,-0.245,0.150
5283,-0.245,0.160
5284,-0.235,0.150
5285,-0.245,0.130
5286,-0.230,0.135
5287,-0.245,0.185
5288,-0.235,0.215
5289,-0.200,0.230
5290,-0.185,0.185
5291,-0.175,0.160
5292,-0.170,0.120
5293,-0.180,0.120
5294,-0.160,0.110
5295,-0.170,0.100
5296,-0.170,0.105
5297,-0.160,0.120
5298,-0.150,0.120
5299,-0.125,0.120
5300,-0.110,0.115
5301,-0.090,0.135
5302,-0.080,0.145
5303,-0.070,0.150
5304,-0.075,0.135
5305,-0.070,0.135
5306,-0.050,0.155
5307,-0.025,0.165
5308,-0.005,0.150
5309,0.005,0.150
5310,-0.020,0.150
5311,-0.005,0.165
5312,0.000,0.175
5313,0.035,0.200
5314,0.030,0.210
5315,0.025,0.190
5316,0.040,0.180
5317,0.030,0.180
5318,0.055,0.180
5319,0.065,0.195
5320,0.065,0.200
5321,0.065,0.185
5322,0.070,0.190
5323,0.070,0.190
5324,0.080,0.200
5325,0.095,0.220
5326,0.090,0.215
5327,0.075,0.220
5328,0.060,0.230
5329,0.060,0.245
5330,0.075,0.250
5331,0.085,0.210
5332,0.065,0.155
5333,0.070,0.125
5334,0.050,0.105
5335,0.045,0.145
5336,0.050,0.155
5337,0.045,0.155
5338,0.025,0.160
5339,-0.020,0.140
5340,-0.035,0.150
5341,-0.040,0.130
5342,-0.040,0.145
5343,-0.040,0.160
5344,-0.070,0.165
5345,-0.080,0.170
5346,-0.095,0.165
5347,-0.115,0.165
5348,-0.125,0.190
5349,-0.125,0.170
5350,-0.120,0.170
5351,-0.145,0.145
5352,-0.150,0.135
5353,-0.175,0.140
5354,-0.165,0.155
5355,-0.155,0.175
5356,-0.165,0.170
5357,-0.185,0.165
5358,-0.215,0.175
5359,-0.210,0.200
5360,-0.175,0.185
5361,-0.155,0.145
5362,-0.150,0.100
5363,-0.165,0.095
5364,-0.180,0.115
5365,-0.190,0.135
5366,-0.175,0.165
5367,-0.155,0.195
5368,-0.150,0.170
5369,-0.155,0.105
5370,-0.150,0.065
5371,-0.160,0.065
5372,-0.155,0.115
5373,-0.145,0.140
5374,-0.145,0.145
5375,-0.185,0.135
5376,-0.175,0.125
5377,-0.180,0.135
5378,-0.180,0.145
5379,-0.170,0.150
5380,-0.175,0.140
5381,-0.185,0.120
5382,-0.190,0.125
5383,-0.195,0.150
5384,-0.175,0.170
5385,-0.155,0.170
5386,-0.170,0.155
5387,-0.185,0.135
5388,-0.195,0.140
5389,-0.190,0.145
5390,-0.185,0.145
5391,-0.165,0.150
5392,-0.155,0.125
5393,-0.165,0.095
5394,-0.160,0.090
5395,-0.180,0.095
5396,-0.170,0.115
5397,-0.150,0.130
5398,-0.155,0.130
5399,-0.155,0.130
5400,-0.165,0.150
5401,-0.175,0.165
5402,-0.170,0.180
5403,-0.155,0.175
5404,-0.165,0.150
5405,-0.165,0.115
5406,-0.165,0.085
5407,-0.165,0.095
5408,-0.150,0.105
5409,-0.140,0.140
5410,-0.135,0.150
5411,-0.105,0.155
5412,-0.110,0.160
5413,-0.135,0.165
5414,-0.115,0.165
5415,-0.100,0.175
5416,-0.090,0.180
5417,-0.095,0.140
5418,-0.100,0.120
5419,-0.120,0.105
5420,-0.110,0.115
5421,-0.105,0.125
5422,-0.095,0.115
5423,-0.085,0.105
5424,-0.100,0.075
5425,-0.120,0.070
5426,-0.120,0.095
5427,-0.125,0.080
5428,-0.115,0.070
5429,-0.115,0.050
5430,-0.135,0.055
5431,-0.145,0.060
5432,-0.160,0.070
5433,-0.155,0.080
5434,-0.160,0.090
5435,-0.170,0.070
5436,-0.160,0.050
5437,-0.155,0.040
5438,-0.135,0.045
5439,-0.135,0.080
5440,-0.160,0.105
5441,-0.180,0.115
5442,-0.180,0.100
5443,-0.195,0.090
5444,-0.220,0.090
5445,-0.220,0.105
5446,-0.230,0.110
5447,-0.240,0.115
5448,-0.260,0.110
5449,-0.255,0.125
5450,-0.235,0.145
5451,-0.225,0.145
5452,-0.215,0.105
5453,-0.220,0.095
5454,-0.235,0.105
5455,-0.240,0.135
5456,-0.220,0.155
5457,-0.225,0.165
5458,-0.210,0.135
5459,-0.210,0.120
5460,-0.235,0.110
5461,-0.235,0.110
5462,-0.230,0.130
5463,-0.200,0.160
5464,-0.215,0.150
5465,-0.225,0.150
5466,-0.235,0.145
5467,-0.240,0.150
5468,-0.255,0.140
5469,-0.275,0.155
5470,-0.280,0.165
5471,-0.260,0.185
5472,-0.230,0.190
5473,-0.150,0.200
5474,-0.030,0.220
5475,0.120,0.235
5476,0.305,0.250
5477,0.550,0.260
5478,0.805,0.255
5479,1.055,0.245
5480,1.225,0.205
5481,1.165,0.110
5482,0.895,-0.045
5483,0.485,-0.140
5484,0.030,-0.170
5485,-0.465,-0.155
5486,-0.810,-0.155
5487,-0.895,-0.170
5488,-0.800,-0.185
5489,-0.670,-0.175
5490,-0.545,-0.130
5491,-0.455,-0.070
5492,-0.360,-0.020
5493,-0.305,0.005
5494,-0.275,0.025
5495,-0.240,0.035
5496,-0.240,0.035
5497,-0.250,0.060
5498,-0.245,0.070
5499,-0.235,0.090
5500,-0.230,0.100
5501,-0.225,0.105
5502,-0.240,0.110
5503,-0.240,0.095
5504,-0.225,0.095
5505,-0.225,0.120
5506,-0.220,0.110
5507,-0.225,0.105
5508,-0.230,0.085
5509,-0.225,0.105
5510,-0.205,0.135
5511,-0.195,0.145
5512,-0.200,0.140
5513,-0.205,0.115
5514,-0.220,0.110
5515,-0.200,0.105
5516,-0.180,0.120
5517,-0.175,0.100
5518,-0.185,0.095
5519,-0.165,0.080
5520,-0.175,0.080
5521,-0.180,0.085
5522,-0.175,0.120
5523,-0.150,0.115
5524,-0.155,0.130
5525,-0.145,0.120
5526,-0.145,0.120
5527,-0.150,0.130
5528,-0.135,0.120
5529,-0.120,0.135
5530,-0.115,0.135
5531,-0.095,0.130
5532,-0.100,0.120
5533,-0.095,0.125
5534,-0.080,0.175
5535,-0.050,0.195
5536,-0.035,0.175
5537,-0.035,0.145
5538,-0.025,0.130
5539,-0.025,0.135
5540,0.015,0.155
5541,0.030,0.160
5542,0.030,0.150
5543,0.030,0.145
5544,0.025,0.160
5545,0.035,0.170
5546,0.050,0.200
5547,0.060,0.235
5548,0.080,0.220
5549,0.090,0.200
5550,0.095,0.160
5551,0.090,0.145
5552,0.105,0.145
5553,0.095,0.155
5554,0.105,0.155
5555,0.100,0.160
5556,0.095,0.160
5557,0.110,0.175
5558,0.110,0.190
5559,0.125,0.200
5560,0.115,0.195
5561,0.120,0.175
5562,0.120,0.140
5563,0.115,0.125
5564,0.100,0.145
5565,0.105,0.155
5566,0.090,0.140
5567,0.085,0.135
5568,0.070,0.125
5569,0.040,0.145
5570,0.035,0.135
5571,0.035,0.120
5572,0.015,0.120
5573,0.010,0.115
5574,-0.030,0.115
5575,-0.035,0.120
5576,-0.050,0.130
5577,-0.065,0.150
5578,-0.065,0.135
5579,-0.075,0.100
5580,-0.105,0.075
5581,-0.115,0.085
5582,-0.105,0.105
5583,-0.105,0.115
5584,-0.100,0.100
5585,-0.105,0.080
5586,-0.125,0.085
5587,-0.145,0.100
5588,-0.135,0.145
5589,-0.110,0.165
5590,-0.105,0.155
5591,-0.115,0.135
5592,-0.135,0.130
5593,-0.145,0.165
5594,-0.130,0.175
5595,-0.120,0.150
5596,-0.125,0.120
5597,-0.135,0.085
5598,-0.145,0.095
5599,-0.140,0.115
5600,-0.145,0.110
5601,-0.125,0.105
5602,-0.110,0.095
5603,-0.125,0.100
5604,-0.140,0.100
5605,-0.135,0.080
5606,-0.135,0.090
5607,-0.135,0.105
5608,-0.135,0.115
5609,-0.140,0.125
5610,-0.150,0.100
5611,-0.145,0.075
5612,-0.130,0.090
5613,-0.110,0.105
5614,-0.105,0.110
5615,-0.105,0.100
5616,-0.125,0.085
5617,-0.130,0.095
5618,-0.130,0.105
5619,-0.130,0.115
5620,-0.125,0.110
5621,-0.150,0.105
5622,-0.145,0.110
5623,-0.130,0.120
5624,-0.125,0.135
5625,-0.110,0.130
5626,-0.120,0.125
5627,-0.135,0.120
5628,-0.130,0.115
5629,-0.135,0.130
5630,-0.125,0.150
5631,-0.115,0.130
5632,-0.105,0.100
5633,-0.110,0.095
5634,-0.095,0.090
5635,-0.090,0.090
5636,-0.070,0.105
5637,-0.055,0.125
5638,-0.045,0.150
5639,-0.055,0.165
5640,-0.065,0.180
5641,-0.085,0.165
5642,-0.055,0.130
5643,-0.040,0.110
5644,-0.040,0.090
5645,-0.065,0.070
5646,-0.065,0.060
5647,-0.070,0.055
5648,-0.055,0.060
5649,-0.055,0.070
5650,-0.050,0.080
5651,-0.060,0.080
5652,-0.085,0.065
5653,-0.085,0.070
5654,-0.075,0.055
5655,-0.085,0.045
5656,-0.105,0.035
5657,-0.135,0.040
5658,-0.150,0.025
5659,-0.140,0.025
5660,-0.135,0.010
5661,-0.120,0.025
5662,-0.130,0.030
5663,-0.125,0.035
5664,-0.130,0.025
5665,-0.135,0.060
5666,-0.125,0.070
5667,-0.135,0.085
5668,-0.145,0.080
5669,-0.160,0.075
5670,-0.190,0.085
5671,-0.205,0.090
5672,-0.200,0.105
5673,-0.190,0.125
5674,-0.180,0.115
5675,-0.195,0.100
5676,-0.195,0.085
5677,-0.215,0.075
5678,-0.195,0.080
5679,-0.175,0.085
5680,-0.185,0.070
5681,-0.185,0.070
5682,-0.190,0.075
5683,-0.195,0.090
5684,-0.190,0.095
5685,-0.180,0.075
5686,-0.190,0.055
5687,-0.205,0.050
5688,-0.215,0.055
5689,-0.215,0.065
5690,-0.210,0.070
5691,-0.220,0.080
5692,-0.245,0.100
5693,-0.260,0.130
5694,-0.250,0.150
5695,-0.200,0.170
5696,-0.080,0.190
5697,0.065,0.200
5698,0.275,0.215
5699,0.520,0.220
5700,0.770,0.235
5701,1.005,0.245
5702,1.145,0.185
5703,1.085,0.070
5704,0.795,-0.065
5705,0.370,-0.165
5706,-0.105,-0.170
5707,-0.570,-0.160
5708,-0.820,-0.180
5709,-0.825,-0.180
5710,-0.705,-0.180
5711,-0.565,-0.180
5712,-0.465,-0.135
5713,-0.380,-0.080
5714,-0.305,-0.040
5715,-0.265,0.015
5716,-0.245,0.050
5717,-0.225,0.060
5718,-0.235,0.050
5719,-0.245,0.070
5720,-0.230,0.090
5721,-0.205,0.090
5722,-0.200,0.085
5723,-0.200,0.070
5724,-0.225,0.060
5725,-0.215,0.065
5726,-0.210,0.085
5727,-0.200,0.090
5728,-0.200,0.110
5729,-0.200,0.120
5730,-0.210,0.105
5731,-0.205,0.105
5732,-0.180,0.110
5733,-0.175,0.095
5734,-0.170,0.090
5735,-0.175,0.070
5736,-0.175,0.065
5737,-0.170,0.070
5738,-0.160,0.090
5739,-0.165,0.105
5740,-0.160,0.090
5741,-0.150,0.085
5742,-0.160,0.090
5743,-0.145,0.090
5744,-0.125,0.105
5745,-0.120,0.120
5746,-0.100,0.110
5747,-0.095,0.090
5748,-0.115,0.090
5749,-0.110,0.110
5750,-0.075,0.130
5751,-0.065,0.130
5752,-0.055,0.115
5753,-0.055,0.090
5754,-0.060,0.065
5755,-0.060,0.070
5756,-0.060,0.110
5757,-0.035,0.125
5758,-0.025,0.125
5759,-0.010,0.130
5760,-0.010,0.110
5761,-0.010,0.115
5762,0.005,0.115
5763,0.030,0.135
5764,0.055,0.135
5765,0.065,0.115
5766,0.060,0.080
5767,0.050,0.095
5768,0.060,0.110
5769,0.075,0.145
5770,0.090,0.145
5771,0.080,0.170
5772,0.060,0.180
5773,0.070,0.165
5774,0.095,0.160
5775,0.120,0.125
5776,0.120,0.100
5777,0.115,0.115
5778,0.110,0.130
5779,0.110,0.135
5780,0.110,0.130
5781,0.125,0.125
5782,0.120,0.120
5783,0.110,0.130
5784,0.110,0.130
5785,0.095,0.150
5786,0.105,0.150
5787,0.105,0.150
5788,0.100,0.140
5789,0.080,0.145
5790,0.070,0.135
5791,0.065,0.130
5792,0.060,0.110
5793,0.045,0.100
5794,0.035,0.075
5795,0.010,0.070
5796,-0.030,0.080
5797,-0.040,0.095
5798,-0.050,0.115
5799,-0.045,0.135
5800,-0.050,0.125
5801,-0.090,0.115
5802,-0.100,0.090
5803,-0.120,0.070
5804,-0.120,0.065
5805,-0.120,0.095
5806,-0.125,0.110
5807,-0.125,0.110
5808,-0.135,0.105
5809,-0.150,0.095
5810,-0.145,0.095
5811,-0.140,0.115
5812,-0.135,0.120
5813,-0.130,0.085
5814,-0.135,0.045
5815,-0.140,0.060
5816,-0.150,0.085
5817,-0.135,0.120
5818,-0.140,0.125
5819,-0.130,0.100
5820,-0.140,0.075
5821,-0.140,0.070
5822,-0.140,0.060
5823,-0.150,0.080
5824,-0.140,0.080
5825,-0.130,0.065
5826,-0.145,0.050
5827,-0.160,0.075
5828,-0.150,0.080
5829,-0.140,0.090
5830,-0.140,0.075
5831,-0.135,0.060
5832,-0.160,0.055
5833,-0.160,0.065
5834,-0.160,0.085
5835,-0.150,0.090
5836,-0.150,0.065
5837,-0.145,0.045
5838,-0.165,0.045
5839,-0.180,0.055
5840,-0.175,0.090
5841,-0.150,0.090
5842,-0.150,0.085
5843,-0.160,0.085
5844,-0.170,0.085
5845,-0.170,0.095
5846,-0.170,0.110
5847,-0.160,0.105
5848,-0.160,0.100
5849,-0.180,0.090
5850,-0.175,0.075
5851,-0.170,0.080
5852,-0.150,0.080
5853,-0.155,0.075
5854,-0.160,0.045
5855,-0.160,0.040
5856,-0.160,0.040
5857,-0.160,0.050
5858,-0.135,0.050
5859,-0.140,0.065
5860,-0.130,0.065
5861,-0.120,0.080
5862,-0.110,0.090
5863,-0.100,0.090
5864,-0.085,0.090
5865,-0.105,0.105
5866,-0.100,0.105
5867,-0.105,0.100
5868,-0.090,0.090
5869,-0.090,0.085
5870,-0.080,0.095
5871,-0.080,0.085
5872,-0.080,0.060
5873,-0.085,0.030
5874,-0.085,0.005
5875,-0.085,0.010
5876,-0.090,0.010
5877,-0.095,0.020
5878,-0.085,0.000
5879,-0.120,-0.020
5880,-0.125,-0.020
5881,-0.130,-0.010
5882,-0.140,0.010
5883,-0.160,0.010
5884,-0.165,0.000
5885,-0.155,0.000
5886,-0.165,-0.010
5887,-0.175,-0.025
5888,-0.180,-0.015
5889,-0.160,0.020
5890,-0.150,0.050
5891,-0.140,0.065
5892,-0.175,0.065
5893,-0.190,0.060
5894,-0.190,0.020
5895,-0.200,0.000
5896,-0.225,-0.010
5897,-0.225,0.005
5898,-0.240,0.020
5899,-0.240,0.060
5900,-0.240,0.100
5901,-0.235,0.135
5902,-0.220,0.100
5903,-0.220,0.030
5904,-0.225,-0.020
5905,-0.230,-0.005
5906,-0.235,0.020
5907,-0.230,0.045
5908,-0.225,0.040
5909,-0.230,0.050
5910,-0.240,0.040
5911,-0.245,0.025
5912,-0.240,0.025
5913,-0.235,0.030
5914,-0.220,0.035
5915,-0.240,0.045
5916,-0.265,0.050
5917,-0.295,0.065
5918,-0.310,0.085
5919,-0.315,0.105
5920,-0.300,0.150
5921,-0.255,0.140
5922,-0.165,0.155
5923,-0.030,0.155
5924,0.160,0.170
5925,0.410,0.200
5926,0.690,0.240
5927,0.950,0.185
5928,1.075,0.100
5929,1.015,-0.030
5930,0.785,-0.155
5931,0.455,-0.235
5932,0.055,-0.220
5933,-0.425,-0.210
5934,-0.820,-0.215
5935,-0.955,-0.245
5936,-0.880,-0.250
5937,-0.745,-0.230
5938,-0.625,-0.210
5939,-0.520,-0.190
5940,-0.440,-0.155
5941,-0.385,-0.110
5942,-0.340,-0.080
5943,-0.310,-0.020
5944,-0.300,0.010
5945,-0.285,0.015
5946,-0.280,0.010
5947,-0.280,0.015
5948,-0.285,0.025
5949,-0.265,0.045
5950,-0.260,0.045
5951,-0.265,0.030
5952,-0.270,0.025
5953,-0.285,0.030
5954,-0.275,0.040
5955,-0.275,0.070
5956,-0.280,0.080
5957,-0.275,0.065
5958,-0.255,0.050
5959,-0.255,0.050
5960,-0.250,0.035
5961,-0.230,0.030
5962,-0.225,0.010
5963,-0.230,0.000
5964,-0.240,0.005
5965,-0.235,0.010
5966,-0.225,0.025
5967,-0.205,0.045
5968,-0.200,0.025
5969,-0.190,0.010
5970,-0.200,0.015
5971,-0.205,0.020
5972,-0.195,0.040
5973,-0.170,0.055
5974,-0.160,0.050
5975,-0.150,0.025
5976,-0.150,0.005
5977,-0.155,0.015
5978,-0.125,0.040
5979,-0.120,0.060
5980,-0.085,0.060
5981,-0.080,0.055
5982,-0.075,0.055
5983,-0.075,0.040
5984,-0.050,0.050
5985,-0.035,0.075
5986,-0.005,0.080
5987,-0.010,0.075
5988,-0.030,0.065
5989,-0.040,0.055
5990,-0.035,0.055
5991,0.015,0.050
5992,0.030,0.050
5993,0.025,0.040
5994,0.005,0.030
5995,0.005,0.035
5996,0.020,0.060
5997,0.040,0.075
5998,0.045,0.065
5999,0.035,0.040
6000,0.015,0.025
6001,0.025,0.025
6002,0.035,0.045
6003,0.065,0.070
6004,0.070,0.060
6005,0.065,0.050
6006,0.040,0.040
6007,0.035,0.060
6008,0.025,0.070
6009,0.040,0.075
6010,0.040,0.070
6011,0.025,0.075
6012,0.000,0.055
6013,0.010,0.045
6014,0.000,0.045
6015,-0.015,0.035
6016,-0.030,0.015
6017,-0.055,-0.005
6018,-0.095,-0.020
6019,-0.120,-0.005
6020,-0.125,0.000
6021,-0.150,0.015
6022,-0.150,0.025
6023,-0.180,0.035
6024,-0.185,0.035
6025,-0.200,0.040
6026,-0.205,0.025
6027,-0.205,0.025
6028,-0.210,0.020
6029,-0.230,0.015
6030,-0.250,0.000
6031,-0.260,0.000
6032,-0.265,0.005
6033,-0.255,0.020
6034,-0.255,0.030
6035,-0.245,0.025
6036,-0.255,0.015
6037,-0.255,0.010
6038,-0.265,0.010
6039,-0.260,0.000
6040,-0.270,0.010
6041,-0.280,-0.010
6042,-0.290,-0.035
6043,-0.290,-0.020
6044,-0.270,-0.020
6045,-0.260,0.005
6046,-0.255,-0.005
6047,-0.265,-0.015
6048,-0.290,-0.025
6049,-0.270,-0.010
6050,-0.260,0.005
6051,-0.250,0.010
6052,-0.255,0.020
6053,-0.260,0.025
6054,-0.270,0.030
6055,-0.275,0.030
6056,-0.260,0.000
6057,-0.250,-0.005
6058,-0.255,-0.015
6059,-0.265,-0.040
6060,-0.260,-0.025
6061,-0.270,-0.030
6062,-0.255,0.005
6063,-0.245,0.025
6064,-0.255,0.015
6065,-0.260,-0.005
6066,-0.265,-0.040
6067,-0.275,-0.035
6068,-0.255,-0.005
6069,-0.245,0.005
6070,-0.245,0.005
6071,-0.265,-0.015
6072,-0.275,-0.025
6073,-0.280,-0.025
6074,-0.255,-0.015
6075,-0.250,-0.020
6076,-0.250,-0.030
6077,-0.260,-0.025
6078,-0.270,-0.030
6079,-0.275,-0.025
6080,-0.270,-0.005
6081,-0.250,0.015
6082,-0.245,0.005
6083,-0.245,-0.015
6084,-0.245,-0.020
6085,-0.235,-0.020
6086,-0.205,-0.015
6087,-0.215,-0.005
6088,-0.215,-0.015
6089,-0.230,0.010
6090,-0.225,0.010
6091,-0.220,0.015
6092,-0.210,-0.005
6093,-0.195,-0.005
6094,-0.210,-0.020
6095,-0.225,-0.060
6096,-0.230,-0.090
6097,-0.225,-0.080
6098,-0.220,-0.055
6099,-0.225,-0.070
6100,-0.225,-0.095
6101,-0.225,-0.110
6102,-0.255,-0.120
6103,-0.280,-0.115
6104,-0.275,-0.085
6105,-0.275,-0.065
6106,-0.270,-0.055
6107,-0.275,-0.055
6108,-0.275,-0.060
6109,-0.280,-0.055
6110,-0.280,-0.030
6111,-0.285,0.000
6112,-0.300,0.015
6113,-0.315,0.000
6114,-0.340,-0.045
6115,-0.350,-0.070
6116,-0.350,-0.080
6117,-0.335,-0.065
6118,-0.325,-0.060
6119,-0.345,-0.045
6120,-0.345,-0.040
6121,-0.365,-0.030
6122,-0.355,-0.040
6123,-0.340,-0.050
6124,-0.335,-0.055
6125,-0.340,-0.070
6126,-0.350,-0.100
6127,-0.365,-0.105
6128,-0.360,-0.070
6129,-0.340,-0.055
6130,-0.330,-0.055
6131,-0.345,-0.045
6132,-0.365,-0.050
6133,-0.370,-0.030
6134,-0.385,-0.015
6135,-0.390,0.015
6136,-0.410,0.045
6137,-0.410,0.085
6138,-0.405,0.080
6139,-0.325,0.095
6140,-0.175,0.090
6141,0.010,0.090
6142,0.225,0.070
6143,0.480,0.070
6144,0.745,0.070
6145,0.935,0.065
6146,1.000,0.035
6147,0.870,-0.045
6148,0.580,-0.140
6149,0.235,-0.230
6150,-0.190,-0.245
6151,-0.620,-0.220
6152,-0.950,-0.195
6153,-1.035,-0.165
6154,-0.965,-0.170
6155,-0.895,-0.195
6156,-0.820,-0.215
6157,-0.715,-0.215
6158,-0.605,-0.220
6159,-0.500,-0.170
6160,-0.455,-0.155
6161,-0.420,-0.135
6162,-0.420,-0.115
6163,-0.415,-0.080
6164,-0.385,-0.060
6165,-0.370,-0.035
6166,-0.370,-0.040
6167,-0.375,-0.045
6168,-0.400,-0.030
6169,-0.390,-0.015
6170,-0.380,0.005
6171,-0.370,0.015
6172,-0.345,0.000
6173,-0.350,-0.035
6174,-0.355,-0.055
6175,-0.370,-0.065
6176,-0.365,-0.050
6177,-0.360,-0.050
6178,-0.350,-0.030
6179,-0.360,-0.015
6180,-0.360,-0.010
6181,-0.365,-0.005
6182,-0.345,-0.010
6183,-0.325,-0.030
6184,-0.320,-0.035
6185,-0.335,-0.035
6186,-0.330,-0.040
6187,-0.325,-0.040
6188,-0.315,-0.020
6189,-0.290,0.000
6190,-0.285,-0.005
6191,-0.285,-0.025
6192,-0.290,-0.040
6193,-0.285,-0.035
6194,-0.265,-0.025
6195,-0.255,-0.010
6196,-0.235,-0.010
6197,-0.240,-0.015
6198,-0.250,-0.020
6199,-0.245,0.015
6200,-0.230,0.035
6201,-0.210,0.045
6202,-0.200,0.030
6203,-0.175,0.020
6204,-0.170,-0.025
6205,-0.160,-0.025
6206,-0.160,-0.010
6207,-0.155,0.005
6208,-0.125,0.005
6209,-0.115,0.010
6210,-0.115,0.000
6211,-0.110,0.005
6212,-0.085,0.005
6213,-0.070,0.030
6214,-0.070,0.040
6215,-0.065,0.035
6216,-0.065,0.025
6217,-0.055,0.030
6218,-0.035,0.025
6219,-0.030,0.010
6220,-0.025,0.000
6221,-0.035,0.000
6222,-0.040,0.030
6223,-0.035,0.025
6224,-0.025,0.045
6225,-0.010,0.040
6226,-0.015,0.045
6227,-0.030,0.035
6228,-0.025,0.020
6229,-0.030,0.010
6230,-0.015,0.020
6231,-0.010,0.010
6232,-0.015,-0.005
6233,-0.040,-0.010
6234,-0.080,0.000
6235,-0.090,0.010
6236,-0.095,0.040
6237,-0.100,0.050
6238,-0.095,0.035
6239,-0.105,0.005
6240,-0.130,-0.005
6241,-0.150,-0.005
6242,-0.160,0.015
6243,-0.175,0.025
6244,-0.190,0.015
6245,-0.195,-0.005
6246,-0.205,-0.005
6247,-0.220,0.010
6248,-0.215,0.030
6249,-0.210,0.035
6250,-0.215,0.030
6251,-0.245,0.045
6252,-0.275,0.040
6253,-0.280,0.035
6254,-0.280,0.040
6255,-0.265,0.025
6256,-0.260,0.030
6257,-0.265,0.015
6258,-0.280,0.000
6259,-0.280,-0.005
6260,-0.265,0.000
6261,-0.245,0.020
6262,-0.250,0.030
6263,-0.265,0.025
6264,-0.275,0.020
6265,-0.275,0.020
6266,-0.270,0.010
6267,-0.255,0.025
6268,-0.255,0.030
6269,-0.255,0.030
6270,-0.260,0.000
6271,-0.275,0.000
6272,-0.250,0.010
6273,-0.240,0.015
6274,-0.235,0.015
6275,-0.245,0.010
6276,-0.260,-0.010
6277,-0.265,-0.010
6278,-0.270,0.000
6279,-0.250,0.015
6280,-0.230,0.015
6281,-0.245,0.020
6282,-0.255,0.015
6283,-0.265,0.035
6284,-0.240,0.040
6285,-0.210,0.050
6286,-0.220,0.025
6287,-0.235,0.005
6288,-0.240,-0.025
6289,-0.240,-0.045
6290,-0.245,-0.020
6291,-0.225,-0.005
6292,-0.230,0.010
6293,-0.240,0.015
6294,-0.250,0.010
6295,-0.255,0.050
6296,-0.265,0.085
6297,-0.235,0.105
6298,-0.220,0.055
6299,-0.205,-0.025
6300,-0.230,-0.065
6301,-0.240,-0.050
6302,-0.230,-0.005
6303,-0.210,0.015
6304,-0.215,0.015
6305,-0.200,0.025
6306,-0.205,0.010
6307,-0.210,0.020
6308,-0.190,0.035
6309,-0.175,0.060
6310,-0.165,0.060
6311,-0.180,0.030
6312,-0.175,0.025
6313,-0.170,0.015
6314,-0.160,0.010
6315,-0.160,0.000
6316,-0.160,-0.030
6317,-0.170,-0.050
6318,-0.195,-0.055
6319,-0.185,-0.030
6320,-0.185,-0.015
6321,-0.165,-0.020
6322,-0.175,-0.030
6323,-0.185,-0.045
6324,-0.205,-0.050
6325,-0.220,-0.050
6326,-0.215,-0.050
6327,-0.235,-0.050
6328,-0.240,-0.050
6329,-0.235,-0.060
6330,-0.245,-0.070
6331,-0.230,-0.070
6332,-0.245,-0.055
6333,-0.230,-0.030
6334,-0.225,-0.010
6335,-0.220,-0.010
6336,-0.235,-0.005
6337,-0.240,0.015
6338,-0.240,0.015
6339,-0.255,0.010
6340,-0.260,0.020
6341,-0.300,0.000
6342,-0.330,0.005
6343,-0.320,0.005
6344,-0.305,0.015
6345,-0.290,0.015
6346,-0.295,0.020
6347,-0.305,0.015
6348,-0.310,0.000
6349,-0.330,0.010
6350,-0.330,0.040
6351,-0.320,0.075
6352,-0.320,0.090
6353,-0.320,0.055
6354,-0.315,0.035
6355,-0.305,0.005
6356,-0.285,-0.020
6357,-0.275,-0.035
6358,-0.270,-0.045
6359,-0.290,-0.035
6360,-0.295,-0.015
6361,-0.320,-0.010
6362,-0.305,0.010
6363,-0.310,0.020
6364,-0.340,0.035
6365,-0.365,0.065
6366,-0.375,0.085
6367,-0.350,0.120
6368,-0.260,0.140
6369,-0.140,0.150
6370,0.020,0.145
6371,0.205,0.150
6372,0.400,0.155
6373,0.640,0.195
6374,0.880,0.180
6375,1.050,0.140
6376,1.080,0.050
6377,0.895,-0.065
6378,0.595,-0.180
6379,0.215,-0.225
6380,-0.215,-0.215
6381,-0.645,-0.210
6382,-0.915,-0.205
6383,-0.960,-0.230
6384,-0.885,-0.230
6385,-0.780,-0.210
6386,-0.655,-0.165
6387,-0.535,-0.120
6388,-0.460,-0.090
6389,-0.425,-0.060
6390,-0.415,-0.040
6391,-0.395,0.005
6392,-0.365,0.055
6393,-0.335,0.055
6394,-0.310,0.010
6395,-0.320,-0.035
6396,-0.330,-0.060
6397,-0.350,-0.045
6398,-0.325,-0.035
6399,-0.325,-0.015
6400,-0.310,-0.010
6401,-0.305,-0.015
6402,-0.330,0.000
6403,-0.335,0.010
6404,-0.325,0.015
6405,-0.305,0.015
6406,-0.315,0.000
6407,-0.330,0.005
6408,-0.340,-0.005
6409,-0.330,0.000
6410,-0.320,0.040
6411,-0.320,0.060
6412,-0.300,0.040
6413,-0.305,0.020
6414,-0.320,0.025
6415,-0.310,0.045
6416,-0.290,0.040
6417,-0.275,0.045
6418,-0.275,0.020
6419,-0.265,0.010
6420,-0.280,0.010
6421,-0.270,0.025
6422,-0.260,0.035
6423,-0.250,0.045
6424,-0.235,0.055
6425,-0.245,0.040
6426,-0.260,0.035
6427,-0.250,0.035
6428,-0.235,0.050
6429,-0.230,0.080
6430,-0.205,0.095
6431,-0.210,0.100
6432,-0.200,0.095
6433,-0.180,0.050
6434,-0.160,0.020
6435,-0.135,0.015
6436,-0.120,0.030
6437,-0.140,0.040
6438,-0.115,0.045
6439,-0.115,0.050
6440,-0.100,0.060
6441,-0.065,0.075
6442,-0.040,0.065
6443,-0.050,0.040
6444,-0.050,0.055
6445,-0.040,0.060
6446,-0.030,0.080
6447,-0.025,0.065
6448,-0.010,0.070
6449,-0.015,0.065
6450,-0.020,0.070
6451,-0.025,0.075
6452,-0.020,0.090
6453,0.000,0.100
6454,0.010,0.095
6455,0.010,0.085
6456,-0.005,0.065
6457,-0.010,0.065
6458,-0.010,0.090
6459,-0.005,0.095
6460,0.015,0.085
6461,-0.005,0.070
6462,-0.020,0.060
6463,-0.010,0.070
6464,-0.015,0.095
6465,-0.015,0.105
6466,0.000,0.085
6467,-0.020,0.065
6468,-0.030,0.035
6469,-0.055,0.040
6470,-0.050,0.060
6471,-0.045,0.090
6472,-0.055,0.075
6473,-0.075,0.060
6474,-0.095,0.035
6475,-0.120,0.020
6476,-0.130,0.050
6477,-0.130,0.055
6478,-0.145,0.045
6479,-0.180,0.025
6480,-0.195,0.035
6481,-0.215,0.050
6482,-0.220,0.060
6483,-0.210,0.050
6484,-0.215,0.040
6485,-0.215,0.025
6486,-0.230,0.010
6487,-0.250,0.010
6488,-0.240,0.020
6489,-0.235,0.020
6490,-0.235,0.015
6491,-0.245,0.015
6492,-0.245,0.000
6493,-0.265,0.020
6494,-0.265,0.045
6495,-0.260,0.065
6496,-0.245,0.045
6497,-0.250,0.060
6498,-0.265,0.050
6499,-0.270,0.070
6500,-0.280,0.080
6501,-0.270,0.080
6502,-0.260,0.075
6503,-0.270,0.025
6504,-0.275,-0.010
6505,-0.275,-0.015
6506,-0.250,0.000
6507,-0.250,0.030
6508,-0.250,0.015
6509,-0.255,-0.010
6510,-0.260,-0.040
6511,-0.285,-0.030
6512,-0.270,-0.005
6513,-0.265,0.015
6514,-0.260,0.025
6515,-0.270,0.010
6516,-0.285,-0.020
6517,-0.305,-0.015
6518,-0.280,-0.005
6519,-0.275,-0.010
6520,-0.265,-0.005
6521,-0.275,0.000
6522,-0.290,-0.005
6523,-0.290,-0.005
6524,-0.270,0.005
6525,-0.260,0.005
6526,-0.265,0.015
6527,-0.275,0.015
6528,-0.280,-0.005
6529,-0.310,-0.005
6530,-0.300,0.005
6531,-0.285,0.040
6532,-0.280,0.035
6533,-0.290,0.015
6534,-0.290,-0.005
6535,-0.280,0.005
6536,-0.270,0.040
6537,-0.265,0.075
6538,-0.265,0.075
6539,-0.295,0.050
6540,-0.300,0.030
6541,-0.300,0.025
6542,-0.275,0.025
6543,-0.255,0.025
6544,-0.245,0.000
6545,-0.240,-0.025
6546,-0.245,-0.025
6547,-0.235,-0.005
6548,-0.210,0.015
6549,-0.200,0.040
6550,-0.210,0.030
6551,-0.215,0.015
6552,-0.230,0.015
6553,-0.230,0.015
6554,-0.215,0.045
6555,-0.200,0.055
6556,-0.210,0.040
6557,-0.220,0.030
6558,-0.220,0.030
6559,-0.225,0.015
6560,-0.225,-0.015
6561,-0.220,-0.045
6562,-0.220,-0.060
6563,-0.215,-0.065
6564,-0.230,-0.055
6565,-0.235,-0.065
6566,-0.245,-0.025
6567,-0.235,-0.020
6568,-0.240,-0.025
6569,-0.250,-0.045
6570,-0.275,-0.070
6571,-0.285,-0.070
6572,-0.270,-0.065
6573,-0.270,-0.060
6574,-0.255,-0.070
6575,-0.275,-0.080
6576,-0.295,-0.065
6577,-0.295,-0.050
6578,-0.285,-0.015
6579,-0.255,0.005
6580,-0.255,0.000
6581,-0.285,-0.015
6582,-0.300,-0.040
6583,-0.335,-0.020
6584,-0.335,-0.010
6585,-0.330,0.005
6586,-0.345,0.010
6587,-0.355,0.010
6588,-0.365,-0.015
6589,-0.370,-0.030
6590,-0.365,-0.025
6591,-0.340,-0.005
6592,-0.330,0.020
6593,-0.350,0.005
6594,-0.375,-0.045
6595,-0.390,-0.035
6596,-0.385,-0.030
6597,-0.370,-0.010
6598,-0.340,-0.005
6599,-0.345,-0.010
6600,-0.350,-0.030
6601,-0.350,-0.020
6602,-0.340,-0.005
6603,-0.345,0.005
6604,-0.365,0.005
6605,-0.375,-0.005
6606,-0.365,-0.005
6607,-0.370,-0.005
6608,-0.390,-0.015
6609,-0.405,0.015
6610,-0.430,0.035
6611,-0.445,0.060
6612,-0.445,0.060
6613,-0.405,0.065
6614,-0.325,0.080
6615,-0.195,0.095
6616,-0.040,0.095
6617,0.165,0.100
6618,0.405,0.120
6619,0.670,0.145
6620,0.900,0.130
6621,1.015,0.095
6622,0.970,0.010
6623,0.755,-0.120
6624,0.465,-0.215
6625,0.100,-0.245
6626,-0.340,-0.200
6627,-0.755,-0.185
6628,-0.955,-0.175
6629,-0.975,-0.200
6630,-0.925,-0.225
6631,-0.840,-0.205
6632,-0.725,-0.175
6633,-0.610,-0.155
6634,-0.530,-0.150
6635,-0.485,-0.165
6636,-0.470,-0.135
6637,-0.460,-0.100
6638,-0.435,-0.075
6639,-0.425,-0.055
6640,-0.400,-0.035
6641,-0.400,-0.020
6642,-0.420,0.005
6643,-0.410,0.010
6644,-0.385,0.020
6645,-0.370,0.020
6646,-0.365,0.005
6647,-0.365,-0.005
6648,-0.375,0.000
6649,-0.395,-0.010
6650,-0.380,-0.020
6651,-0.360,-0.010
6652,-0.350,-0.005
6653,-0.360,-0.015
6654,-0.380,-0.020
6655,-0.395,-0.015
6656,-0.380,0.005
6657,-0.355,0.010
6658,-0.330,0.005
6659,-0.335,-0.015
6660,-0.360,-0.020
6661,-0.355,-0.025
6662,-0.320,-0.005
6663,-0.290,0.025
6664,-0.295,0.015
6665,-0.275,0.005
6666,-0.295,-0.025
6667,-0.300,-0.055
6668,-0.290,-0.035
6669,-0.290,-0.020
6670,-0.290,0.000
6671,-0.305,0.005
6672,-0.310,0.025
6673,-0.285,0.005
6674,-0.245,0.000
6675,-0.220,-0.010
6676,-0.205,-0.020
6677,-0.210,-0.020
6678,-0.210,-0.020
6679,-0.195,-0.015
6680,-0.180,-0.015
6681,-0.155,0.000
6682,-0.140,0.000
6683,-0.135,-0.020
6684,-0.150,-0.005
6685,-0.135,0.015
6686,-0.110,0.005
6687,-0.085,0.000
6688,-0.065,0.000
6689,-0.060,0.010
6690,-0.075,0.015
6691,-0.045,0.025
6692,-0.035,0.035
6693,-0.050,0.030
6694,-0.060,0.010
6695,-0.075,-0.010
6696,-0.075,-0.020
6697,-0.075,-0.005
6698,-0.060,0.010
6699,-0.045,0.040
6700,-0.020,0.030
6701,-0.035,0.010
6702,-0.040,0.005
6703,-0.045,0.010
6704,-0.030,0.010
6705,-0.040,0.035
6706,-0.035,0.045
6707,-0.045,0.040
6708,-0.050,0.025
6709,-0.055,0.000
6710,-0.055,-0.005
6711,-0.050,0.020
6712,-0.075,0.035
6713,-0.105,0.035
6714,-0.125,0.025
6715,-0.140,0.025
6716,-0.145,0.035
6717,-0.130,0.040
6718,-0.150,0.040
6719,-0.160,0.000
6720,-0.210,-0.010
6721,-0.225,0.000
6722,-0.220,0.035
6723,-0.230,0.065
6724,-0.230,0.050
6725,-0.245,0.015
6726,-0.265,-0.015
6727,-0.285,-0.025
6728,-0.280,-0.025
6729,-0.280,-0.030
6730,-0.280,-0.025
6731,-0.285,-0.035
6732,-0.285,-0.035
6733,-0.300,-0.025
6734,-0.310,-0.005
6735,-0.315,0.005
