'sample interval','MLII','V1'
'0.00277778 sec','mV','mV'
0,-0.835,-0.515
1,-0.835,-0.515
2,-0.835,-0.515
3,-0.835,-0.515
4,-0.835,-0.515
5,-0.835,-0.515
6,-0.835,-0.515
7,-0.815,-0.515
8,-0.815,-0.485
9,-0.830,-0.500
10,-0.840,-0.515
11,-0.850,-0.550
12,-0.875,-0.590
13,-0.885,-0.635
14,-0.920,-0.650
15,-0.970,-0.665
16,-1.010,-0.640
17,-1.040,-0.625
18,-1.065,-0.615
19,-1.095,-0.615
20,-1.085,-0.615
21,-1.065,-0.650
22,-1.070,-0.675
23,-1.060,-0.680
24,-1.050,-0.690
25,-1.060,-0.705
26,-1.060,-0.685
27,-1.065,-0.685
28,-1.065,-0.675
29,-1.065,-0.640
30,-1.080,-0.640
31,-1.080,-0.645
32,-1.115,-0.630
33,-1.115,-0.630
34,-1.095,-0.640
35,-1.070,-0.640
36,-1.055,-0.665
37,-1.055,-0.675
38,-1.075,-0.690
39,-1.100,-0.680
40,-1.100,-0.690
41,-1.115,-0.680
42,-1.110,-0.685
43,-1.110,-0.695
44,-1.105,-0.700
45,-1.105,-0.705
46,-1.110,-0.695
47,-1.100,-0.680
48,-1.105,-0.685
49,-1.090,-0.650
50,-1.090,-0.655
51,-1.080,-0.660
52,-1.065,-0.700
53,-1.080,-0.720
54,-1.050,-0.765
55,-1.035,-0.845
56,-0.995,-0.930
57,-0.900,-1.035
58,-0.755,-1.175
59,-0.570,-1.330
60,-0.395,-1.485
61,-0.275,-1.610
62,-0.235,-1.670
63,-0.240,-1.610
64,-0.230,-1.500
65,-0.200,-1.325
66,-0.130,-1.175
67,-0.015,-1.040
68,0.110,-0.910
69,0.225,-0.755
70,0.245,-0.510
71,0.155,-0.195
72,-0.140,0.110
73,-0.575,0.340
74,-1.080,0.405
75,-1.500,0.300
76,-1.790,0.070
77,-1.920,-0.210
78,-1.980,-0.445
79,-2.010,-0.610
80,-2.050,-0.695
81,-2.120,-0.740
82,-2.170,-0.775
83,-2.170,-0.800
84,-2.140,-0.855
85,-2.075,-0.925
86,-2.060,-0.985
87,-2.045,-1.005
88,-2.025,-1.010
89,-1.985,-0.970
90,-1.950,-0.950
91,-1.900,-0.965
92,-1.800,-0.950
93,-1.685,-0.960
94,-1.570,-0.930
95,-1.445,-0.920
96,-1.335,-0.875
97,-1.230,-0.840
98,-1.175,-0.760
99,-1.140,-0.700
100,-1.150,-0.645
101,-1.170,-0.600
102,-1.170,-0.565
103,-1.140,-0.565
104,-1.095,-0.585
105,-1.060,-0.605
106,-1.100,-0.620
107,-1.180,-0.610
108,-1.230,-0.595
109,-1.210,-0.585
110,-1.095,-0.600
111,-0.985,-0.635
112,-0.960,-0.670
113,-0.995,-0.710
114,-1.035,-0.705
115,-1.070,-0.720
116,-1.080,-0.705
117,-1.040,-0.720
118,-1.015,-0.755
119,-0.995,-0.775
120,-1.010,-0.785
121,-1.045,-0.800
122,-1.085,-0.785
123,-1.115,-0.770
124,-1.105,-0.775
125,-1.105,-0.785
126,-1.125,-0.830
127,-1.140,-0.885
128,-1.175,-0.935
129,-1.185,-0.970
130,-1.175,-0.995
131,-1.185,-0.990
132,-1.205,-0.990
133,-1.200,-0.975
134,-1.205,-0.965
135,-1.200,-0.960
136,-1.165,-0.960
137,-1.130,-0.970
138,-1.135,-0.985
139,-1.150,-1.000
140,-1.210,-1.050
141,-1.225,-1.040
142,-1.205,-1.060
143,-1.215,-1.055
144,-1.230,-1.045
145,-1.265,-1.065
146,-1.260,-1.055
147,-1.210,-1.050
148,-1.150,-1.055
149,-1.150,-1.080
150,-1.175,-1.125
151,-1.205,-1.145
152,-1.250,-1.165
153,-1.320,-1.160
154,-1.395,-1.150
155,-1.470,-1.140
156,-1.495,-1.150
157,-1.485,-1.160
158,-1.430,-1.120
159,-1.375,-1.095
160,-1.335,-1.075
161,-1.275,-1.030
162,-1.210,-0.985
163,-1.155,-0.975
164,-1.160,-0.965
165,-1.215,-0.960
166,-1.270,-0.975
167,-1.300,-0.975
168,-1.290,-0.980
169,-1.260,-0.980
170,-1.215,-0.975
171,-1.170,-0.965
172,-1.135,-0.955
173,-1.090,-0.935
174,-1.065,-0.930
175,-1.040,-0.925
176,-1.035,-0.930
177,-1.025,-0.925
178,-1.055,-0.900
179,-1.070,-0.885
180,-1.070,-0.860
181,-1.040,-0.845
182,-0.990,-0.825
183,-0.960,-0.810
184,-0.920,-0.820
185,-0.885,-0.830
186,-0.875,-0.830
187,-0.890,-0.830
188,-0.890,-0.830
189,-0.915,-0.820
190,-0.965,-0.790
191,-1.005,-0.765
192,-1.035,-0.725
193,-1.040,-0.720
194,-0.975,-0.700
195,-0.905,-0.690
196,-0.885,-0.690
197,-0.850,-0.700
198,-0.855,-0.700
199,-0.905,-0.705
200,-0.920,-0.705
201,-0.955,-0.695
202,-0.980,-0.680
203,-0.955,-0.670
204,-0.940,-0.670
205,-0.935,-0.660
206,-0.950,-0.655
207,-0.960,-0.635
208,-0.920,-0.635
209,-0.915,-0.625
210,-0.900,-0.665
211,-0.930,-0.675
212,-0.945,-0.675
213,-0.945,-0.660
214,-0.925,-0.665
215,-0.915,-0.650
216,-0.970,-0.665
217,-1.035,-0.695
218,-1.060,-0.685
219,-1.050,-0.680
220,-1.005,-0.695
221,-0.940,-0.700
222,-0.925,-0.685
223,-0.920,-0.680
224,-0.925,-0.670
225,-0.930,-0.670
226,-0.925,-0.660
227,-0.930,-0.670
228,-0.935,-0.675
229,-0.925,-0.685
230,-0.940,-0.675
231,-0.985,-0.640
232,-1.040,-0.615
233,-1.075,-0.615
234,-1.040,-0.610
235,-0.975,-0.645
236,-0.935,-0.680
237,-0.905,-0.745
238,-0.900,-0.750
239,-0.960,-0.765
240,-1.020,-0.745
241,-1.070,-0.710
242,-1.060,-0.680
243,-1.020,-0.675
244,-0.955,-0.660
245,-0.890,-0.690
246,-0.850,-0.710
247,-0.870,-0.730
248,-0.915,-0.730
249,-0.975,-0.730
250,-1.040,-0.705
251,-1.045,-0.685
252,-1.025,-0.680
253,-0.975,-0.670
254,-0.935,-0.705
255,-0.905,-0.720
256,-0.925,-0.720
257,-0.940,-0.730
258,-0.950,-0.705
259,-0.955,-0.705
260,-0.980,-0.690
261,-0.975,-0.695
262,-0.975,-0.720
263,-0.985,-0.740
264,-0.990,-0.740
265,-0.965,-0.755
266,-0.950,-0.760
267,-0.930,-0.730
268,-0.890,-0.720
269,-0.865,-0.705
270,-0.880,-0.730
271,-0.875,-0.750
272,-0.925,-0.745
273,-0.960,-0.735
274,-0.970,-0.725
275,-0.980,-0.730
276,-0.940,-0.735
277,-0.900,-0.745
278,-0.910,-0.745
279,-0.920,-0.750
280,-0.945,-0.745
281,-0.915,-0.735
282,-0.860,-0.735
283,-0.820,-0.735
284,-0.835,-0.735
285,-0.870,-0.755
286,-0.875,-0.760
287,-0.855,-0.750
288,-0.820,-0.750
289,-0.760,-0.785
290,-0.730,-0.825
291,-0.700,-0.865
292,-0.690,-0.865
293,-0.700,-0.865
294,-0.745,-0.800
295,-0.780,-0.740
296,-0.830,-0.695
297,-0.830,-0.690
298,-0.835,-0.685
299,-0.820,-0.715
300,-0.815,-0.770
301,-0.840,-0.810
302,-0.850,-0.820
303,-0.875,-0.760
304,-0.800,-0.695
305,-0.725,-0.625
306,-0.675,-0.590
307,-0.650,-0.590
308,-0.670,-0.605
309,-0.740,-0.605
310,-0.815,-0.630
311,-0.900,-0.645
312,-0.930,-0.680
313,-0.910,-0.710
314,-0.880,-0.745
315,-0.840,-0.775
316,-0.855,-0.805
317,-0.870,-0.815
318,-0.900,-0.775
319,-0.950,-0.765
320,-1.010,-0.750
321,-1.050,-0.750
322,-1.075,-0.765
323,-1.085,-0.785
324,-1.095,-0.800
325,-1.070,-0.795
326,-1.045,-0.775
327,-1.000,-0.765
328,-0.950,-0.745
329,-0.930,-0.750
330,-0.930,-0.765
331,-0.955,-0.765
332,-0.980,-0.765
333,-1.010,-0.755
334,-1.020,-0.745
335,-0.995,-0.735
336,-1.010,-0.725
337,-1.000,-0.720
338,-1.005,-0.710
339,-1.010,-0.700
340,-0.985,-0.705
341,-0.965,-0.685
342,-0.955,-0.690
343,-0.910,-0.715
344,-0.880,-0.745
345,-0.865,-0.775
346,-0.895,-0.765
347,-0.970,-0.765
348,-1.050,-0.710
349,-1.060,-0.685
350,-0.995,-0.685
351,-0.910,-0.730
352,-0.850,-0.800
353,-0.850,-0.860
354,-0.905,-0.900
355,-0.950,-0.955
356,-1.010,-1.000
357,-0.995,-1.070
358,-0.910,-1.170
359,-0.785,-1.335
360,-0.645,-1.500
361,-0.490,-1.675
362,-0.410,-1.805
363,-0.370,-1.815
364,-0.370,-1.750
365,-0.370,-1.580
366,-0.325,-1.370
367,-0.185,-1.125
368,0.035,-0.920
369,0.280,-0.670
370,0.425,-0.410
371,0.410,-0.115
372,0.210,0.205
373,-0.170,0.440
374,-0.635,0.585
375,-1.055,0.590
376,-1.335,0.420
377,-1.515,0.180
378,-1.620,-0.045
379,-1.700,-0.230
380,-1.820,-0.365
381,-1.950,-0.395
382,-2.030,-0.460
383,-2.110,-0.520
384,-2.145,-0.565
385,-2.150,-0.630
386,-2.135,-0.675
387,-2.100,-0.680
388,-2.095,-0.675
389,-2.095,-0.650
390,-2.080,-0.625
391,-2.060,-0.645
392,-2.010,-0.695
393,-1.935,-0.735
394,-1.875,-0.770
395,-1.845,-0.805
396,-1.805,-0.820
397,-1.705,-0.800
398,-1.585,-0.745
399,-1.445,-0.660
400,-1.305,-0.620
401,-1.205,-0.600
402,-1.145,-0.605
403,-1.115,-0.620
404,-1.105,-0.625
405,-1.115,-0.605
406,-1.140,-0.620
407,-1.170,-0.605
408,-1.160,-0.600
409,-1.105,-0.570
410,-1.030,-0.550
411,-0.970,-0.550
412,-0.970,-0.555
413,-0.995,-0.565
414,-1.040,-0.545
415,-1.080,-0.560
416,-1.100,-0.575
417,-1.090,-0.605
418,-1.070,-0.625
419,-1.050,-0.660
420,-1.025,-0.675
421,-1.005,-0.675
422,-0.990,-0.680
423,-1.010,-0.665
424,-1.020,-0.655
425,-1.060,-0.655
426,-1.065,-0.655
427,-1.070,-0.655
428,-1.065,-0.680
429,-1.045,-0.705
430,-1.050,-0.735
431,-1.075,-0.765
432,-1.105,-0.775
433,-1.130,-0.775
434,-1.150,-0.775
435,-1.170,-0.760
436,-1.185,-0.780
437,-1.205,-0.800
438,-1.185,-0.790
439,-1.170,-0.820
440,-1.155,-0.845
441,-1.155,-0.870
442,-1.160,-0.900
443,-1.160,-0.900
444,-1.170,-0.900
445,-1.190,-0.885
446,-1.245,-0.885
447,-1.295,-0.895
448,-1.310,-0.885
449,-1.290,-0.905
450,-1.240,-0.910
451,-1.185,-0.935
452,-1.160,-0.980
453,-1.165,-1.010
454,-1.240,-1.015
455,-1.320,-0.995
456,-1.375,-0.980
457,-1.355,-0.960
458,-1.265,-0.975
459,-1.200,-0.990
460,-1.165,-1.040
461,-1.175,-1.060
462,-1.220,-1.050
463,-1.265,-1.005
464,-1.280,-0.990
465,-1.290,-0.990
466,-1.260,-1.000
467,-1.205,-1.040
468,-1.215,-1.060
469,-1.205,-1.065
470,-1.205,-1.020
471,-1.185,-0.950
472,-1.185,-0.905
473,-1.165,-0.870
474,-1.125,-0.860
475,-1.075,-0.880
476,-1.010,-0.925
477,-0.970,-0.935
478,-0.980,-0.945
479,-1.000,-0.940
480,-1.040,-0.905
481,-1.045,-0.875
482,-1.010,-0.845
483,-0.975,-0.820
484,-0.970,-0.810
485,-0.945,-0.770
486,-0.950,-0.745
487,-0.945,-0.715
488,-0.910,-0.705
489,-0.890,-0.685
490,-0.885,-0.695
491,-0.920,-0.720
492,-0.935,-0.735
493,-0.900,-0.735
494,-0.860,-0.730
495,-0.830,-0.720
496,-0.830,-0.690
497,-0.855,-0.685
498,-0.900,-0.645
499,-0.935,-0.645
500,-0.940,-0.640
501,-0.945,-0.650
502,-0.935,-0.650
503,-0.915,-0.650
504,-0.870,-0.655
505,-0.830,-0.650
506,-0.815,-0.670
507,-0.825,-0.665
508,-0.850,-0.655
509,-0.865,-0.650
510,-0.870,-0.640
511,-0.870,-0.635
512,-0.855,-0.620
513,-0.840,-0.615
514,-0.855,-0.605
515,-0.905,-0.600
516,-0.960,-0.595
517,-0.975,-0.585
518,-0.950,-0.615
519,-0.900,-0.610
520,-0.865,-0.630
521,-0.875,-0.625
522,-0.920,-0.660
523,-0.930,-0.655
524,-0.950,-0.660
525,-0.935,-0.650
526,-0.950,-0.680
527,-0.990,-0.690
528,-1.000,-0.680
529,-0.985,-0.690
530,-0.955,-0.685
531,-0.920,-0.680
532,-0.900,-0.670
533,-0.875,-0.665
534,-0.865,-0.645
535,-0.880,-0.650
536,-0.895,-0.645
537,-0.895,-0.665
538,-0.900,-0.675
539,-0.930,-0.665
540,-0.950,-0.670
541,-0.980,-0.655
542,-0.945,-0.635
543,-0.895,-0.620
544,-0.870,-0.595
545,-0.870,-0.595
546,-0.915,-0.630
547,-0.945,-0.635
548,-0.955,-0.660
549,-0.940,-0.655
550,-0.905,-0.660
551,-0.905,-0.645
552,-0.935,-0.640
553,-0.960,-0.645
554,-0.955,-0.660
555,-0.940,-0.665
556,-0.885,-0.675
557,-0.875,-0.670
558,-0.840,-0.640
559,-0.845,-0.620
560,-0.850,-0.605
561,-0.880,-0.575
562,-0.920,-0.560
563,-0.925,-0.540
564,-0.895,-0.565
565,-0.855,-0.590
566,-0.835,-0.615
567,-0.855,-0.610
568,-0.860,-0.610
569,-0.860,-0.610
570,-0.855,-0.590
571,-0.865,-0.595
572,-0.900,-0.595
573,-0.905,-0.590
574,-0.900,-0.595
575,-0.870,-0.630
576,-0.850,-0.670
577,-0.830,-0.725
578,-0.850,-0.730
579,-0.895,-0.730
580,-0.920,-0.685
581,-0.945,-0.645
582,-0.930,-0.615
583,-0.910,-0.605
584,-0.875,-0.605
585,-0.865,-0.625
586,-0.870,-0.620
587,-0.855,-0.610
588,-0.855,-0.625
589,-0.860,-0.635
590,-0.855,-0.625
591,-0.835,-0.600
592,-0.820,-0.590
593,-0.790,-0.590
594,-0.775,-0.600
595,-0.755,-0.630
596,-0.755,-0.665
597,-0.735,-0.700
598,-0.720,-0.695
599,-0.720,-0.710
600,-0.710,-0.685
601,-0.710,-0.635
602,-0.700,-0.585
603,-0.705,-0.535
604,-0.720,-0.525
605,-0.750,-0.535
606,-0.770,-0.525
607,-0.805,-0.570
608,-0.815,-0.575
609,-0.785,-0.610
610,-0.715,-0.590
611,-0.670,-0.585
612,-0.630,-0.565
613,-0.655,-0.545
614,-0.685,-0.485
615,-0.720,-0.445
616,-0.715,-0.410
617,-0.700,-0.385
618,-0.745,-0.400
619,-0.820,-0.435
620,-0.895,-0.470
621,-0.925,-0.490
622,-0.910,-0.510
623,-0.885,-0.545
624,-0.865,-0.565
625,-0.835,-0.590
626,-0.845,-0.605
627,-0.880,-0.610
628,-0.895,-0.615
629,-0.905,-0.610
630,-0.925,-0.605
631,-0.935,-0.595
632,-0.965,-0.580
633,-0.975,-0.575
634,-0.980,-0.590
635,-0.985,-0.605
636,-0.990,-0.640
637,-0.965,-0.665
638,-0.935,-0.645
639,-0.905,-0.655
640,-0.895,-0.635
641,-0.925,-0.620
642,-0.960,-0.620
643,-0.990,-0.620
644,-1.030,-0.610
645,-1.025,-0.620
646,-1.000,-0.640
647,-0.975,-0.655
648,-0.975,-0.665
649,-0.995,-0.675
650,-1.000,-0.655
651,-0.975,-0.620
652,-0.935,-0.595
653,-0.940,-0.575
654,-0.925,-0.585
655,-0.955,-0.615
656,-0.990,-0.625
657,-1.010,-0.635
658,-1.015,-0.650
659,-1.005,-0.675
660,-1.025,-0.720
661,-1.035,-0.800
662,-1.015,-0.900
663,-0.915,-1.025
664,-0.765,-1.185
665,-0.610,-1.370
666,-0.455,-1.550
667,-0.350,-1.705
668,-0.325,-1.770
669,-0.355,-1.720
670,-0.400,-1.570
671,-0.370,-1.370
672,-0.230,-1.155
673,-0.005,-0.970
674,0.245,-0.755
675,0.420,-0.505
676,0.435,-0.200
677,0.260,0.090
678,-0.100,0.325
679,-0.535,0.435
680,-0.975,0.420
681,-1.335,0.285
682,-1.605,0.050
683,-1.770,-0.165
684,-1.865,-0.330
685,-1.900,-0.410
686,-1.930,-0.490
687,-1.945,-0.525
688,-1.985,-0.590
689,-2.045,-0.655
690,-2.085,-0.725
691,-2.120,-0.765
692,-2.110,-0.800
693,-2.085,-0.795
694,-2.090,-0.775
695,-2.085,-0.760
696,-2.065,-0.770
697,-2.020,-0.765
698,-1.970,-0.785
699,-1.905,-0.780
700,-1.830,-0.765
701,-1.755,-0.765
702,-1.660,-0.720
703,-1.530,-0.670
704,-1.400,-0.630
705,-1.285,-0.595
706,-1.185,-0.575
707,-1.120,-0.560
708,-1.110,-0.585
709,-1.115,-0.585
710,-1.130,-0.595
711,-1.150,-0.535
712,-1.125,-0.505
713,-1.105,-0.465
714,-1.060,-0.430
715,-1.015,-0.420
716,-1.010,-0.445
717,-0.990,-0.485
718,-0.970,-0.530
719,-0.980,-0.525
720,-1.040,-0.540
721,-1.125,-0.540
722,-1.180,-0.530
723,-1.200,-0.500
724,-1.145,-0.485
725,-1.085,-0.490
726,-1.025,-0.505
727,-0.995,-0.530
728,-0.955,-0.580
729,-0.955,-0.600
730,-0.975,-0.640
731,-1.005,-0.650
732,-1.080,-0.655
733,-1.150,-0.645
734,-1.185,-0.645
735,-1.175,-0.665
736,-1.160,-0.670
737,-1.145,-0.685
738,-1.155,-0.720
739,-1.155,-0.740
740,-1.160,-0.755
741,-1.160,-0.775
742,-1.205,-0.795
743,-1.240,-0.810
744,-1.285,-0.815
745,-1.305,-0.825
746,-1.305,-0.825
747,-1.295,-0.805
748,-1.270,-0.815
749,-1.240,-0.815
750,-1.220,-0.840
751,-1.200,-0.860
752,-1.195,-0.885
753,-1.225,-0.875
754,-1.265,-0.885
755,-1.285,-0.870
756,-1.320,-0.860
757,-1.340,-0.880
758,-1.360,-0.895
759,-1.360,-0.910
760,-1.355,-0.925
761,-1.305,-0.940
762,-1.240,-0.940
763,-1.210,-0.965
764,-1.210,-0.940
765,-1.200,-0.970
766,-1.230,-0.975
767,-1.265,-0.980
768,-1.290,-0.985
769,-1.315,-0.990
770,-1.335,-0.985
771,-1.320,-0.965
772,-1.310,-0.945
773,-1.275,-0.910
774,-1.245,-0.880
775,-1.200,-0.875
776,-1.170,-0.870
777,-1.165,-0.860
778,-1.125,-0.865
779,-1.125,-0.865
780,-1.095,-0.870
781,-1.065,-0.850
782,-1.055,-0.815
783,-1.035,-0.770
784,-1.020,-0.765
785,-1.015,-0.730
786,-1.065,-0.695
787,-1.130,-0.700
788,-1.160,-0.680
789,-1.070,-0.685
790,-0.975,-0.680
791,-0.885,-0.720
792,-0.840,-0.730
793,-0.845,-0.745
794,-0.865,-0.720
795,-0.920,-0.675
796,-0.945,-0.620
797,-0.950,-0.590
798,-0.935,-0.565
799,-0.935,-0.570
800,-0.955,-0.595
801,-0.970,-0.600
802,-0.965,-0.605
803,-0.950,-0.625
804,-0.930,-0.615
805,-0.935,-0.610
806,-0.940,-0.585
807,-0.965,-0.565
808,-0.945,-0.540
809,-0.965,-0.535
810,-0.970,-0.530
811,-0.975,-0.520
812,-0.960,-0.510
813,-0.990,-0.510
814,-1.030,-0.495
815,-1.080,-0.495
816,-1.030,-0.485
817,-0.950,-0.505
818,-0.865,-0.510
819,-0.815,-0.550
820,-0.815,-0.575
821,-0.835,-0.580
822,-0.900,-0.550
823,-0.960,-0.525
824,-1.015,-0.510
825,-1.040,-0.485
826,-1.055,-0.495
827,-1.020,-0.535
828,-1.005,-0.545
829,-0.995,-0.565
830,-1.005,-0.555
831,-1.020,-0.515
832,-1.045,-0.500
833,-1.035,-0.505
834,-1.010,-0.505
835,-0.950,-0.525
836,-0.925,-0.540
837,-0.915,-0.555
838,-0.925,-0.540
839,-0.950,-0.525
840,-0.970,-0.515
841,-1.015,-0.485
842,-1.025,-0.485
843,-0.995,-0.490
844,-0.950,-0.515
845,-0.905,-0.510
846,-0.895,-0.515
847,-0.925,-0.520
848,-0.940,-0.535
849,-0.955,-0.525
850,-0.970,-0.515
851,-0.975,-0.510
852,-0.990,-0.515
853,-1.005,-0.515
854,-1.025,-0.500
855,-1.045,-0.495
856,-1.025,-0.490
857,-0.990,-0.505
858,-0.960,-0.505
859,-0.945,-0.510
860,-0.915,-0.515
861,-0.915,-0.520
862,-0.905,-0.495
863,-0.910,-0.465
864,-0.915,-0.470
865,-0.940,-0.470
866,-0.935,-0.455
867,-0.935,-0.445
868,-0.970,-0.445
869,-0.985,-0.475
870,-0.985,-0.475
871,-0.950,-0.500
872,-0.900,-0.505
873,-0.835,-0.515
874,-0.780,-0.505
875,-0.775,-0.520
876,-0.795,-0.505
877,-0.850,-0.510
878,-0.910,-0.485
879,-0.955,-0.450
880,-0.965,-0.460
881,-0.945,-0.435
882,-0.935,-0.440
883,-0.910,-0.445
884,-0.915,-0.465
885,-0.925,-0.470
886,-0.950,-0.470
887,-0.955,-0.455
888,-0.945,-0.450
889,-0.935,-0.455
890,-0.900,-0.455
891,-0.900,-0.455
892,-0.855,-0.455
893,-0.835,-0.455
894,-0.850,-0.455
895,-0.870,-0.470
896,-0.865,-0.455
897,-0.850,-0.470
898,-0.800,-0.495
899,-0.795,-0.525
900,-0.790,-0.530
901,-0.765,-0.535
902,-0.745,-0.550
903,-0.745,-0.535
904,-0.745,-0.500
905,-0.760,-0.485
906,-0.760,-0.475
907,-0.730,-0.440
908,-0.715,-0.445
909,-0.715,-0.420
910,-0.740,-0.415
911,-0.760,-0.410
912,-0.805,-0.425
913,-0.840,-0.440
914,-0.875,-0.450
915,-0.855,-0.440
916,-0.820,-0.440
917,-0.750,-0.420
918,-0.700,-0.395
919,-0.660,-0.375
920,-0.625,-0.350
921,-0.640,-0.330
922,-0.695,-0.325
923,-0.775,-0.305
924,-0.910,-0.295
925,-0.960,-0.325
926,-0.960,-0.340
927,-0.930,-0.400
928,-0.895,-0.440
929,-0.855,-0.455
930,-0.860,-0.455
931,-0.870,-0.450
932,-0.895,-0.425
933,-0.890,-0.410
934,-0.915,-0.415
935,-0.965,-0.400
936,-1.030,-0.420
937,-1.085,-0.425
938,-1.070,-0.440
939,-1.050,-0.435
940,-1.030,-0.440
941,-1.005,-0.455
942,-0.980,-0.435
943,-0.965,-0.430
944,-0.955,-0.425
945,-0.950,-0.420
946,-0.940,-0.450
947,-0.920,-0.450
948,-0.870,-0.475
949,-0.845,-0.480
950,-0.860,-0.470
951,-0.870,-0.445
952,-0.895,-0.435
953,-0.900,-0.420
954,-0.905,-0.430
955,-0.900,-0.445
956,-0.940,-0.500
957,-0.935,-0.525
958,-0.925,-0.550
959,-0.935,-0.565
960,-0.935,-0.565
961,-0.975,-0.540
962,-1.015,-0.530
963,-1.030,-0.520
964,-1.050,-0.565
965,-1.050,-0.600
966,-1.015,-0.685
967,-0.940,-0.780
968,-0.840,-0.885
969,-0.725,-1.000
970,-0.595,-1.120
971,-0.460,-1.215
972,-0.320,-1.320
973,-0.220,-1.360
974,-0.185,-1.340
975,-0.190,-1.250
976,-0.215,-1.130
977,-0.190,-0.990
978,-0.140,-0.835
979,0.010,-0.705
980,0.175,-0.525
981,0.290,-0.280
982,0.295,0.040
983,0.135,0.370
984,-0.175,0.625
985,-0.605,0.740
986,-1.035,0.710
987,-1.415,0.520
988,-1.670,0.255
989,-1.845,-0.030
990,-1.940,-0.235
991,-1.985,-0.375
992,-2.015,-0.435
993,-2.020,-0.480
994,-2.010,-0.520
995,-2.020,-0.555
996,-2.050,-0.590
997,-2.090,-0.630
998,-2.115,-0.640
999,-2.135,-0.635
1000,-2.145,-0.615
1001,-2.150,-0.585
1002,-2.130,-0.580
1003,-2.095,-0.580
1004,-1.990,-0.600
1005,-1.875,-0.650
1006,-1.760,-0.660
1007,-1.620,-0.665
1008,-1.465,-0.645
1009,-1.355,-0.580
1010,-1.235,-0.495
1011,-1.175,-0.430
1012,-1.135,-0.365
1013,-1.140,-0.330
1014,-1.125,-0.335
1015,-1.115,-0.350
1016,-1.090,-0.395
1017,-1.055,-0.435
1018,-1.040,-0.445
1019,-1.025,-0.420
1020,-1.070,-0.370
1021,-1.125,-0.300
1022,-1.160,-0.265
1023,-1.120,-0.260
1024,-1.070,-0.285
1025,-1.030,-0.340
1026,-1.030,-0.395
1027,-1.025,-0.435
1028,-1.050,-0.450
1029,-1.075,-0.460
1030,-1.095,-0.460
1031,-1.110,-0.470
1032,-1.125,-0.460
1033,-1.115,-0.480
1034,-1.120,-0.470
1035,-1.115,-0.485
1036,-1.125,-0.465
1037,-1.140,-0.500
1038,-1.140,-0.525
1039,-1.140,-0.555
1040,-1.150,-0.595
1041,-1.165,-0.605
1042,-1.185,-0.645
1043,-1.190,-0.635
1044,-1.210,-0.635
1045,-1.210,-0.630
1046,-1.225,-0.605
1047,-1.220,-0.610
1048,-1.230,-0.630
1049,-1.245,-0.645
1050,-1.250,-0.670
1051,-1.265,-0.705
1052,-1.285,-0.755
1053,-1.295,-0.765
1054,-1.300,-0.780
1055,-1.320,-0.780
1056,-1.320,-0.785
1057,-1.315,-0.790
1058,-1.295,-0.765
1059,-1.295,-0.770
1060,-1.315,-0.775
1061,-1.345,-0.800
1062,-1.365,-0.795
1063,-1.390,-0.805
1064,-1.365,-0.825
1065,-1.330,-0.830
1066,-1.310,-0.845
1067,-1.305,-0.860
1068,-1.300,-0.875
1069,-1.310,-0.875
1070,-1.315,-0.860
1071,-1.310,-0.840
1072,-1.315,-0.830
1073,-1.300,-0.815
1074,-1.280,-0.800
1075,-1.250,-0.800
1076,-1.230,-0.775
1077,-1.215,-0.765
1078,-1.195,-0.760
1079,-1.205,-0.755
1080,-1.200,-0.755
1081,-1.190,-0.745
1082,-1.170,-0.735
1083,-1.145,-0.720
1084,-1.110,-0.685
1085,-1.090,-0.680
1086,-1.075,-0.660
1087,-1.045,-0.640
1088,-1.015,-0.620
1089,-1.000,-0.600
1090,-1.000,-0.580
1091,-1.020,-0.540
1092,-1.045,-0.510
1093,-1.045,-0.485
1094,-1.010,-0.495
1095,-0.990,-0.475
1096,-0.965,-0.460
1097,-0.950,-0.445
1098,-0.945,-0.450
1099,-0.945,-0.455
1100,-0.940,-0.460
1101,-0.945,-0.470
1102,-0.945,-0.480
1103,-0.970,-0.475
1104,-0.960,-0.465
1105,-0.950,-0.420
1106,-0.955,-0.380
1107,-0.945,-0.370
1108,-0.950,-0.355
1109,-0.975,-0.340
1110,-0.970,-0.370
1111,-0.960,-0.370
1112,-0.970,-0.385
1113,-0.975,-0.400
1114,-0.965,-0.410
1115,-0.980,-0.420
1116,-0.965,-0.420
1117,-0.975,-0.425
1118,-0.970,-0.425
1119,-0.965,-0.435
1120,-0.970,-0.435
1121,-0.990,-0.420
1122,-1.000,-0.440
1123,-1.015,-0.440
1124,-1.005,-0.470
1125,-1.015,-0.480
1126,-1.020,-0.465
1127,-1.025,-0.455
1128,-1.015,-0.420
1129,-1.005,-0.415
1130,-1.000,-0.385
1131,-0.995,-0.385
1132,-0.990,-0.400
1133,-0.985,-0.385
1134,-0.975,-0.400
1135,-0.975,-0.390
1136,-1.000,-0.425
1137,-1.015,-0.435
1138,-0.990,-0.455
1139,-0.980,-0.450
1140,-0.960,-0.465
1141,-0.970,-0.440
1142,-1.005,-0.430
1143,-1.020,-0.440
1144,-1.030,-0.435
1145,-1.050,-0.450
1146,-1.040,-0.465
1147,-1.025,-0.470
1148,-1.045,-0.475
1149,-1.045,-0.470
1150,-1.045,-0.470
1151,-1.050,-0.470
1152,-1.035,-0.465
1153,-1.055,-0.475
1154,-1.045,-0.450
1155,-1.040,-0.455
1156,-1.035,-0.435
1157,-1.015,-0.425
1158,-1.025,-0.440
1159,-1.010,-0.430
1160,-1.020,-0.425
1161,-1.010,-0.440
1162,-1.020,-0.460
1163,-0.995,-0.475
1164,-0.995,-0.470
1165,-0.990,-0.470
1166,-0.985,-0.435
1167,-1.000,-0.455
1168,-1.030,-0.430
1169,-1.035,-0.425
1170,-1.045,-0.435
1171,-1.065,-0.470
1172,-1.080,-0.480
1173,-1.090,-0.485
1174,-1.095,-0.505
1175,-1.080,-0.515
1176,-1.055,-0.520
1177,-1.045,-0.500
1178,-1.040,-0.475
1179,-1.050,-0.465
1180,-1.040,-0.455
1181,-1.050,-0.470
1182,-1.055,-0.480
1183,-1.035,-0.495
1184,-1.025,-0.500
1185,-1.020,-0.500
1186,-0.995,-0.515
1187,-0.985,-0.490
1188,-0.960,-0.470
1189,-0.950,-0.430
1190,-0.950,-0.400
1191,-0.960,-0.405
1192,-0.950,-0.410
1193,-0.965,-0.410
1194,-0.985,-0.425
1195,-0.980,-0.445
1196,-0.965,-0.465
1197,-0.945,-0.500
1198,-0.960,-0.505
1199,-0.955,-0.515
1200,-0.950,-0.525
1201,-0.960,-0.520
1202,-0.950,-0.515
1203,-0.935,-0.515
1204,-0.910,-0.500
1205,-0.860,-0.510
1206,-0.825,-0.500
1207,-0.800,-0.500
1208,-0.795,-0.480
1209,-0.785,-0.435
1210,-0.810,-0.395
1211,-0.835,-0.365
1212,-0.855,-0.370
1213,-0.885,-0.355
1214,-0.895,-0.405
1215,-0.905,-0.420
1216,-0.900,-0.460
1217,-0.875,-0.460
1218,-0.840,-0.450
1219,-0.805,-0.400
1220,-0.805,-0.345
1221,-0.790,-0.335
1222,-0.805,-0.290
1223,-0.810,-0.270
1224,-0.840,-0.260
1225,-0.855,-0.270
1226,-0.870,-0.295
1227,-0.895,-0.320
1228,-0.915,-0.355
1229,-0.935,-0.360
1230,-0.950,-0.385
1231,-0.960,-0.385
1232,-0.970,-0.405
1233,-0.965,-0.405
1234,-0.975,-0.415
1235,-0.965,-0.420
1236,-0.970,-0.450
1237,-0.975,-0.430
1238,-0.985,-0.445
1239,-0.995,-0.440
1240,-1.010,-0.440
1241,-1.000,-0.430
1242,-0.995,-0.455
1243,-1.005,-0.450
1244,-1.025,-0.445
1245,-1.045,-0.460
1246,-1.055,-0.425
1247,-1.065,-0.450
1248,-1.065,-0.475
1249,-1.075,-0.475
1250,-1.075,-0.490
1251,-1.060,-0.475
1252,-1.060,-0.465
1253,-1.060,-0.455
1254,-1.050,-0.505
1255,-1.045,-0.495
1256,-1.060,-0.530
1257,-1.065,-0.540
1258,-1.105,-0.535
1259,-1.125,-0.545
1260,-1.165,-0.555
1261,-1.175,-0.550
1262,-1.165,-0.555
1263,-1.130,-0.565
1264,-1.095,-0.565
1265,-1.090,-0.550
1266,-1.075,-0.535
1267,-1.080,-0.545
1268,-1.055,-0.590
1269,-1.060,-0.645
1270,-1.000,-0.740
1271,-0.910,-0.840
1272,-0.805,-0.970
1273,-0.660,-1.100
1274,-0.515,-1.205
1275,-0.360,-1.315
1276,-0.240,-1.375
1277,-0.185,-1.415
1278,-0.190,-1.355
1279,-0.205,-1.250
1280,-0.200,-1.110
1281,-0.160,-0.970
1282,-0.065,-0.790
1283,0.070,-0.635
1284,0.205,-0.455
1285,0.280,-0.220
1286,0.275,0.085
1287,0.140,0.370
1288,-0.120,0.615
1289,-0.495,0.730
1290,-0.905,0.690
1291,-1.280,0.515
1292,-1.575,0.240
1293,-1.765,-0.040
1294,-1.865,-0.270
1295,-1.905,-0.395
1296,-1.940,-0.460
1297,-1.970,-0.490
1298,-2.000,-0.540
1299,-2.030,-0.580
1300,-2.045,-0.630
1301,-2.050,-0.660
1302,-2.060,-0.670
1303,-2.085,-0.665
1304,-2.085,-0.675
1305,-2.095,-0.640
1306,-2.075,-0.625
1307,-2.045,-0.630
1308,-2.025,-0.645
1309,-1.975,-0.675
1310,-1.895,-0.670
1311,-1.785,-0.675
1312,-1.650,-0.660
1313,-1.505,-0.625
1314,-1.355,-0.585
1315,-1.245,-0.505
1316,-1.150,-0.460
1317,-1.085,-0.415
1318,-1.065,-0.385
1319,-1.090,-0.370
1320,-1.080,-0.395
1321,-1.095,-0.385
1322,-1.090,-0.385
1323,-1.055,-0.390
1324,-1.025,-0.365
1325,-1.005,-0.345
1326,-0.990,-0.350
1327,-0.980,-0.350
1328,-0.980,-0.370
1329,-0.995,-0.380
1330,-1.010,-0.390
1331,-1.030,-0.400
1332,-1.030,-0.400
1333,-1.040,-0.400
1334,-1.040,-0.385
1335,-1.030,-0.395
1336,-1.025,-0.390
1337,-1.015,-0.400
1338,-1.030,-0.415
1339,-1.040,-0.435
1340,-1.065,-0.465
1341,-1.075,-0.490
1342,-1.100,-0.495
1343,-1.105,-0.510
1344,-1.095,-0.535
1345,-1.100,-0.530
1346,-1.115,-0.550
1347,-1.115,-0.560
1348,-1.125,-0.565
1349,-1.130,-0.590
1350,-1.110,-0.590
1351,-1.130,-0.605
1352,-1.155,-0.630
1353,-1.170,-0.665
1354,-1.205,-0.675
1355,-1.215,-0.685
1356,-1.230,-0.715
1357,-1.240,-0.730
1358,-1.240,-0.740
1359,-1.235,-0.740
1360,-1.245,-0.740
1361,-1.235,-0.745
1362,-1.250,-0.735
1363,-1.260,-0.750
1364,-1.250,-0.775
1365,-1.270,-0.805
1366,-1.270,-0.815
1367,-1.290,-0.825
1368,-1.305,-0.855
1369,-1.310,-0.845
1370,-1.325,-0.845
1371,-1.320,-0.850
1372,-1.310,-0.850
1373,-1.300,-0.845
1374,-1.285,-0.855
1375,-1.270,-0.865
1376,-1.275,-0.860
1377,-1.270,-0.880
1378,-1.265,-0.865
1379,-1.270,-0.870
1380,-1.250,-0.865
1381,-1.275,-0.860
1382,-1.235,-0.855
1383,-1.215,-0.850
1384,-1.185,-0.825
1385,-1.160,-0.810
1386,-1.155,-0.790
1387,-1.135,-0.775
1388,-1.130,-0.770
1389,-1.130,-0.765
1390,-1.120,-0.750
1391,-1.095,-0.745
1392,-1.080,-0.740
1393,-1.070,-0.710
1394,-1.055,-0.670
1395,-1.030,-0.650
1396,-1.015,-0.625
1397,-0.990,-0.600
1398,-0.990,-0.590
1399,-0.975,-0.615
1400,-0.950,-0.620
1401,-0.945,-0.625
1402,-0.945,-0.605
1403,-0.940,-0.615
1404,-0.935,-0.585
1405,-0.930,-0.560
1406,-0.925,-0.540
1407,-0.900,-0.520
1408,-0.900,-0.520
1409,-0.875,-0.510
1410,-0.870,-0.485
1411,-0.875,-0.490
1412,-0.870,-0.495
1413,-0.865,-0.500
1414,-0.880,-0.495
1415,-0.885,-0.505
1416,-0.895,-0.500
1417,-0.890,-0.495
1418,-0.890,-0.495
1419,-0.890,-0.475
1420,-0.880,-0.470
1421,-0.880,-0.445
1422,-0.855,-0.450
1423,-0.865,-0.455
1424,-0.855,-0.445
1425,-0.880,-0.470
1426,-0.885,-0.470
1427,-0.880,-0.495
1428,-0.885,-0.495
1429,-0.890,-0.500
1430,-0.885,-0.480
1431,-0.900,-0.465
1432,-0.880,-0.455
1433,-0.870,-0.440
1434,-0.870,-0.445
1435,-0.885,-0.445
1436,-0.875,-0.445
1437,-0.885,-0.450
1438,-0.900,-0.455
1439,-0.905,-0.470
1440,-0.890,-0.490
1441,-0.900,-0.480
1442,-0.905,-0.480
1443,-0.895,-0.450
1444,-0.890,-0.440
1445,-0.890,-0.435
1446,-0.870,-0.420
1447,-0.870,-0.430
1448,-0.890,-0.435
1449,-0.885,-0.465
1450,-0.920,-0.480
1451,-0.910,-0.485
1452,-0.915,-0.475
1453,-0.905,-0.485
1454,-0.920,-0.480
1455,-0.880,-0.475
1456,-0.885,-0.465
1457,-0.860,-0.460
1458,-0.865,-0.455
1459,-0.880,-0.455
1460,-0.870,-0.480
1461,-0.875,-0.495
1462,-0.885,-0.495
1463,-0.890,-0.510
1464,-0.895,-0.510
1465,-0.895,-0.500
1466,-0.890,-0.500
1467,-0.880,-0.475
1468,-0.865,-0.475
1469,-0.855,-0.455
1470,-0.855,-0.475
1471,-0.870,-0.485
1472,-0.885,-0.480
1473,-0.885,-0.500
1474,-0.880,-0.500
1475,-0.880,-0.525
1476,-0.890,-0.515
1477,-0.890,-0.510
1478,-0.875,-0.500
1479,-0.870,-0.500
1480,-0.875,-0.485
1481,-0.850,-0.475
1482,-0.850,-0.485
1483,-0.855,-0.480
1484,-0.850,-0.500
1485,-0.860,-0.500
1486,-0.860,-0.505
1487,-0.870,-0.515
1488,-0.865,-0.505
1489,-0.890,-0.535
1490,-0.875,-0.515
1491,-0.855,-0.520
1492,-0.835,-0.480
1493,-0.835,-0.485
1494,-0.825,-0.470
1495,-0.840,-0.465
1496,-0.840,-0.455
1497,-0.815,-0.450
1498,-0.825,-0.470
1499,-0.825,-0.490
1500,-0.820,-0.470
1501,-0.820,-0.495
1502,-0.795,-0.485
1503,-0.795,-0.480
1504,-0.765,-0.505
1505,-0.750,-0.490
1506,-0.730,-0.515
1507,-0.720,-0.535
1508,-0.730,-0.525
1509,-0.730,-0.545
1510,-0.720,-0.550
1511,-0.705,-0.550
1512,-0.680,-0.540
1513,-0.670,-0.540
1514,-0.655,-0.495
1515,-0.660,-0.470
1516,-0.660,-0.445
1517,-0.650,-0.430
1518,-0.645,-0.435
1519,-0.690,-0.460
1520,-0.700,-0.465
1521,-0.725,-0.495
1522,-0.735,-0.505
1523,-0.725,-0.500
1524,-0.710,-0.495
1525,-0.670,-0.455
1526,-0.645,-0.425
1527,-0.615,-0.370
1528,-0.610,-0.330
1529,-0.605,-0.305
1530,-0.625,-0.300
1531,-0.680,-0.335
1532,-0.710,-0.365
1533,-0.735,-0.410
1534,-0.760,-0.480
1535,-0.780,-0.495
1536,-0.785,-0.490
1537,-0.805,-0.475
1538,-0.820,-0.450
1539,-0.815,-0.445
1540,-0.830,-0.445
1541,-0.825,-0.440
1542,-0.815,-0.455
1543,-0.825,-0.480
1544,-0.855,-0.505
1545,-0.855,-0.520
1546,-0.860,-0.515
1547,-0.860,-0.515
1548,-0.865,-0.500
1549,-0.870,-0.470
1550,-0.875,-0.485
1551,-0.850,-0.470
1552,-0.840,-0.485
1553,-0.845,-0.480
1554,-0.840,-0.485
1555,-0.850,-0.490
1556,-0.845,-0.500
1557,-0.845,-0.510
1558,-0.845,-0.525
1559,-0.850,-0.535
1560,-0.845,-0.525
1561,-0.845,-0.535
1562,-0.840,-0.530
1563,-0.825,-0.520
1564,-0.840,-0.515
1565,-0.825,-0.520
1566,-0.825,-0.520
1567,-0.825,-0.535
1568,-0.835,-0.555
1569,-0.860,-0.580
1570,-0.875,-0.605
1571,-0.895,-0.650
1572,-0.905,-0.725
1573,-0.895,-0.770
1574,-0.840,-0.870
1575,-0.745,-0.970
1576,-0.610,-1.105
1577,-0.455,-1.235
1578,-0.320,-1.380
1579,-0.205,-1.480
1580,-0.185,-1.540
1581,-0.185,-1.520
1582,-0.215,-1.425
1583,-0.260,-1.300
1584,-0.230,-1.145
1585,-0.180,-0.980
1586,-0.045,-0.800
1587,0.130,-0.585
1588,0.270,-0.345
1589,0.345,-0.015
1590,0.275,0.285
1591,0.035,0.535
1592,-0.335,0.650
1593,-0.730,0.615
1594,-1.090,0.435
1595,-1.345,0.190
1596,-1.510,-0.065
1597,-1.615,-0.245
1598,-1.685,-0.380
1599,-1.720,-0.450
1600,-1.770,-0.475
1601,-1.805,-0.515
1602,-1.830,-0.550
1603,-1.850,-0.605
1604,-1.855,-0.645
1605,-1.865,-0.670
1606,-1.875,-0.675
1607,-1.870,-0.685
1608,-1.870,-0.680
1609,-1.885,-0.680
1610,-1.850,-0.670
1611,-1.805,-0.655
1612,-1.750,-0.680
1613,-1.655,-0.695
1614,-1.500,-0.695
1615,-1.355,-0.660
1616,-1.200,-0.635
1617,-1.065,-0.585
1618,-0.970,-0.540
1619,-0.915,-0.520
1620,-0.880,-0.475
1621,-0.885,-0.475
1622,-0.885,-0.465
1623,-0.860,-0.455
1624,-0.850,-0.455
1625,-0.840,-0.465
1626,-0.815,-0.475
1627,-0.830,-0.465
1628,-0.820,-0.490
1629,-0.835,-0.510
1630,-0.850,-0.505
1631,-0.860,-0.515
1632,-0.860,-0.520
1633,-0.885,-0.525
1634,-0.880,-0.520
1635,-0.895,-0.505
1636,-0.870,-0.530
1637,-0.875,-0.515
1638,-0.865,-0.530
1639,-0.865,-0.555
1640,-0.885,-0.565
1641,-0.905,-0.575
1642,-0.915,-0.595
1643,-0.945,-0.620
1644,-0.965,-0.640
1645,-0.975,-0.640
1646,-0.975,-0.650
1647,-0.990,-0.660
1648,-0.975,-0.640
1649,-0.975,-0.655
1650,-0.975,-0.680
1651,-0.975,-0.685
1652,-1.010,-0.700
1653,-1.020,-0.735
1654,-1.035,-0.755
1655,-1.045,-0.770
1656,-1.070,-0.780
1657,-1.085,-0.800
1658,-1.095,-0.800
1659,-1.115,-0.800
1660,-1.125,-0.790
1661,-1.145,-0.800
1662,-1.160,-0.815
1663,-1.180,-0.835
1664,-1.200,-0.830
1665,-1.225,-0.855
1666,-1.245,-0.865
1667,-1.275,-0.875
1668,-1.280,-0.905
1669,-1.310,-0.890
1670,-1.315,-0.885
1671,-1.310,-0.870
1672,-1.280,-0.880
1673,-1.275,-0.855
1674,-1.235,-0.880
1675,-1.230,-0.880
1676,-1.205,-0.890
1677,-1.185,-0.905
1678,-1.160,-0.915
1679,-1.125,-0.925
1680,-1.100,-0.925
1681,-1.075,-0.920
1682,-1.055,-0.910
1683,-1.020,-0.890
1684,-1.005,-0.895
1685,-0.985,-0.865
1686,-0.945,-0.850
1687,-0.950,-0.850
1688,-0.925,-0.840
1689,-0.910,-0.820
1690,-0.910,-0.815
1691,-0.905,-0.805
1692,-0.885,-0.800
1693,-0.905,-0.770
1694,-0.900,-0.750
1695,-0.880,-0.720
1696,-0.860,-0.700
1697,-0.840,-0.685
1698,-0.840,-0.670
1699,-0.825,-0.660
1700,-0.835,-0.640
1701,-0.825,-0.640
1702,-0.840,-0.650
1703,-0.835,-0.650
1704,-0.840,-0.630
1705,-0.840,-0.610
1706,-0.825,-0.595
1707,-0.820,-0.575
1708,-0.785,-0.580
1709,-0.795,-0.565
1710,-0.780,-0.560
1711,-0.780,-0.565
1712,-0.775,-0.550
1713,-0.765,-0.550
1714,-0.780,-0.560
1715,-0.790,-0.560
1716,-0.810,-0.555
1717,-0.805,-0.550
1718,-0.805,-0.560
1719,-0.805,-0.540
1720,-0.795,-0.540
1721,-0.790,-0.525
1722,-0.770,-0.505
1723,-0.765,-0.535
1724,-0.785,-0.530
1725,-0.795,-0.540
1726,-0.800,-0.570
1727,-0.820,-0.570
1728,-0.825,-0.575
1729,-0.845,-0.560
1730,-0.845,-0.575
1731,-0.845,-0.580
1732,-0.835,-0.570
1733,-0.825,-0.560
1734,-0.825,-0.565
1735,-0.825,-0.570
1736,-0.825,-0.580
1737,-0.835,-0.580
1738,-0.860,-0.595
1739,-0.855,-0.620
1740,-0.855,-0.625
1741,-0.885,-0.625
1742,-0.870,-0.610
1743,-0.865,-0.600
1744,-0.860,-0.615
1745,-0.855,-0.625
1746,-0.865,-0.625
1747,-0.855,-0.630
1748,-0.875,-0.635
1749,-0.860,-0.640
1750,-0.855,-0.655
1751,-0.855,-0.655
1752,-0.855,-0.670
1753,-0.865,-0.660
1754,-0.855,-0.670
1755,-0.840,-0.635
1756,-0.845,-0.650
1757,-0.840,-0.645
1758,-0.835,-0.650
1759,-0.835,-0.655
1760,-0.830,-0.640
1761,-0.845,-0.665
1762,-0.865,-0.665
1763,-0.865,-0.680
1764,-0.870,-0.675
1765,-0.875,-0.680
1766,-0.870,-0.685
1767,-0.855,-0.665
1768,-0.845,-0.660
1769,-0.820,-0.620
1770,-0.815,-0.615
1771,-0.830,-0.630
1772,-0.835,-0.645
1773,-0.840,-0.650
1774,-0.855,-0.650
1775,-0.860,-0.680
1776,-0.855,-0.665
1777,-0.865,-0.675
1778,-0.845,-0.670
1779,-0.850,-0.655
1780,-0.835,-0.630
1781,-0.855,-0.645
1782,-0.815,-0.630
1783,-0.835,-0.630
1784,-0.825,-0.650
1785,-0.835,-0.690
1786,-0.835,-0.710
1787,-0.840,-0.725
1788,-0.840,-0.725
1789,-0.835,-0.710
1790,-0.815,-0.710
1791,-0.800,-0.685
1792,-0.785,-0.675
1793,-0.775,-0.680
1794,-0.760,-0.675
1795,-0.765,-0.700
1796,-0.740,-0.720
1797,-0.750,-0.735
1798,-0.750,-0.765
1799,-0.740,-0.765
1800,-0.740,-0.775
1801,-0.725,-0.750
1802,-0.705,-0.720
1803,-0.670,-0.695
1804,-0.650,-0.685
1805,-0.630,-0.670
1806,-0.625,-0.655
1807,-0.645,-0.655
1808,-0.660,-0.670
1809,-0.690,-0.680
1810,-0.715,-0.695
1811,-0.730,-0.715
1812,-0.750,-0.715
1813,-0.750,-0.705
1814,-0.720,-0.715
1815,-0.680,-0.685
1816,-0.650,-0.655
1817,-0.630,-0.595
1818,-0.620,-0.580
1819,-0.640,-0.560
1820,-0.675,-0.540
1821,-0.710,-0.575
1822,-0.760,-0.600
1823,-0.795,-0.630
1824,-0.825,-0.655
1825,-0.840,-0.685
1826,-0.830,-0.660
1827,-0.835,-0.660
1828,-0.825,-0.640
1829,-0.840,-0.640
1830,-0.830,-0.635
1831,-0.865,-0.660
1832,-0.865,-0.685
1833,-0.900,-0.705
1834,-0.900,-0.725
1835,-0.920,-0.720
1836,-0.905,-0.755
1837,-0.910,-0.760
1838,-0.910,-0.770
1839,-0.915,-0.745
1840,-0.895,-0.755
1841,-0.870,-0.735
1842,-0.870,-0.740
1843,-0.865,-0.740
1844,-0.870,-0.735
1845,-0.885,-0.755
1846,-0.900,-0.745
1847,-0.915,-0.760
1848,-0.910,-0.770
1849,-0.925,-0.770
1850,-0.935,-0.755
1851,-0.930,-0.765
1852,-0.925,-0.730
1853,-0.915,-0.750
1854,-0.905,-0.740
1855,-0.885,-0.765
1856,-0.890,-0.765
1857,-0.900,-0.765
1858,-0.890,-0.780
1859,-0.885,-0.780
1860,-0.910,-0.800
1861,-0.935,-0.795
1862,-0.940,-0.805
1863,-0.940,-0.815
1864,-0.920,-0.835
1865,-0.900,-0.895
1866,-0.845,-0.970
1867,-0.765,-1.080
1868,-0.650,-1.185
1869,-0.520,-1.310
1870,-0.395,-1.415
1871,-0.245,-1.515
1872,-0.145,-1.590
1873,-0.110,-1.620
1874,-0.135,-1.560
1875,-0.160,-1.435
1876,-0.150,-1.295
1877,-0.090,-1.155
1878,0.035,-1.025
1879,0.180,-0.885
1880,0.335,-0.685
1881,0.405,-0.455
1882,0.355,-0.145
1883,0.145,0.140
1884,-0.220,0.330
1885,-0.665,0.400
1886,-1.110,0.295
1887,-1.455,0.055
1888,-1.685,-0.220
1889,-1.805,-0.460
1890,-1.890,-0.640
1891,-1.915,-0.755
1892,-1.965,-0.825
1893,-2.000,-0.880
1894,-2.025,-0.920
1895,-2.050,-0.955
1896,-2.055,-0.980
1897,-2.055,-1.010
1898,-2.060,-1.000
1899,-2.040,-0.985
1900,-2.025,-0.950
1901,-2.010,-0.940
1902,-1.980,-0.935
1903,-1.940,-0.955
1904,-1.880,-0.975
1905,-1.780,-1.000
1906,-1.665,-1.010
1907,-1.505,-0.985
1908,-1.360,-0.930
1909,-1.240,-0.850
1910,-1.130,-0.760
1911,-1.045,-0.690
1912,-0.995,-0.630
1913,-0.980,-0.600
1914,-0.970,-0.585
1915,-0.975,-0.595
1916,-0.965,-0.605
1917,-0.955,-0.625
1918,-0.945,-0.650
1919,-0.950,-0.675
1920,-0.950,-0.665
1921,-0.945,-0.660
1922,-0.930,-0.655
1923,-0.935,-0.635
1924,-0.935,-0.620
1925,-0.940,-0.610
1926,-0.935,-0.600
1927,-0.955,-0.625
1928,-0.945,-0.645
1929,-0.940,-0.650
1930,-0.960,-0.670
1931,-0.985,-0.685
1932,-0.980,-0.695
1933,-0.985,-0.685
1934,-0.985,-0.675
1935,-0.985,-0.670
1936,-1.005,-0.675
1937,-1.000,-0.680
1938,-1.005,-0.720
1939,-1.015,-0.760
1940,-1.000,-0.790
1941,-1.030,-0.820
1942,-1.040,-0.870
1943,-1.055,-0.875
1944,-1.075,-0.875
1945,-1.080,-0.895
1946,-1.100,-0.910
1947,-1.095,-0.915
1948,-1.105,-0.930
1949,-1.095,-0.945
1950,-1.095,-0.980
1951,-1.110,-0.985
1952,-1.140,-1.020
1953,-1.140,-1.030
1954,-1.165,-1.035
1955,-1.190,-1.045
1956,-1.205,-1.045
1957,-1.195,-1.035
1958,-1.200,-1.045
1959,-1.190,-1.035
1960,-1.180,-1.040
1961,-1.185,-1.025
1962,-1.165,-1.030
1963,-1.180,-1.010
1964,-1.185,-1.010
1965,-1.180,-1.020
1966,-1.180,-1.040
1967,-1.190,-1.045
1968,-1.200,-1.040
1969,-1.220,-1.040
1970,-1.195,-1.020
1971,-1.175,-1.030
1972,-1.160,-1.015
1973,-1.135,-1.000
1974,-1.135,-0.985
1975,-1.105,-0.985
1976,-1.100,-0.975
1977,-1.080,-0.965
1978,-1.080,-0.960
1979,-1.065,-0.950
1980,-1.065,-0.940
1981,-1.045,-0.900
1982,-1.025,-0.910
1983,-1.005,-0.890
1984,-0.980,-0.875
1985,-0.950,-0.840
1986,-0.925,-0.820
1987,-0.930,-0.805
1988,-0.930,-0.775
1989,-0.915,-0.770
1990,-0.900,-0.750
1991,-0.895,-0.740
1992,-0.870,-0.700
1993,-0.870,-0.690
1994,-0.865,-0.660
1995,-0.855,-0.670
1996,-0.855,-0.645
1997,-0.845,-0.620
1998,-0.835,-0.610
1999,-0.825,-0.600
2000,-0.825,-0.605
2001,-0.825,-0.620
2002,-0.820,-0.625
2003,-0.830,-0.640
2004,-0.825,-0.635
2005,-0.845,-0.630
2006,-0.845,-0.610
2007,-0.825,-0.600
2008,-0.830,-0.580
2009,-0.825,-0.585
2010,-0.820,-0.570
2011,-0.820,-0.580
2012,-0.805,-0.575
2013,-0.810,-0.590
2014,-0.840,-0.605
2015,-0.810,-0.600
2016,-0.820,-0.600
2017,-0.830,-0.575
2018,-0.840,-0.560
2019,-0.850,-0.565
2020,-0.850,-0.560
2021,-0.830,-0.570
2022,-0.835,-0.580
2023,-0.810,-0.585
2024,-0.815,-0.590
2025,-0.810,-0.600
2026,-0.820,-0.590
2027,-0.835,-0.610
2028,-0.855,-0.605
2029,-0.840,-0.575
2030,-0.850,-0.590
2031,-0.855,-0.575
2032,-0.855,-0.540
2033,-0.850,-0.545
2034,-0.835,-0.550
2035,-0.845,-0.565
2036,-0.850,-0.580
2037,-0.835,-0.585
2038,-0.860,-0.590
2039,-0.875,-0.590
2040,-0.860,-0.600
2041,-0.855,-0.570
2042,-0.855,-0.555
2043,-0.840,-0.555
2044,-0.830,-0.545
2045,-0.835,-0.535
2046,-0.820,-0.555
2047,-0.825,-0.545
2048,-0.840,-0.580
2049,-0.840,-0.580
2050,-0.845,-0.600
2051,-0.845,-0.610
2052,-0.840,-0.610
2053,-0.835,-0.595
2054,-0.845,-0.600
2055,-0.815,-0.605
2056,-0.820,-0.585
2057,-0.810,-0.565
2058,-0.805,-0.575
2059,-0.820,-0.575
2060,-0.810,-0.565
2061,-0.820,-0.585
2062,-0.825,-0.595
2063,-0.830,-0.605
2064,-0.830,-0.615
2065,-0.825,-0.605
2066,-0.820,-0.605
2067,-0.800,-0.580
2068,-0.800,-0.570
2069,-0.795,-0.565
2070,-0.780,-0.550
2071,-0.785,-0.580
2072,-0.790,-0.600
2073,-0.795,-0.615
2074,-0.795,-0.635
2075,-0.800,-0.635
2076,-0.810,-0.630
2077,-0.820,-0.630
2078,-0.795,-0.615
2079,-0.785,-0.595
2080,-0.785,-0.590
2081,-0.775,-0.585
2082,-0.760,-0.570
2083,-0.755,-0.595
2084,-0.765,-0.580
2085,-0.775,-0.605
2086,-0.770,-0.610
2087,-0.775,-0.630
2088,-0.750,-0.640
2089,-0.740,-0.670
2090,-0.735,-0.650
2091,-0.715,-0.655
2092,-0.695,-0.670
2093,-0.675,-0.640
2094,-0.660,-0.615
2095,-0.655,-0.620
2096,-0.655,-0.615
2097,-0.660,-0.635
2098,-0.670,-0.635
2099,-0.660,-0.635
2100,-0.650,-0.640
2101,-0.650,-0.630
2102,-0.630,-0.615
2103,-0.605,-0.575
2104,-0.600,-0.540
2105,-0.610,-0.510
2106,-0.610,-0.490
2107,-0.645,-0.480
2108,-0.665,-0.495
2109,-0.685,-0.530
2110,-0.695,-0.570
2111,-0.725,-0.555
2112,-0.715,-0.560
2113,-0.710,-0.545
2114,-0.695,-0.510
2115,-0.685,-0.460
2116,-0.670,-0.430
2117,-0.650,-0.400
2118,-0.670,-0.375
2119,-0.690,-0.375
2120,-0.720,-0.410
2121,-0.760,-0.420
2122,-0.800,-0.465
2123,-0.835,-0.515
2124,-0.845,-0.530
2125,-0.865,-0.540
2126,-0.875,-0.505
2127,-0.885,-0.495
2128,-0.885,-0.495
2129,-0.880,-0.480
2130,-0.880,-0.490
2131,-0.880,-0.520
2132,-0.905,-0.540
2133,-0.900,-0.540
2134,-0.910,-0.535
2135,-0.925,-0.540
2136,-0.945,-0.550
2137,-0.955,-0.540
2138,-0.950,-0.555
2139,-0.935,-0.540
2140,-0.940,-0.545
2141,-0.920,-0.545
2142,-0.905,-0.535
2143,-0.920,-0.540
2144,-0.920,-0.530
2145,-0.925,-0.510
2146,-0.925,-0.525
2147,-0.925,-0.525
2148,-0.935,-0.545
2149,-0.940,-0.525
2150,-0.920,-0.545
2151,-0.915,-0.525
2152,-0.915,-0.540
2153,-0.890,-0.520
2154,-0.880,-0.520
2155,-0.880,-0.520
2156,-0.865,-0.525
2157,-0.885,-0.560
2158,-0.905,-0.595
2159,-0.945,-0.640
2160,-0.940,-0.680
2161,-0.965,-0.720
2162,-0.950,-0.770
2163,-0.885,-0.850
2164,-0.775,-0.955
2165,-0.650,-1.045
2166,-0.480,-1.185
2167,-0.330,-1.285
2168,-0.195,-1.395
2169,-0.135,-1.440
2170,-0.125,-1.410
2171,-0.140,-1.330
2172,-0.135,-1.190
2173,-0.100,-1.060
2174,0.030,-0.910
2175,0.185,-0.725
2176,0.335,-0.500
2177,0.415,-0.220
2178,0.340,0.120
2179,0.095,0.420
2180,-0.285,0.575
2181,-0.725,0.550
2182,-1.135,0.380
2183,-1.440,0.085
2184,-1.650,-0.180
2185,-1.765,-0.385
2186,-1.815,-0.505
2187,-1.830,-0.555
2188,-1.850,-0.580
2189,-1.870,-0.590
2190,-1.880,-0.640
2191,-1.900,-0.690
2192,-1.910,-0.710
2193,-1.925,-0.745
2194,-1.945,-0.750
2195,-1.945,-0.735
2196,-1.935,-0.725
2197,-1.920,-0.715
2198,-1.895,-0.705
2199,-1.850,-0.725
2200,-1.765,-0.740
2201,-1.660,-0.745
2202,-1.510,-0.725
2203,-1.370,-0.710
2204,-1.240,-0.670
2205,-1.135,-0.615
2206,-1.055,-0.580
2207,-1.015,-0.545
2208,-1.020,-0.515
2209,-1.005,-0.495
2210,-1.010,-0.475
2211,-1.010,-0.485
2212,-0.980,-0.505
2213,-0.960,-0.500
2214,-0.960,-0.500
2215,-0.935,-0.505
2216,-0.930,-0.515
2217,-0.930,-0.535
2218,-0.930,-0.550
2219,-0.945,-0.545
2220,-0.945,-0.585
2221,-0.985,-0.560
2222,-0.965,-0.580
2223,-0.955,-0.565
2224,-0.955,-0.560
2225,-0.950,-0.570
2226,-0.940,-0.565
2227,-0.945,-0.575
2228,-0.950,-0.585
2229,-0.975,-0.620
2230,-0.975,-0.635
2231,-0.995,-0.655
2232,-1.000,-0.660
2233,-1.005,-0.665
2234,-1.010,-0.670
2235,-1.020,-0.665
2236,-1.025,-0.670
2237,-1.035,-0.700
2238,-1.020,-0.700
2239,-1.020,-0.730
2240,-1.040,-0.770
2241,-1.055,-0.795
2242,-1.070,-0.825
2243,-1.080,-0.840
2244,-1.090,-0.855
2245,-1.095,-0.840
2246,-1.115,-0.860
2247,-1.125,-0.835
2248,-1.130,-0.855
2249,-1.105,-0.865
2250,-1.115,-0.870
2251,-1.120,-0.895
2252,-1.120,-0.910
2253,-1.140,-0.925
2254,-1.145,-0.935
2255,-1.160,-0.955
2256,-1.180,-0.960
2257,-1.185,-0.960
2258,-1.200,-0.955
2259,-1.190,-0.955
2260,-1.185,-0.950
2261,-1.185,-0.945
2262,-1.175,-0.945
2263,-1.165,-0.945
2264,-1.160,-0.955
2265,-1.160,-0.965
2266,-1.170,-0.965
2267,-1.175,-0.980
2268,-1.175,-0.985
2269,-1.155,-0.975
2270,-1.145,-0.985
2271,-1.135,-0.960
2272,-1.105,-0.950
2273,-1.095,-0.950
2274,-1.080,-0.940
2275,-1.050,-0.915
2276,-1.020,-0.930
2277,-1.010,-0.925
2278,-0.990,-0.925
2279,-0.965,-0.920
2280,-0.955,-0.885
2281,-0.955,-0.870
2282,-0.940,-0.855
2283,-0.920,-0.825
2284,-0.910,-0.805
2285,-0.890,-0.770
2286,-0.870,-0.745
2287,-0.860,-0.750
2288,-0.835,-0.765
2289,-0.850,-0.755
2290,-0.850,-0.760
2291,-0.835,-0.745
2292,-0.825,-0.745
2293,-0.825,-0.710
2294,-0.805,-0.700
2295,-0.810,-0.660
2296,-0.795,-0.625
2297,-0.770,-0.610
2298,-0.765,-0.615
2299,-0.765,-0.605
2300,-0.765,-0.600
2301,-0.770,-0.620
2302,-0.760,-0.625
2303,-0.770,-0.635
2304,-0.765,-0.625
2305,-0.760,-0.615
2306,-0.755,-0.605
2307,-0.760,-0.590
2308,-0.745,-0.565
2309,-0.740,-0.545
2310,-0.735,-0.535
2311,-0.735,-0.550
2312,-0.750,-0.550
2313,-0.760,-0.565
2314,-0.760,-0.565
2315,-0.760,-0.575
2316,-0.770,-0.565
2317,-0.765,-0.560
2318,-0.760,-0.560
2319,-0.755,-0.545
2320,-0.740,-0.530
2321,-0.740,-0.545
2322,-0.740,-0.505
2323,-0.740,-0.515
2324,-0.760,-0.505
2325,-0.765,-0.520
2326,-0.775,-0.530
2327,-0.800,-0.535
2328,-0.800,-0.550
2329,-0.795,-0.525
2330,-0.785,-0.515
2331,-0.780,-0.495
2332,-0.785,-0.490
2333,-0.785,-0.465
2334,-0.790,-0.460
2335,-0.780,-0.470
2336,-0.810,-0.475
2337,-0.805,-0.495
2338,-0.840,-0.520
2339,-0.845,-0.525
2340,-0.860,-0.510
2341,-0.875,-0.525
2342,-0.870,-0.515
2343,-0.875,-0.480
2344,-0.860,-0.495
2345,-0.855,-0.475
2346,-0.845,-0.480
2347,-0.835,-0.460
2348,-0.835,-0.495
2349,-0.850,-0.500
2350,-0.865,-0.510
2351,-0.870,-0.515
2352,-0.875,-0.515
2353,-0.875,-0.520
2354,-0.865,-0.500
2355,-0.870,-0.505
2356,-0.870,-0.480
2357,-0.875,-0.480
2358,-0.865,-0.470
2359,-0.860,-0.500
2360,-0.850,-0.510
2361,-0.855,-0.520
2362,-0.865,-0.555
2363,-0.875,-0.570
2364,-0.880,-0.575
2365,-0.890,-0.575
2366,-0.885,-0.555
2367,-0.880,-0.560
2368,-0.880,-0.525
2369,-0.875,-0.525
2370,-0.870,-0.515
2371,-0.860,-0.520
2372,-0.870,-0.530
2373,-0.875,-0.535
2374,-0.885,-0.540
2375,-0.880,-0.555
2376,-0.895,-0.565
2377,-0.895,-0.575
2378,-0.900,-0.570
2379,-0.890,-0.560
2380,-0.890,-0.555
2381,-0.880,-0.540
2382,-0.855,-0.520
2383,-0.830,-0.530
2384,-0.815,-0.540
2385,-0.815,-0.540
2386,-0.810,-0.575
2387,-0.810,-0.580
2388,-0.820,-0.595
2389,-0.805,-0.615
2390,-0.780,-0.610
2391,-0.795,-0.615
2392,-0.760,-0.620
2393,-0.745,-0.605
2394,-0.720,-0.590
2395,-0.715,-0.585
2396,-0.710,-0.580
2397,-0.680,-0.570
2398,-0.670,-0.565
2399,-0.675,-0.550
2400,-0.690,-0.540
2401,-0.710,-0.535
2402,-0.730,-0.525
2403,-0.735,-0.530
2404,-0.720,-0.555
2405,-0.745,-0.550
2406,-0.745,-0.565
2407,-0.720,-0.585
2408,-0.715,-0.560
2409,-0.685,-0.565
2410,-0.690,-0.545
2411,-0.685,-0.490
2412,-0.670,-0.480
2413,-0.670,-0.465
2414,-0.680,-0.445
2415,-0.715,-0.440
2416,-0.720,-0.460
2417,-0.750,-0.485
2418,-0.775,-0.515
2419,-0.785,-0.550
2420,-0.805,-0.585
2421,-0.840,-0.590
2422,-0.865,-0.605
2423,-0.860,-0.610
2424,-0.890,-0.595
2425,-0.915,-0.610
2426,-0.905,-0.575
2427,-0.905,-0.590
2428,-0.885,-0.575
2429,-0.875,-0.570
2430,-0.880,-0.545
2431,-0.865,-0.565
2432,-0.885,-0.585
2433,-0.905,-0.590
2434,-0.905,-0.585
2435,-0.890,-0.615
2436,-0.905,-0.615
2437,-0.910,-0.610
2438,-0.920,-0.605
2439,-0.915,-0.575
2440,-0.900,-0.575
2441,-0.920,-0.565
2442,-0.885,-0.540
2443,-0.885,-0.550
2444,-0.895,-0.575
2445,-0.895,-0.580
2446,-0.900,-0.605
2447,-0.910,-0.630
2448,-0.940,-0.650
2449,-0.930,-0.645
2450,-0.930,-0.630
2451,-0.915,-0.630
2452,-0.910,-0.595
2453,-0.895,-0.605
2454,-0.890,-0.585
2455,-0.875,-0.610
2456,-0.885,-0.630
2457,-0.895,-0.645
2458,-0.930,-0.650
2459,-0.925,-0.665
2460,-0.920,-0.715
2461,-0.915,-0.785
2462,-0.855,-0.880
2463,-0.755,-0.990
2464,-0.625,-1.095
2465,-0.480,-1.190
2466,-0.305,-1.295
2467,-0.195,-1.405
2468,-0.150,-1.455
2469,-0.125,-1.430
2470,-0.165,-1.365
2471,-0.190,-1.250
2472,-0.160,-1.105
2473,-0.070,-0.975
2474,0.085,-0.825
2475,0.245,-0.660
2476,0.370,-0.390
2477,0.400,-0.090
2478,0.275,0.210
2479,-0.035,0.455
2480,-0.430,0.550
2481,-0.870,0.500
2482,-1.250,0.300
2483,-1.515,0.020
2484,-1.695,-0.230
2485,-1.795,-0.425
2486,-1.845,-0.545
2487,-1.910,-0.595
2488,-1.960,-0.650
2489,-1.985,-0.670
2490,-2.000,-0.730
2491,-2.020,-0.770
2492,-2.010,-0.795
2493,-2.015,-0.815
2494,-2.015,-0.810
2495,-2.010,-0.805
2496,-2.005,-0.790
2497,-1.985,-0.800
2498,-1.930,-0.800
2499,-1.840,-0.825
2500,-1.710,-0.825
2501,-1.555,-0.805
2502,-1.395,-0.765
2503,-1.255,-0.705
2504,-1.155,-0.655
2505,-1.070,-0.610
2506,-1.025,-0.560
2507,-1.010,-0.550
2508,-1.010,-0.515
2509,-1.020,-0.520
2510,-1.015,-0.510
2511,-1.005,-0.490
2512,-0.975,-0.475
2513,-0.975,-0.475
2514,-0.950,-0.465
2515,-0.945,-0.490
2516,-0.955,-0.505
2517,-0.970,-0.525
2518,-0.995,-0.535
2519,-1.000,-0.545
2520,-0.980,-0.555
2521,-0.990,-0.555
2522,-0.995,-0.560
2523,-1.000,-0.570
2524,-0.975,-0.585
2525,-0.970,-0.580
2526,-0.950,-0.580
2527,-0.975,-0.585
2528,-0.980,-0.595
2529,-1.020,-0.600
2530,-1.040,-0.600
2531,-1.035,-0.620
2532,-1.050,-0.630
2533,-1.065,-0.635
2534,-1.070,-0.665
2535,-1.060,-0.670
2536,-1.060,-0.670
2537,-1.065,-0.700
2538,-1.075,-0.705
2539,-1.105,-0.730
2540,-1.085,-0.755
2541,-1.110,-0.755
2542,-1.120,-0.775
2543,-1.125,-0.780
2544,-1.155,-0.810
2545,-1.165,-0.825
2546,-1.180,-0.825
2547,-1.175,-0.845
2548,-1.185,-0.845
2549,-1.185,-0.860
2550,-1.175,-0.850
2551,-1.185,-0.865
2552,-1.190,-0.860
2553,-1.190,-0.860
2554,-1.210,-0.880
2555,-1.205,-0.910
2556,-1.230,-0.930
2557,-1.230,-0.955
2558,-1.235,-0.965
2559,-1.220,-0.945
2560,-1.215,-0.940
2561,-1.200,-0.920
2562,-1.190,-0.905
2563,-1.160,-0.915
2564,-1.150,-0.895
2565,-1.155,-0.905
2566,-1.155,-0.910
2567,-1.130,-0.900
2568,-1.125,-0.885
2569,-1.130,-0.870
2570,-1.120,-0.845
2571,-1.095,-0.830
2572,-1.090,-0.825
2573,-1.050,-0.835
2574,-1.030,-0.805
2575,-1.005,-0.785
2576,-0.985,-0.770
2577,-0.960,-0.745
2578,-0.970,-0.730
2579,-0.960,-0.745
2580,-0.955,-0.740
2581,-0.940,-0.715
2582,-0.935,-0.685
2583,-0.920,-0.655
2584,-0.895,-0.625
2585,-0.895,-0.590
2586,-0.885,-0.570
2587,-0.890,-0.580
2588,-0.900,-0.580
2589,-0.895,-0.575
2590,-0.885,-0.575
2591,-0.885,-0.595
2592,-0.905,-0.580
2593,-0.890,-0.575
2594,-0.875,-0.565
2595,-0.875,-0.550
2596,-0.860,-0.530
2597,-0.860,-0.515
2598,-0.845,-0.490
2599,-0.850,-0.490
2600,-0.845,-0.490
2601,-0.845,-0.485
2602,-0.845,-0.490
2603,-0.850,-0.505
2604,-0.870,-0.505
2605,-0.885,-0.510
2606,-0.885,-0.520
2607,-0.875,-0.505
2608,-0.865,-0.485
2609,-0.855,-0.460
2610,-0.860,-0.460
2611,-0.865,-0.475
2612,-0.850,-0.485
2613,-0.860,-0.500
2614,-0.860,-0.495
2615,-0.885,-0.535
2616,-0.880,-0.530
2617,-0.895,-0.535
2618,-0.905,-0.515
2619,-0.900,-0.470
2620,-0.885,-0.475
2621,-0.885,-0.470
2622,-0.865,-0.465
2623,-0.875,-0.480
2624,-0.875,-0.470
2625,-0.880,-0.475
2626,-0.895,-0.510
2627,-0.900,-0.510
2628,-0.910,-0.525
2629,-0.920,-0.535
2630,-0.915,-0.555
2631,-0.925,-0.515
2632,-0.910,-0.505
2633,-0.890,-0.460
2634,-0.895,-0.465
2635,-0.885,-0.475
2636,-0.890,-0.490
2637,-0.890,-0.500
2638,-0.900,-0.525
2639,-0.895,-0.500
2640,-0.905,-0.515
2641,-0.875,-0.515
2642,-0.900,-0.500
2643,-0.900,-0.480
2644,-0.885,-0.465
2645,-0.890,-0.460
2646,-0.900,-0.430
2647,-0.875,-0.450
2648,-0.895,-0.465
2649,-0.895,-0.480
2650,-0.875,-0.510
2651,-0.885,-0.520
2652,-0.885,-0.510
2653,-0.885,-0.490
2654,-0.885,-0.475
2655,-0.875,-0.465
2656,-0.855,-0.460
2657,-0.860,-0.450
2658,-0.840,-0.445
2659,-0.845,-0.450
2660,-0.855,-0.465
2661,-0.865,-0.475
2662,-0.880,-0.480
2663,-0.890,-0.480
2664,-0.885,-0.495
2665,-0.885,-0.500
2666,-0.875,-0.490
2667,-0.875,-0.490
2668,-0.880,-0.475
2669,-0.860,-0.465
2670,-0.835,-0.445
2671,-0.850,-0.445
2672,-0.840,-0.460
2673,-0.835,-0.470
2674,-0.840,-0.490
2675,-0.840,-0.480
2676,-0.845,-0.470
2677,-0.840,-0.485
2678,-0.855,-0.485
2679,-0.835,-0.470
2680,-0.820,-0.450
2681,-0.795,-0.440
2682,-0.785,-0.440
2683,-0.770,-0.465
2684,-0.765,-0.485
2685,-0.760,-0.500
2686,-0.775,-0.540
2687,-0.765,-0.525
2688,-0.765,-0.530
2689,-0.760,-0.510
2690,-0.740,-0.500
2691,-0.715,-0.475
2692,-0.685,-0.430
2693,-0.680,-0.410
2694,-0.675,-0.370
2695,-0.705,-0.380
2696,-0.715,-0.405
2697,-0.730,-0.425
2698,-0.755,-0.445
2699,-0.765,-0.470
2700,-0.775,-0.475
2701,-0.755,-0.460
2702,-0.745,-0.420
2703,-0.720,-0.385
2704,-0.695,-0.335
2705,-0.685,-0.300
2706,-0.680,-0.265
2707,-0.685,-0.290
2708,-0.715,-0.305
2709,-0.750,-0.340
2710,-0.785,-0.395
2711,-0.805,-0.430
2712,-0.830,-0.450
2713,-0.845,-0.465
2714,-0.840,-0.450
2715,-0.840,-0.435
2716,-0.865,-0.395
2717,-0.870,-0.395
2718,-0.870,-0.380
2719,-0.865,-0.405
2720,-0.880,-0.435
2721,-0.890,-0.460
2722,-0.895,-0.475
2723,-0.905,-0.490
2724,-0.915,-0.490
2725,-0.915,-0.505
2726,-0.920,-0.495
2727,-0.910,-0.475
2728,-0.900,-0.460
2729,-0.885,-0.435
2730,-0.890,-0.430
2731,-0.890,-0.425
2732,-0.890,-0.435
2733,-0.905,-0.465
2734,-0.925,-0.460
2735,-0.920,-0.470
2736,-0.925,-0.485
2737,-0.930,-0.500
2738,-0.925,-0.505
2739,-0.910,-0.470
2740,-0.905,-0.470
2741,-0.910,-0.460
2742,-0.900,-0.450
2743,-0.890,-0.465
2744,-0.885,-0.470
2745,-0.905,-0.485
2746,-0.920,-0.500
2747,-0.925,-0.505
2748,-0.940,-0.515
2749,-0.950,-0.525
2750,-0.945,-0.550
2751,-0.955,-0.575
2752,-0.945,-0.625
2753,-0.920,-0.690
2754,-0.870,-0.790
2755,-0.765,-0.910
2756,-0.645,-1.040
2757,-0.500,-1.170
2758,-0.375,-1.290
2759,-0.260,-1.380
2760,-0.215,-1.380
2761,-0.220,-1.325
2762,-0.245,-1.215
2763,-0.235,-1.035
2764,-0.195,-0.865
2765,-0.055,-0.725
2766,0.095,-0.550
2767,0.250,-0.315
2768,0.320,-0.025
2769,0.220,0.305
2770,-0.035,0.550
2771,-0.415,0.660
2772,-0.830,0.640
2773,-1.160,0.425
2774,-1.410,0.175
2775,-1.540,-0.055
2776,-1.605,-0.230
2777,-1.640,-0.320
2778,-1.690,-0.355
2779,-1.725,-0.425
2780,-1.785,-0.470
2781,-1.825,-0.520
2782,-1.845,-0.570
2783,-1.865,-0.610
2784,-1.880,-0.610
2785,-1.885,-0.605
2786,-1.895,-0.590
2787,-1.890,-0.600
2788,-1.870,-0.585
2789,-1.830,-0.600
2790,-1.755,-0.610
2791,-1.655,-0.625
2792,-1.525,-0.640
2793,-1.405,-0.620
2794,-1.270,-0.600
2795,-1.145,-0.540
2796,-1.075,-0.490
2797,-1.035,-0.445
2798,-1.005,-0.405
2799,-1.010,-0.395
2800,-1.015,-0.395
2801,-1.005,-0.395
2802,-0.975,-0.385
2803,-0.950,-0.395
2804,-0.930,-0.400
2805,-0.935,-0.395
2806,-0.945,-0.400
2807,-0.950,-0.410
2808,-0.940,-0.410
2809,-0.930,-0.425
2810,-0.920,-0.425
2811,-0.925,-0.425
2812,-0.945,-0.450
2813,-0.945,-0.435
2814,-0.950,-0.450
2815,-0.940,-0.430
2816,-0.955,-0.445
2817,-0.960,-0.455
2818,-0.950,-0.500
2819,-0.970,-0.525
2820,-0.960,-0.550
2821,-0.970,-0.570
2822,-0.975,-0.575
2823,-0.975,-0.580
2824,-0.980,-0.580
2825,-0.985,-0.580
2826,-0.970,-0.605
2827,-0.985,-0.635
2828,-1.015,-0.650
2829,-1.040,-0.670
2830,-1.065,-0.680
2831,-1.085,-0.720
2832,-1.070,-0.725
2833,-1.070,-0.755
2834,-1.070,-0.740
2835,-1.070,-0.750
2836,-1.070,-0.750
2837,-1.080,-0.755
2838,-1.095,-0.790
2839,-1.100,-0.800
2840,-1.110,-0.830
2841,-1.145,-0.860
2842,-1.145,-0.850
2843,-1.165,-0.900
2844,-1.160,-0.880
2845,-1.180,-0.875
2846,-1.175,-0.905
2847,-1.185,-0.880
2848,-1.185,-0.910
2849,-1.185,-0.895
2850,-1.170,-0.880
2851,-1.160,-0.910
2852,-1.160,-0.905
2853,-1.165,-0.905
2854,-1.160,-0.935
2855,-1.165,-0.945
2856,-1.170,-0.945
2857,-1.175,-0.935
2858,-1.165,-0.925
2859,-1.150,-0.890
2860,-1.120,-0.865
2861,-1.105,-0.850
2862,-1.085,-0.830
2863,-1.060,-0.840
2864,-1.040,-0.830
2865,-1.030,-0.835
2866,-1.030,-0.835
2867,-1.035,-0.810
2868,-1.005,-0.790
2869,-0.995,-0.770
2870,-0.980,-0.750
2871,-0.960,-0.715
2872,-0.930,-0.695
2873,-0.920,-0.685
2874,-0.890,-0.675
2875,-0.880,-0.670
2876,-0.870,-0.660
2877,-0.875,-0.660
2878,-0.870,-0.645
2879,-0.855,-0.650
2880,-0.870,-0.625
2881,-0.870,-0.645
2882,-0.875,-0.635
2883,-0.870,-0.625
2884,-0.840,-0.575
2885,-0.825,-0.570
2886,-0.830,-0.570
2887,-0.805,-0.560
2888,-0.815,-0.570
2889,-0.825,-0.545
2890,-0.835,-0.560
2891,-0.850,-0.560
2892,-0.845,-0.560
2893,-0.840,-0.540
2894,-0.825,-0.545
2895,-0.830,-0.510
2896,-0.815,-0.520
2897,-0.810,-0.500
2898,-0.800,-0.500
2899,-0.805,-0.495
2900,-0.800,-0.495
2901,-0.810,-0.505
2902,-0.820,-0.525
2903,-0.845,-0.530
2904,-0.855,-0.525
2905,-0.845,-0.520
2906,-0.850,-0.530
2907,-0.840,-0.505
2908,-0.830,-0.500
2909,-0.835,-0.490
2910,-0.835,-0.495
2911,-0.830,-0.500
2912,-0.835,-0.495
2913,-0.840,-0.495
2914,-0.860,-0.515
2915,-0.865,-0.525
2916,-0.885,-0.520
2917,-0.895,-0.520
2918,-0.885,-0.530
2919,-0.895,-0.535
2920,-0.890,-0.530
2921,-0.885,-0.520
2922,-0.885,-0.510
2923,-0.865,-0.520
2924,-0.840,-0.520
2925,-0.815,-0.515
2926,-0.820,-0.535
2927,-0.845,-0.535
2928,-0.865,-0.545
2929,-0.915,-0.545
2930,-0.945,-0.540
2931,-0.915,-0.520
2932,-0.880,-0.510
2933,-0.865,-0.480
2934,-0.835,-0.480
2935,-0.855,-0.490
2936,-0.880,-0.510
2937,-0.920,-0.520
2938,-0.935,-0.510
2939,-0.940,-0.510
2940,-0.935,-0.500
2941,-0.945,-0.505
2942,-0.930,-0.495
2943,-0.935,-0.505
2944,-0.915,-0.510
2945,-0.910,-0.515
2946,-0.885,-0.530
2947,-0.885,-0.520
2948,-0.895,-0.515
2949,-0.890,-0.545
2950,-0.905,-0.550
2951,-0.925,-0.540
2952,-0.900,-0.535
2953,-0.910,-0.490
2954,-0.910,-0.480
2955,-0.895,-0.485
2956,-0.885,-0.495
2957,-0.865,-0.500
2958,-0.855,-0.510
2959,-0.850,-0.515
2960,-0.855,-0.525
2961,-0.865,-0.540
2962,-0.870,-0.550
2963,-0.870,-0.565
2964,-0.850,-0.565
2965,-0.865,-0.545
2966,-0.830,-0.540
2967,-0.835,-0.510
2968,-0.805,-0.510
2969,-0.765,-0.495
2970,-0.770,-0.510
2971,-0.750,-0.530
2972,-0.745,-0.540
2973,-0.735,-0.555
2974,-0.745,-0.570
2975,-0.745,-0.570
2976,-0.760,-0.565
2977,-0.775,-0.550
2978,-0.780,-0.525
2979,-0.765,-0.485
2980,-0.760,-0.445
2981,-0.750,-0.435
2982,-0.735,-0.420
2983,-0.765,-0.430
2984,-0.775,-0.455
2985,-0.765,-0.455
2986,-0.760,-0.475
2987,-0.735,-0.490
2988,-0.715,-0.485
2989,-0.730,-0.490
2990,-0.725,-0.460
2991,-0.750,-0.435
2992,-0.750,-0.400
2993,-0.790,-0.380
2994,-0.795,-0.345
2995,-0.830,-0.385
2996,-0.895,-0.410
2997,-0.920,-0.445
2998,-0.925,-0.505
2999,-0.930,-0.530
3000,-0.945,-0.540
3001,-0.940,-0.570
3002,-0.935,-0.565
3003,-0.935,-0.545
3004,-0.940,-0.535
3005,-0.950,-0.515
3006,-0.980,-0.495
3007,-0.965,-0.480
3008,-0.960,-0.470
3009,-0.965,-0.495
3010,-0.980,-0.520
3011,-0.995,-0.535
3012,-0.990,-0.550
3013,-0.985,-0.545
3014,-0.970,-0.545
3015,-0.980,-0.525
3016,-0.955,-0.510
3017,-0.975,-0.510
3018,-0.960,-0.505
3019,-0.970,-0.525
3020,-0.965,-0.535
3021,-0.985,-0.555
3022,-0.990,-0.565
3023,-1.000,-0.580
3024,-1.010,-0.560
3025,-1.035,-0.570
3026,-1.040,-0.580
3027,-1.035,-0.580
3028,-1.020,-0.560
3029,-1.015,-0.555
3030,-1.005,-0.560
3031,-1.000,-0.565
3032,-0.995,-0.560
3033,-1.015,-0.550
3034,-1.025,-0.555
3035,-1.040,-0.575
3036,-1.065,-0.605
3037,-1.095,-0.655
3038,-1.115,-0.730
3039,-1.120,-0.795
3040,-1.095,-0.895
3041,-1.065,-1.020
3042,-0.980,-1.180
3043,-0.885,-1.345
3044,-0.760,-1.495
3045,-0.660,-1.630
3046,-0.610,-1.680
3047,-0.590,-1.655
3048,-0.585,-1.545
3049,-0.575,-1.410
3050,-0.505,-1.240
3051,-0.370,-1.065
3052,-0.180,-0.920
3053,0.025,-0.740
3054,0.190,-0.485
3055,0.230,-0.175
3056,0.175,0.125
3057,-0.015,0.375
3058,-0.310,0.485
3059,-0.650,0.460
3060,-1.000,0.325
3061,-1.280,0.125
3062,-1.475,-0.070
3063,-1.595,-0.210
3064,-1.665,-0.285
3065,-1.695,-0.340
3066,-1.735,-0.360
3067,-1.785,-0.400
3068,-1.860,-0.430
3069,-1.905,-0.480
3070,-1.930,-0.505
3071,-1.950,-0.530
3072,-1.965,-0.545
3073,-1.975,-0.555
3074,-1.940,-0.570
3075,-1.935,-0.580
3076,-1.895,-0.615
3077,-1.845,-0.615
3078,-1.765,-0.640
3079,-1.665,-0.650
3080,-1.535,-0.630
3081,-1.405,-0.595
3082,-1.300,-0.570
3083,-1.210,-0.535
3084,-1.145,-0.505
3085,-1.125,-0.500
3086,-1.110,-0.475
3087,-1.125,-0.470
3088,-1.120,-0.495
3089,-1.110,-0.480
3090,-1.100,-0.475
3091,-1.090,-0.490
3092,-1.080,-0.475
3093,-1.080,-0.450
3094,-1.080,-0.445
3095,-1.070,-0.455
3096,-1.090,-0.480
3097,-1.085,-0.490
3098,-1.080,-0.485
3099,-1.065,-0.495
3100,-1.060,-0.470
3101,-1.070,-0.510
3102,-1.075,-0.510
3103,-1.060,-0.540
3104,-1.075,-0.565
3105,-1.080,-0.595
3106,-1.095,-0.630
3107,-1.120,-0.620
3108,-1.130,-0.620
3109,-1.150,-0.610
3110,-1.140,-0.605
3111,-1.150,-0.605
3112,-1.145,-0.610
3113,-1.145,-0.610
3114,-1.140,-0.645
3115,-1.155,-0.685
3116,-1.180,-0.705
3117,-1.185,-0.720
3118,-1.185,-0.725
3119,-1.175,-0.735
3120,-1.185,-0.730
3121,-1.220,-0.750
3122,-1.240,-0.775
3123,-1.265,-0.760
3124,-1.275,-0.770
3125,-1.255,-0.800
3126,-1.265,-0.815
3127,-1.250,-0.825
3128,-1.245,-0.830
3129,-1.245,-0.820
3130,-1.245,-0.810
3131,-1.255,-0.835
3132,-1.280,-0.860
3133,-1.300,-0.870
3134,-1.305,-0.885
3135,-1.295,-0.875
3136,-1.290,-0.875
3137,-1.295,-0.865
3138,-1.295,-0.865
3139,-1.280,-0.845
3140,-1.265,-0.860
3141,-1.265,-0.855
3142,-1.260,-0.845
3143,-1.275,-0.875
3144,-1.275,-0.885
3145,-1.295,-0.905
3146,-1.290,-0.915
3147,-1.270,-0.905
3148,-1.260,-0.895
3149,-1.235,-0.860
3150,-1.210,-0.850
3151,-1.185,-0.840
3152,-1.185,-0.835
3153,-1.175,-0.815
3154,-1.160,-0.800
3155,-1.160,-0.775
3156,-1.140,-0.775
3157,-1.135,-0.790
3158,-1.135,-0.785
3159,-1.105,-0.760
3160,-1.055,-0.750
3161,-1.050,-0.730
3162,-1.020,-0.700
3163,-0.995,-0.665
3164,-0.980,-0.650
3165,-0.965,-0.645
3166,-0.985,-0.645
3167,-1.005,-0.670
3168,-1.020,-0.665
3169,-1.040,-0.685
3170,-1.025,-0.655
3171,-1.015,-0.640
3172,-1.010,-0.615
3173,-1.000,-0.605
3174,-0.985,-0.585
3175,-0.960,-0.575
3176,-0.955,-0.555
3177,-0.955,-0.555
3178,-0.955,-0.560
3179,-0.985,-0.560
3180,-0.995,-0.595
3181,-0.990,-0.600
3182,-1.010,-0.590
3183,-0.990,-0.585
3184,-0.985,-0.560
3185,-0.985,-0.530
3186,-0.975,-0.500
3187,-0.960,-0.485
3188,-0.945,-0.495
3189,-0.935,-0.525
3190,-0.955,-0.540
3191,-0.995,-0.565
3192,-1.025,-0.585
3193,-1.045,-0.575
3194,-1.065,-0.565
3195,-1.065,-0.545
3196,-1.035,-0.520
3197,-0.995,-0.500
3198,-0.970,-0.505
3199,-0.970,-0.515
3200,-0.995,-0.525
3201,-1.030,-0.540
3202,-1.050,-0.570
3203,-1.055,-0.575
3204,-1.065,-0.580
3205,-1.035,-0.580
3206,-1.015,-0.580
3207,-1.000,-0.560
3208,-1.000,-0.545
3209,-1.005,-0.535
3210,-1.010,-0.540
3211,-1.040,-0.555
3212,-1.045,-0.570
3213,-1.065,-0.625
3214,-1.080,-0.630
3215,-1.065,-0.645
3216,-1.050,-0.630
3217,-1.040,-0.590
3218,-1.025,-0.565
3219,-1.025,-0.515
3220,-1.025,-0.510
3221,-1.025,-0.500
3222,-1.040,-0.490
3223,-1.040,-0.515
3224,-1.040,-0.535
3225,-1.060,-0.575
3226,-1.075,-0.595
3227,-1.080,-0.625
3228,-1.070,-0.615
3229,-1.060,-0.600
3230,-1.065,-0.575
3231,-1.045,-0.570
3232,-1.040,-0.520
3233,-1.055,-0.525
3234,-1.055,-0.530
3235,-1.060,-0.575
3236,-1.060,-0.575
3237,-1.100,-0.585
3238,-1.115,-0.615
3239,-1.130,-0.625
3240,-1.150,-0.625
3241,-1.155,-0.605
3242,-1.125,-0.600
3243,-1.075,-0.550
3244,-1.040,-0.540
3245,-1.020,-0.545
3246,-1.035,-0.540
3247,-1.060,-0.560
3248,-1.090,-0.560
3249,-1.115,-0.545
3250,-1.110,-0.540
3251,-1.115,-0.535
3252,-1.095,-0.525
3253,-1.105,-0.540
3254,-1.115,-0.555
3255,-1.125,-0.550
3256,-1.125,-0.550
3257,-1.095,-0.535
3258,-1.085,-0.510
3259,-1.075,-0.500
3260,-1.070,-0.515
3261,-1.070,-0.520
3262,-1.090,-0.535
3263,-1.110,-0.550
3264,-1.110,-0.570
3265,-1.125,-0.560
3266,-1.145,-0.575
3267,-1.130,-0.580
3268,-1.105,-0.565
3269,-1.100,-0.580
3270,-1.095,-0.595
3271,-1.100,-0.575
3272,-1.100,-0.580
3273,-1.100,-0.550
3274,-1.075,-0.545
3275,-1.075,-0.525
3276,-1.060,-0.545
3277,-1.065,-0.560
3278,-1.065,-0.600
3279,-1.070,-0.630
3280,-1.070,-0.645
3281,-1.060,-0.640
3282,-1.060,-0.620
3283,-1.015,-0.585
3284,-1.025,-0.580
3285,-1.015,-0.560
3286,-0.985,-0.585
3287,-0.970,-0.600
3288,-0.955,-0.600
3289,-0.955,-0.585
3290,-0.945,-0.560
3291,-0.945,-0.525
3292,-0.945,-0.500
3293,-0.965,-0.495
3294,-0.975,-0.505
3295,-0.995,-0.515
3296,-1.010,-0.545
3297,-1.010,-0.575
3298,-1.025,-0.585
3299,-1.010,-0.590
3300,-0.990,-0.565
3301,-0.960,-0.505
3302,-0.940,-0.455
3303,-0.935,-0.410
3304,-0.940,-0.360
3305,-0.970,-0.385
3306,-1.020,-0.390
3307,-1.060,-0.440
3308,-1.090,-0.490
3309,-1.110,-0.495
3310,-1.110,-0.540
3311,-1.130,-0.555
3312,-1.155,-0.560
3313,-1.160,-0.565
3314,-1.165,-0.570
3315,-1.185,-0.550
3316,-1.195,-0.535
3317,-1.190,-0.545
3318,-1.200,-0.525
3319,-1.190,-0.520
3320,-1.195,-0.540
3321,-1.200,-0.580
3322,-1.180,-0.580
3323,-1.175,-0.600
3324,-1.185,-0.610
3325,-1.210,-0.615
3326,-1.225,-0.595
3327,-1.245,-0.590
3328,-1.245,-0.585
3329,-1.240,-0.580
3330,-1.190,-0.580
3331,-1.180,-0.575
3332,-1.165,-0.610
3333,-1.205,-0.590
3334,-1.200,-0.590
3335,-1.225,-0.590
3336,-1.220,-0.625
3337,-1.230,-0.620
3338,-1.235,-0.635
3339,-1.225,-0.620
3340,-1.205,-0.610
3341,-1.185,-0.595
3342,-1.155,-0.570
3343,-1.150,-0.555
3344,-1.180,-0.575
3345,-1.210,-0.610
3346,-1.245,-0.650
3347,-1.285,-0.700
3348,-1.325,-0.760
3349,-1.330,-0.825
3350,-1.310,-0.880
3351,-1.240,-0.960
3352,-1.125,-1.040
3353,-0.960,-1.145
3354,-0.815,-1.270
3355,-0.685,-1.405
3356,-0.620,-1.520
3357,-0.560,-1.550
3358,-0.565,-1.545
3359,-0.585,-1.435
3360,-0.580,-1.310
3361,-0.550,-1.145
3362,-0.430,-0.990
3363,-0.270,-0.820
3364,-0.100,-0.640
3365,0.040,-0.415
3366,0.050,-0.130
3367,-0.040,0.150
3368,-0.345,0.355
3369,-0.765,0.415
3370,-1.180,0.330
3371,-1.560,0.095
3372,-1.845,-0.155
3373,-2.030,-0.400
3374,-2.165,-0.525
3375,-2.215,-0.610
3376,-2.245,-0.640
3377,-2.240,-0.665
3378,-2.240,-0.715
3379,-2.210,-0.760
3380,-2.215,-0.815
3381,-2.205,-0.830
3382,-2.215,-0.840
3383,-2.230,-0.815
3384,-2.260,-0.820
3385,-2.260,-0.810
3386,-2.235,-0.825
3387,-2.190,-0.825
3388,-2.090,-0.830
3389,-1.955,-0.845
3390,-1.815,-0.815
3391,-1.685,-0.785
3392,-1.575,-0.735
3393,-1.510,-0.670
3394,-1.430,-0.620
3395,-1.395,-0.600
3396,-1.385,-0.585
3397,-1.385,-0.580
3398,-1.375,-0.595
3399,-1.380,-0.595
3400,-1.350,-0.615
3401,-1.315,-0.605
3402,-1.290,-0.585
3403,-1.265,-0.570
3404,-1.265,-0.575
3405,-1.270,-0.560
3406,-1.290,-0.575
3407,-1.305,-0.590
3408,-1.300,-0.595
3409,-1.325,-0.595
3410,-1.345,-0.600
3411,-1.380,-0.595
3412,-1.365,-0.600
3413,-1.375,-0.630
3414,-1.335,-0.645
3415,-1.320,-0.650
3416,-1.305,-0.660
3417,-1.305,-0.660
3418,-1.345,-0.670
3419,-1.360,-0.670
3420,-1.360,-0.675
3421,-1.385,-0.685
3422,-1.390,-0.695
3423,-1.385,-0.710
3424,-1.380,-0.730
3425,-1.365,-0.745
3426,-1.380,-0.730
3427,-1.410,-0.760
3428,-1.430,-0.790
3429,-1.440,-0.810
3430,-1.445,-0.845
3431,-1.455,-0.870
3432,-1.465,-0.860
3433,-1.480,-0.860
3434,-1.500,-0.845
3435,-1.525,-0.875
3436,-1.525,-0.865
3437,-1.540,-0.890
3438,-1.525,-0.910
3439,-1.500,-0.910
3440,-1.515,-0.925
3441,-1.500,-0.950
3442,-1.495,-0.990
3443,-1.495,-1.000
3444,-1.535,-1.000
3445,-1.540,-1.000
3446,-1.550,-0.995
3447,-1.545,-0.990
3448,-1.535,-0.975
3449,-1.520,-0.985
3450,-1.495,-0.995
3451,-1.490,-0.990
3452,-1.495,-1.000
3453,-1.505,-1.000
3454,-1.500,-1.000
3455,-1.510,-1.015
3456,-1.505,-1.010
3457,-1.515,-1.000
3458,-1.520,-0.995
3459,-1.505,-0.960
3460,-1.475,-0.940
3461,-1.425,-0.900
3462,-1.375,-0.900
3463,-1.340,-0.885
3464,-1.315,-0.915
3465,-1.315,-0.890
3466,-1.330,-0.900
3467,-1.360,-0.910
3468,-1.395,-0.885
3469,-1.385,-0.880
3470,-1.355,-0.865
3471,-1.315,-0.830
3472,-1.255,-0.810
3473,-1.220,-0.775
3474,-1.205,-0.750
3475,-1.175,-0.740
3476,-1.170,-0.720
3477,-1.175,-0.700
3478,-1.160,-0.670
3479,-1.165,-0.645
3480,-1.160,-0.655
3481,-1.175,-0.650
3482,-1.185,-0.660
3483,-1.205,-0.680
3484,-1.215,-0.685
3485,-1.210,-0.685
3486,-1.205,-0.670
3487,-1.190,-0.635
3488,-1.175,-0.605
3489,-1.185,-0.580
3490,-1.185,-0.585
3491,-1.175,-0.605
3492,-1.180,-0.635
3493,-1.185,-0.645
3494,-1.185,-0.640
3495,-1.200,-0.625
3496,-1.195,-0.600
3497,-1.175,-0.600
3498,-1.165,-0.585
3499,-1.150,-0.575
3500,-1.160,-0.590
3501,-1.145,-0.595
3502,-1.155,-0.615
3503,-1.175,-0.625
3504,-1.160,-0.635
3505,-1.185,-0.650
3506,-1.200,-0.645
3507,-1.210,-0.645
3508,-1.175,-0.630
3509,-1.165,-0.630
3510,-1.185,-0.610
3511,-1.175,-0.600
3512,-1.165,-0.590
3513,-1.175,-0.580
3514,-1.205,-0.590
3515,-1.235,-0.610
3516,-1.260,-0.615
3517,-1.245,-0.645
3518,-1.245,-0.640
3519,-1.240,-0.660
3520,-1.205,-0.645
3521,-1.190,-0.635
3522,-1.175,-0.610
3523,-1.180,-0.645
3524,-1.190,-0.615
3525,-1.220,-0.620
3526,-1.235,-0.610
3527,-1.250,-0.615
3528,-1.240,-0.625
3529,-1.235,-0.645
3530,-1.230,-0.665
3531,-1.205,-0.650
3532,-1.205,-0.635
3533,-1.180,-0.610
3534,-1.200,-0.620
3535,-1.190,-0.600
3536,-1.185,-0.615
3537,-1.165,-0.605
3538,-1.150,-0.615
3539,-1.150,-0.620
3540,-1.180,-0.625
3541,-1.200,-0.635
3542,-1.240,-0.645
3543,-1.255,-0.675
3544,-1.255,-0.660
3545,-1.230,-0.675
3546,-1.225,-0.650
3547,-1.205,-0.645
3548,-1.175,-0.615
3549,-1.195,-0.605
3550,-1.185,-0.590
3551,-1.165,-0.615
3552,-1.170,-0.615
3553,-1.165,-0.630
3554,-1.180,-0.660
3555,-1.190,-0.655
3556,-1.200,-0.660
3557,-1.190,-0.655
3558,-1.195,-0.645
3559,-1.195,-0.650
3560,-1.180,-0.655
3561,-1.185,-0.640
3562,-1.185,-0.645
3563,-1.175,-0.640
3564,-1.170,-0.615
3565,-1.160,-0.630
3566,-1.175,-0.635
3567,-1.185,-0.620
3568,-1.180,-0.610
3569,-1.185,-0.595
3570,-1.195,-0.590
3571,-1.170,-0.580
3572,-1.175,-0.590
3573,-1.150,-0.635
3574,-1.150,-0.645
3575,-1.155,-0.655
3576,-1.160,-0.660
3577,-1.160,-0.645
3578,-1.160,-0.640
3579,-1.170,-0.620
3580,-1.160,-0.620
3581,-1.135,-0.600
3582,-1.130,-0.620
3583,-1.110,-0.610
3584,-1.125,-0.625
3585,-1.135,-0.615
3586,-1.160,-0.610
3587,-1.175,-0.610
3588,-1.180,-0.630
3589,-1.160,-0.630
3590,-1.145,-0.645
3591,-1.115,-0.645
3592,-1.095,-0.630
3593,-1.085,-0.625
3594,-1.075,-0.615
3595,-1.050,-0.630
3596,-1.055,-0.660
3597,-1.055,-0.685
3598,-1.040,-0.695
3599,-1.035,-0.690
3600,-1.015,-0.675
3601,-0.980,-0.665
3602,-0.980,-0.645
3603,-0.960,-0.625
3604,-0.955,-0.625
3605,-0.965,-0.620
3606,-0.965,-0.605
3607,-0.995,-0.615
3608,-1.030,-0.610
3609,-1.025,-0.600
3610,-1.035,-0.610
3611,-1.050,-0.595
3612,-1.015,-0.595
3613,-0.970,-0.560
3614,-0.940,-0.535
3615,-0.940,-0.510
3616,-0.950,-0.500
3617,-0.965,-0.495
3618,-0.990,-0.495
3619,-1.005,-0.510
3620,-1.045,-0.535
3621,-1.095,-0.570
3622,-1.120,-0.615
3623,-1.115,-0.650
3624,-1.135,-0.675
3625,-1.145,-0.690
3626,-1.160,-0.650
3627,-1.195,-0.625
3628,-1.190,-0.590
3629,-1.205,-0.590
3630,-1.200,-0.585
3631,-1.190,-0.595
3632,-1.185,-0.635
3633,-1.175,-0.635
3634,-1.160,-0.670
3635,-1.180,-0.675
3636,-1.180,-0.675
3637,-1.195,-0.670
3638,-1.215,-0.675
3639,-1.215,-0.665
3640,-1.195,-0.635
3641,-1.180,-0.635
3642,-1.150,-0.630
3643,-1.140,-0.635
3644,-1.145,-0.635
3645,-1.145,-0.630
3646,-1.185,-0.645
3647,-1.205,-0.650
3648,-1.260,-0.665
3649,-1.265,-0.680
3650,-1.270,-0.680
3651,-1.245,-0.675
3652,-1.225,-0.635
3653,-1.205,-0.655
3654,-1.170,-0.640
3655,-1.160,-0.645
3656,-1.160,-0.645
3657,-1.175,-0.680
3658,-1.190,-0.725
3659,-1.215,-0.770
3660,-1.235,-0.820
3661,-1.225,-0.870
3662,-1.200,-0.920
3663,-1.125,-0.995
3664,-1.000,-1.085
3665,-0.840,-1.230
3666,-0.670,-1.390
3667,-0.520,-1.510
3668,-0.460,-1.550
3669,-0.455,-1.545
3670,-0.510,-1.460
3671,-0.515,-1.315
3672,-0.475,-1.170
3673,-0.320,-0.980
3674,-0.140,-0.785
3675,0.025,-0.530
3676,0.115,-0.205
3677,0.040,0.065
3678,-0.220,0.295
3679,-0.620,0.360
3680,-1.050,0.295
3681,-1.445,0.100
3682,-1.735,-0.125
3683,-1.900,-0.340
3684,-1.975,-0.510
3685,-2.015,-0.590
3686,-2.070,-0.645
3687,-2.120,-0.670
3688,-2.165,-0.705
3689,-2.220,-0.770
3690,-2.255,-0.805
3691,-2.260,-0.830
3692,-2.255,-0.830
3693,-2.255,-0.850
3694,-2.265,-0.860
3695,-2.285,-0.870
3696,-2.290,-0.870
3697,-2.275,-0.865
3698,-2.230,-0.890
3699,-2.175,-0.910
3700,-2.095,-0.915
3701,-2.005,-0.880
3702,-1.890,-0.875
3703,-1.735,-0.810
3704,-1.625,-0.745
3705,-1.515,-0.695
3706,-1.415,-0.650
3707,-1.365,-0.630
3708,-1.355,-0.640
3709,-1.340,-0.615
3710,-1.320,-0.610
3711,-1.285,-0.600
3712,-1.250,-0.605
3713,-1.225,-0.610
3714,-1.205,-0.590
3715,-1.200,-0.580
3716,-1.185,-0.585
3717,-1.210,-0.595
3718,-1.240,-0.625
3719,-1.270,-0.660
3720,-1.280,-0.660
3721,-1.270,-0.680
3722,-1.280,-0.685
3723,-1.235,-0.690
3724,-1.245,-0.675
3725,-1.245,-0.675
3726,-1.235,-0.665
3727,-1.230,-0.650
3728,-1.250,-0.655
3729,-1.250,-0.675
3730,-1.265,-0.680
3731,-1.270,-0.715
3732,-1.275,-0.730
3733,-1.280,-0.755
3734,-1.275,-0.745
3735,-1.285,-0.730
3736,-1.285,-0.725
3737,-1.305,-0.750
3738,-1.300,-0.760
3739,-1.320,-0.805
3740,-1.325,-0.845
3741,-1.345,-0.865
3742,-1.345,-0.880
3743,-1.350,-0.915
3744,-1.365,-0.930
3745,-1.375,-0.945
3746,-1.400,-0.935
3747,-1.420,-0.930
3748,-1.435,-0.925
3749,-1.450,-0.930
3750,-1.445,-0.910
3751,-1.430,-0.920
3752,-1.435,-0.940
3753,-1.435,-0.955
3754,-1.430,-0.940
3755,-1.430,-0.955
3756,-1.435,-0.945
3757,-1.445,-0.980
3758,-1.460,-0.995
3759,-1.470,-1.000
3760,-1.450,-1.005
3761,-1.435,-1.015
3762,-1.430,-1.020
3763,-1.410,-1.015
3764,-1.420,-1.000
3765,-1.445,-1.005
3766,-1.450,-1.010
3767,-1.445,-1.015
3768,-1.440,-1.005
3769,-1.420,-1.015
3770,-1.415,-1.010
3771,-1.390,-1.005
3772,-1.355,-1.005
3773,-1.335,-0.995
3774,-1.305,-0.995
3775,-1.290,-0.960
3776,-1.285,-0.955
3777,-1.280,-0.900
3778,-1.275,-0.890
3779,-1.280,-0.880
3780,-1.260,-0.885
3781,-1.220,-0.895
3782,-1.210,-0.885
3783,-1.205,-0.870
3784,-1.185,-0.860
3785,-1.170,-0.825
3786,-1.150,-0.805
3787,-1.120,-0.785
3788,-1.110,-0.785
3789,-1.100,-0.780
3790,-1.105,-0.775
3791,-1.130,-0.760
3792,-1.130,-0.765
3793,-1.115,-0.730
3794,-1.110,-0.715
3795,-1.105,-0.710
3796,-1.090,-0.705
3797,-1.065,-0.700
3798,-1.035,-0.680
3799,-1.015,-0.670
3800,-1.040,-0.640
3801,-1.065,-0.615
3802,-1.065,-0.625
3803,-1.105,-0.605
3804,-1.110,-0.620
3805,-1.100,-0.620
3806,-1.100,-0.615
3807,-1.080,-0.620
3808,-1.060,-0.630
3809,-1.040,-0.635
3810,-1.030,-0.615
3811,-1.030,-0.630
3812,-1.040,-0.610
3813,-1.065,-0.580
3814,-1.105,-0.600
3815,-1.115,-0.605
3816,-1.115,-0.640
3817,-1.115,-0.650
3818,-1.115,-0.650
3819,-1.105,-0.660
3820,-1.075,-0.680
3821,-1.075,-0.645
3822,-1.075,-0.630
3823,-1.060,-0.615
3824,-1.075,-0.605
3825,-1.095,-0.605
3826,-1.125,-0.620
3827,-1.160,-0.620
3828,-1.185,-0.670
3829,-1.180,-0.670
3830,-1.160,-0.670
3831,-1.140,-0.655
3832,-1.115,-0.650
3833,-1.105,-0.640
3834,-1.100,-0.635
3835,-1.105,-0.640
3836,-1.110,-0.665
3837,-1.110,-0.665
3838,-1.110,-0.685
3839,-1.115,-0.685
3840,-1.110,-0.690
3841,-1.115,-0.665
3842,-1.130,-0.650
3843,-1.135,-0.640
3844,-1.130,-0.625
3845,-1.130,-0.635
3846,-1.110,-0.660
3847,-1.105,-0.665
3848,-1.105,-0.665
3849,-1.085,-0.650
3850,-1.080,-0.635
3851,-1.090,-0.655
3852,-1.095,-0.660
3853,-1.105,-0.675
3854,-1.115,-0.665
3855,-1.120,-0.655
3856,-1.120,-0.630
3857,-1.120,-0.610
3858,-1.095,-0.605
3859,-1.090,-0.615
3860,-1.115,-0.625
3861,-1.110,-0.630
3862,-1.110,-0.650
3863,-1.095,-0.655
3864,-1.100,-0.660
3865,-1.095,-0.660
3866,-1.095,-0.665
3867,-1.105,-0.680
3868,-1.105,-0.660
3869,-1.105,-0.655
3870,-1.080,-0.640
3871,-1.055,-0.620
3872,-1.050,-0.625
3873,-1.075,-0.615
3874,-1.095,-0.605
3875,-1.135,-0.620
3876,-1.135,-0.590
3877,-1.130,-0.630
3878,-1.125,-0.625
3879,-1.130,-0.630
3880,-1.095,-0.645
3881,-1.075,-0.655
3882,-1.060,-0.655
3883,-1.055,-0.645
3884,-1.050,-0.640
3885,-1.055,-0.640
3886,-1.075,-0.645
3887,-1.075,-0.645
3888,-1.080,-0.670
3889,-1.070,-0.675
3890,-1.075,-0.650
3891,-1.070,-0.640
3892,-1.040,-0.630
3893,-1.040,-0.620
3894,-1.015,-0.620
3895,-1.000,-0.650
3896,-1.010,-0.675
3897,-1.000,-0.710
3898,-1.005,-0.715
3899,-0.980,-0.700
3900,-0.975,-0.680
3901,-0.940,-0.660
3902,-0.925,-0.625
3903,-0.885,-0.615
3904,-0.860,-0.605
3905,-0.865,-0.580
3906,-0.895,-0.555
3907,-0.920,-0.560
3908,-0.945,-0.595
3909,-0.965,-0.620
3910,-0.970,-0.655
3911,-0.990,-0.680
3912,-0.990,-0.665
3913,-0.995,-0.655
3914,-0.975,-0.615
3915,-0.945,-0.570
3916,-0.920,-0.535
3917,-0.885,-0.495
3918,-0.860,-0.440
3919,-0.875,-0.425
3920,-0.920,-0.430
3921,-0.960,-0.425
3922,-0.980,-0.450
3923,-1.000,-0.500
3924,-1.030,-0.550
3925,-1.040,-0.590
3926,-1.050,-0.590
3927,-1.075,-0.565
3928,-1.080,-0.555
3929,-1.085,-0.555
3930,-1.075,-0.565
3931,-1.065,-0.575
3932,-1.055,-0.595
3933,-1.065,-0.610
3934,-1.090,-0.645
3935,-1.125,-0.645
3936,-1.160,-0.665
3937,-1.185,-0.650
3938,-1.200,-0.620
3939,-1.175,-0.590
3940,-1.150,-0.555
3941,-1.125,-0.550
3942,-1.110,-0.575
3943,-1.105,-0.580
3944,-1.130,-0.600
3945,-1.130,-0.635
3946,-1.130,-0.640
3947,-1.135,-0.640
3948,-1.140,-0.640
3949,-1.140,-0.635
3950,-1.150,-0.625
3951,-1.165,-0.625
3952,-1.160,-0.605
3953,-1.155,-0.630
3954,-1.145,-0.620
3955,-1.095,-0.605
3956,-1.095,-0.600
3957,-1.080,-0.605
3958,-1.085,-0.625
3959,-1.110,-0.670
3960,-1.125,-0.690
3961,-1.150,-0.695
3962,-1.180,-0.725
3963,-1.170,-0.720
3964,-1.170,-0.765
3965,-1.120,-0.840
3966,-1.045,-0.880
3967,-0.930,-1.000
3968,-0.770,-1.095
3969,-0.610,-1.215
3970,-0.450,-1.340
3971,-0.350,-1.415
3972,-0.315,-1.425
3973,-0.335,-1.375
3974,-0.385,-1.270
3975,-0.385,-1.130
3976,-0.335,-0.980
3977,-0.225,-0.805
3978,-0.065,-0.630
3979,0.105,-0.415
3980,0.185,-0.160
3981,0.180,0.100
3982,0.005,0.325
3983,-0.345,0.475
3984,-0.765,0.475
3985,-1.205,0.335
3986,-1.575,0.100
3987,-1.835,-0.160
3988,-1.975,-0.395
3989,-2.050,-0.560
3990,-2.090,-0.655
3991,-2.110,-0.705
3992,-2.145,-0.755
3993,-2.180,-0.800
3994,-2.190,-0.835
3995,-2.215,-0.865
3996,-2.205,-0.870
3997,-2.175,-0.860
3998,-2.160,-0.845
3999,-2.145,-0.820
4000,-2.115,-0.820
4001,-2.085,-0.835
4002,-2.055,-0.835
4003,-2.025,-0.835
4004,-1.960,-0.850
4005,-1.855,-0.825
4006,-1.715,-0.780
4007,-1.565,-0.745
4008,-1.450,-0.690
4009,-1.355,-0.660
4010,-1.300,-0.605
4011,-1.250,-0.565
4012,-1.230,-0.545
4013,-1.235,-0.525
4014,-1.230,-0.535
4015,-1.225,-0.545
4016,-1.240,-0.570
4017,-1.240,-0.595
4018,-1.245,-0.630
4019,-1.230,-0.620
4020,-1.220,-0.625
4021,-1.210,-0.610
4022,-1.205,-0.565
4023,-1.210,-0.530
4024,-1.170,-0.495
4025,-1.165,-0.505
4026,-1.170,-0.525
4027,-1.175,-0.560
4028,-1.190,-0.585
4029,-1.200,-0.620
4030,-1.210,-0.645
4031,-1.220,-0.645
4032,-1.225,-0.650
4033,-1.220,-0.635
4034,-1.225,-0.630
4035,-1.225,-0.640
4036,-1.215,-0.645
4037,-1.230,-0.675
4038,-1.210,-0.685
4039,-1.225,-0.725
4040,-1.270,-0.770
4041,-1.275,-0.790
4042,-1.285,-0.800
4043,-1.300,-0.790
4044,-1.305,-0.790
4045,-1.315,-0.805
4046,-1.335,-0.830
4047,-1.360,-0.860
4048,-1.380,-0.870
4049,-1.380,-0.880
4050,-1.365,-0.880
4051,-1.355,-0.885
4052,-1.330,-0.880
4053,-1.345,-0.915
4054,-1.360,-0.905
4055,-1.375,-0.930
4056,-1.385,-0.950
4057,-1.415,-0.955
4058,-1.445,-0.975
4059,-1.450,-0.970
4060,-1.435,-0.975
4061,-1.415,-0.980
4062,-1.410,-0.955
4063,-1.390,-0.955
4064,-1.385,-0.965
4065,-1.360,-0.990
4066,-1.380,-0.995
4067,-1.395,-1.000
4068,-1.405,-1.020
4069,-1.415,-1.025
4070,-1.440,-1.015
4071,-1.420,-1.025
4072,-1.400,-0.985
4073,-1.380,-0.965
4074,-1.350,-0.925
4075,-1.305,-0.900
4076,-1.295,-0.900
4077,-1.295,-0.895
4078,-1.285,-0.895
4079,-1.280,-0.890
4080,-1.285,-0.875
4081,-1.275,-0.885
4082,-1.255,-0.885
4083,-1.230,-0.875
4084,-1.205,-0.855
4085,-1.190,-0.810
4086,-1.150,-0.790
4087,-1.135,-0.750
4088,-1.110,-0.720
4089,-1.090,-0.705
4090,-1.070,-0.710
4091,-1.070,-0.700
4092,-1.080,-0.735
4093,-1.090,-0.720
4094,-1.100,-0.715
4095,-1.105,-0.690
4096,-1.070,-0.645
4097,-1.065,-0.625
4098,-1.055,-0.590
4099,-1.030,-0.575
4100,-1.020,-0.595
4101,-1.040,-0.630
4102,-1.045,-0.655
4103,-1.065,-0.660
4104,-1.070,-0.640
4105,-1.065,-0.635
4106,-1.055,-0.610
4107,-1.035,-0.600
4108,-1.025,-0.570
4109,-1.025,-0.560
4110,-1.025,-0.550
4111,-1.025,-0.560
4112,-1.040,-0.575
4113,-1.050,-0.580
4114,-1.055,-0.575
4115,-1.035,-0.565
4116,-1.030,-0.570
4117,-1.035,-0.565
4118,-1.055,-0.585
4119,-1.055,-0.575
4120,-1.065,-0.570
4121,-1.055,-0.560
4122,-1.070,-0.555
4123,-1.050,-0.555
4124,-1.055,-0.560
4125,-1.050,-0.565
4126,-1.045,-0.570
4127,-1.070,-0.595
4128,-1.065,-0.590
4129,-1.080,-0.590
4130,-1.080,-0.565
4131,-1.065,-0.560
4132,-1.045,-0.545
4133,-1.055,-0.540
4134,-1.045,-0.535
4135,-1.050,-0.540
4136,-1.035,-0.530
4137,-1.045,-0.550
4138,-1.070,-0.590
4139,-1.065,-0.605
4140,-1.080,-0.620
4141,-1.075,-0.590
4142,-1.075,-0.535
4143,-1.055,-0.490
4144,-1.050,-0.490
4145,-1.035,-0.515
4146,-1.025,-0.575
4147,-1.005,-0.615
4148,-1.000,-0.630
4149,-0.995,-0.630
4150,-0.990,-0.615
4151,-0.990,-0.615
4152,-1.005,-0.630
4153,-1.025,-0.630
4154,-1.045,-0.655
4155,-1.055,-0.660
4156,-1.055,-0.650
4157,-1.050,-0.615
4158,-1.030,-0.585
4159,-1.010,-0.545
4160,-0.995,-0.525
4161,-0.980,-0.510
4162,-0.985,-0.515
4163,-1.015,-0.560
4164,-1.040,-0.590
4165,-1.060,-0.625
4166,-1.060,-0.615
4167,-1.055,-0.605
4168,-1.035,-0.600
4169,-1.015,-0.595
4170,-0.995,-0.585
4171,-0.980,-0.580
4172,-0.965,-0.570
4173,-0.990,-0.575
4174,-0.985,-0.575
4175,-0.990,-0.585
4176,-0.995,-0.605
4177,-1.010,-0.630
4178,-1.005,-0.625
4179,-1.000,-0.615
4180,-0.985,-0.605
4181,-0.975,-0.600
4182,-0.950,-0.610
4183,-0.955,-0.590
4184,-0.960,-0.595
4185,-0.960,-0.575
4186,-0.975,-0.555
4187,-0.965,-0.560
4188,-0.960,-0.565
4189,-0.975,-0.595
4190,-0.950,-0.600
4191,-0.945,-0.580
4192,-0.930,-0.580
4193,-0.900,-0.580
4194,-0.895,-0.575
4195,-0.870,-0.570
4196,-0.865,-0.610
4197,-0.840,-0.630
4198,-0.845,-0.655
4199,-0.840,-0.670
4200,-0.860,-0.695
4201,-0.845,-0.680
4202,-0.835,-0.680
4203,-0.825,-0.665
4204,-0.795,-0.650
4205,-0.785,-0.640
4206,-0.810,-0.635
4207,-0.835,-0.605
4208,-0.855,-0.575
4209,-0.860,-0.555
4210,-0.870,-0.540
4211,-0.875,-0.565
4212,-0.895,-0.590
4213,-0.895,-0.630
4214,-0.895,-0.625
4215,-0.885,-0.635
4216,-0.845,-0.615
4217,-0.830,-0.580
4218,-0.795,-0.535
4219,-0.765,-0.515
4220,-0.750,-0.475
4221,-0.785,-0.445
4222,-0.795,-0.465
4223,-0.830,-0.505
4224,-0.870,-0.555
4225,-0.925,-0.600
4226,-0.960,-0.640
4227,-0.940,-0.635
4228,-0.945,-0.635
4229,-0.910,-0.620
4230,-0.900,-0.585
4231,-0.890,-0.565
4232,-0.915,-0.560
4233,-0.935,-0.585
4234,-0.960,-0.625
4235,-1.015,-0.660
4236,-1.035,-0.670
4237,-1.055,-0.675
4238,-1.070,-0.665
4239,-1.050,-0.670
4240,-1.015,-0.625
4241,-1.005,-0.600
4242,-1.000,-0.590
4243,-0.985,-0.590
4244,-1.000,-0.610
4245,-1.000,-0.650
4246,-1.030,-0.670
4247,-1.030,-0.680
4248,-1.035,-0.680
4249,-1.055,-0.660
4250,-1.060,-0.650
4251,-1.065,-0.620
4252,-1.065,-0.605
4253,-1.035,-0.610
4254,-1.025,-0.615
4255,-1.005,-0.630
4256,-0.995,-0.650
4257,-0.995,-0.650
4258,-1.000,-0.655
4259,-1.005,-0.650
4260,-1.030,-0.670
4261,-1.035,-0.670
4262,-1.040,-0.685
4263,-1.055,-0.715
4264,-1.050,-0.720
4265,-1.060,-0.725
4266,-1.055,-0.760
4267,-1.055,-0.780
4268,-1.050,-0.870
4269,-1.030,-0.955
4270,-0.950,-1.080
4271,-0.845,-1.210
4272,-0.725,-1.335
4273,-0.615,-1.445
4274,-0.505,-1.535
4275,-0.440,-1.585
4276,-0.415,-1.570
4277,-0.415,-1.495
4278,-0.420,-1.360
4279,-0.395,-1.245
4280,-0.270,-1.105
4281,-0.130,-0.960
4282,0.045,-0.790
4283,0.185,-0.545
4284,0.220,-0.250
4285,0.110,0.035
4286,-0.175,0.255
4287,-0.550,0.350
4288,-0.945,0.295
4289,-1.265,0.115
4290,-1.505,-0.090
4291,-1.655,-0.300
4292,-1.720,-0.465
4293,-1.775,-0.560
4294,-1.825,-0.625
4295,-1.875,-0.685
4296,-1.915,-0.755
4297,-1.950,-0.795
4298,-1.965,-0.835
4299,-1.960,-0.845
4300,-1.955,-0.795
4301,-1.925,-0.770
4302,-1.930,-0.735
4303,-1.925,-0.730
4304,-1.915,-0.755
4305,-1.900,-0.770
4306,-1.880,-0.815
4307,-1.805,-0.840
4308,-1.705,-0.865
4309,-1.575,-0.845
4310,-1.460,-0.815
4311,-1.380,-0.760
4312,-1.305,-0.705
4313,-1.245,-0.645
4314,-1.205,-0.625
4315,-1.150,-0.585
4316,-1.140,-0.575
4317,-1.115,-0.580
4318,-1.105,-0.595
4319,-1.095,-0.635
4320,-1.075,-0.655
4321,-1.075,-0.660
4322,-1.060,-0.670
4323,-1.075,-0.660
4324,-1.090,-0.650
4325,-1.100,-0.625
4326,-1.100,-0.600
4327,-1.105,-0.595
4328,-1.110,-0.620
4329,-1.105,-0.645
4330,-1.090,-0.665
4331,-1.095,-0.680
4332,-1.085,-0.705
4333,-1.095,-0.720
4334,-1.105,-0.715
4335,-1.110,-0.725
4336,-1.110,-0.715
4337,-1.125,-0.725
4338,-1.110,-0.720
4339,-1.115,-0.740
4340,-1.100,-0.755
4341,-1.125,-0.790
4342,-1.140,-0.830
4343,-1.165,-0.825
4344,-1.180,-0.845
4345,-1.185,-0.860
4346,-1.190,-0.860
4347,-1.205,-0.875
4348,-1.190,-0.885
4349,-1.195,-0.895
4350,-1.210,-0.895
4351,-1.225,-0.900
4352,-1.235,-0.900
4353,-1.220,-0.890
4354,-1.250,-0.895
4355,-1.255,-0.915
4356,-1.255,-0.955
4357,-1.260,-0.975
4358,-1.270,-0.985
4359,-1.290,-0.980
4360,-1.305,-0.985
4361,-1.315,-0.975
4362,-1.315,-0.980
4363,-1.290,-0.985
4364,-1.290,-1.020
4365,-1.310,-1.040
4366,-1.300,-1.070
4367,-1.325,-1.075
4368,-1.360,-1.060
4369,-1.335,-1.075
4370,-1.360,-1.050
4371,-1.345,-1.045
4372,-1.330,-1.035
4373,-1.310,-1.035
4374,-1.295,-1.020
4375,-1.265,-1.030
4376,-1.255,-1.025
4377,-1.230,-1.025
4378,-1.215,-1.040
4379,-1.240,-1.045
4380,-1.240,-1.040
4381,-1.230,-1.045
4382,-1.220,-1.030
4383,-1.200,-1.020
4384,-1.175,-1.005
4385,-1.135,-1.000
4386,-1.115,-0.995
4387,-1.085,-0.980
4388,-1.075,-0.995
4389,-1.080,-0.945
4390,-1.070,-0.910
4391,-1.065,-0.865
4392,-1.040,-0.840
4393,-1.025,-0.825
4394,-1.015,-0.820
4395,-1.000,-0.830
4396,-0.990,-0.805
4397,-0.990,-0.810
4398,-0.985,-0.800
4399,-0.965,-0.780
4400,-0.960,-0.765
4401,-0.945,-0.750
4402,-0.930,-0.770
4403,-0.930,-0.760
4404,-0.945,-0.770
4405,-0.960,-0.770
4406,-0.960,-0.755
4407,-0.985,-0.720
4408,-0.985,-0.710
4409,-0.960,-0.680
4410,-0.945,-0.695
4411,-0.900,-0.685
4412,-0.900,-0.705
4413,-0.910,-0.700
4414,-0.940,-0.670
4415,-0.955,-0.640
4416,-0.990,-0.620
4417,-0.980,-0.630
4418,-0.985,-0.640
4419,-0.980,-0.655
4420,-0.990,-0.665
4421,-0.965,-0.665
4422,-0.960,-0.700
4423,-0.945,-0.680
4424,-0.945,-0.665
4425,-0.935,-0.645
4426,-0.930,-0.650
4427,-0.930,-0.660
4428,-0.935,-0.655
4429,-0.965,-0.675
4430,-0.970,-0.700
4431,-0.970,-0.685
4432,-0.970,-0.670
4433,-0.985,-0.685
4434,-0.975,-0.670
4435,-0.965,-0.660
4436,-0.965,-0.670
4437,-0.965,-0.680
4438,-0.970,-0.665
4439,-0.970,-0.675
4440,-0.975,-0.685
4441,-0.965,-0.680
4442,-0.980,-0.695
4443,-0.950,-0.705
4444,-0.950,-0.680
4445,-0.935,-0.670
4446,-0.945,-0.670
4447,-0.925,-0.680
4448,-0.925,-0.695
4449,-0.925,-0.705
4450,-0.935,-0.695
4451,-0.935,-0.730
4452,-0.960,-0.715
4453,-0.960,-0.710
4454,-0.960,-0.710
4455,-0.980,-0.720
4456,-0.960,-0.690
4457,-0.955,-0.685
4458,-0.950,-0.660
4459,-0.930,-0.650
4460,-0.940,-0.645
4461,-0.955,-0.655
4462,-0.940,-0.665
4463,-0.935,-0.675
4464,-0.960,-0.685
4465,-0.945,-0.685
4466,-0.950,-0.700
4467,-0.925,-0.685
4468,-0.885,-0.695
4469,-0.870,-0.680
4470,-0.870,-0.675
4471,-0.850,-0.660
4472,-0.850,-0.660
4473,-0.840,-0.655
4474,-0.845,-0.645
4475,-0.855,-0.670
4476,-0.845,-0.685
4477,-0.855,-0.695
4478,-0.855,-0.690
4479,-0.830,-0.690
4480,-0.840,-0.670
4481,-0.825,-0.670
4482,-0.815,-0.665
4483,-0.790,-0.655
4484,-0.790,-0.650
4485,-0.785,-0.645
4486,-0.785,-0.655
4487,-0.775,-0.670
4488,-0.775,-0.680
4489,-0.800,-0.680
4490,-0.785,-0.700
4491,-0.770,-0.675
4492,-0.755,-0.685
4493,-0.730,-0.665
4494,-0.710,-0.665
4495,-0.715,-0.660
4496,-0.690,-0.680
4497,-0.690,-0.710
4498,-0.705,-0.730
4499,-0.695,-0.765
4500,-0.700,-0.765
4501,-0.700,-0.755
4502,-0.675,-0.755
4503,-0.655,-0.750
4504,-0.630,-0.720
4505,-0.605,-0.715
4506,-0.580,-0.700
4507,-0.560,-0.680
4508,-0.535,-0.655
4509,-0.545,-0.650
4510,-0.550,-0.640
4511,-0.605,-0.645
4512,-0.630,-0.650
4513,-0.660,-0.645
4514,-0.685,-0.650
4515,-0.695,-0.660
4516,-0.690,-0.670
4517,-0.670,-0.655
4518,-0.650,-0.640
4519,-0.605,-0.600
4520,-0.570,-0.565
4521,-0.540,-0.540
4522,-0.540,-0.530
4523,-0.570,-0.525
4524,-0.615,-0.540
4525,-0.655,-0.535
4526,-0.700,-0.585
4527,-0.710,-0.595
4528,-0.735,-0.615
4529,-0.725,-0.630
4530,-0.720,-0.610
4531,-0.710,-0.615
4532,-0.720,-0.620
4533,-0.720,-0.640
4534,-0.720,-0.665
4535,-0.765,-0.695
4536,-0.775,-0.710
4537,-0.805,-0.695
4538,-0.810,-0.680
4539,-0.810,-0.650
4540,-0.785,-0.620
4541,-0.780,-0.640
4542,-0.765,-0.620
4543,-0.750,-0.660
4544,-0.745,-0.660
4545,-0.740,-0.690
4546,-0.745,-0.695
4547,-0.740,-0.710
4548,-0.740,-0.705
4549,-0.750,-0.700
4550,-0.740,-0.705
4551,-0.750,-0.700
4552,-0.740,-0.695
4553,-0.730,-0.690
4554,-0.715,-0.690
4555,-0.720,-0.690
4556,-0.735,-0.705
4557,-0.740,-0.710
4558,-0.735,-0.715
4559,-0.740,-0.715
4560,-0.745,-0.705
4561,-0.760,-0.725
4562,-0.745,-0.745
4563,-0.750,-0.750
4564,-0.760,-0.790
4565,-0.765,-0.825
4566,-0.780,-0.875
4567,-0.760,-0.965
4568,-0.710,-1.075
4569,-0.625,-1.205
4570,-0.495,-1.355
4571,-0.365,-1.510
4572,-0.245,-1.645
4573,-0.145,-1.700
4574,-0.115,-1.680
4575,-0.100,-1.565
4576,-0.095,-1.425
4577,-0.035,-1.255
4578,0.075,-1.090
4579,0.240,-0.920
4580,0.415,-0.715
4581,0.540,-0.475
4582,0.565,-0.185
4583,0.445,0.090
4584,0.175,0.285
4585,-0.215,0.335
4586,-0.630,0.250
4587,-1.000,0.080
4588,-1.255,-0.150
4589,-1.380,-0.345
4590,-1.460,-0.460
4591,-1.505,-0.570
4592,-1.565,-0.630
4593,-1.640,-0.665
4594,-1.695,-0.730
4595,-1.740,-0.785
4596,-1.775,-0.845
4597,-1.785,-0.845
4598,-1.805,-0.870
4599,-1.800,-0.860
4600,-1.790,-0.845
4601,-1.775,-0.850
4602,-1.775,-0.850
4603,-1.735,-0.850
4604,-1.705,-0.860
4605,-1.635,-0.875
4606,-1.570,-0.895
4607,-1.495,-0.895
4608,-1.360,-0.870
4609,-1.255,-0.835
4610,-1.145,-0.790
4611,-1.045,-0.755
4612,-0.970,-0.680
4613,-0.905,-0.645
4614,-0.880,-0.635
4615,-0.865,-0.605
4616,-0.870,-0.620
4617,-0.870,-0.630
4618,-0.860,-0.650
4619,-0.865,-0.670
4620,-0.850,-0.675
4621,-0.835,-0.660
4622,-0.840,-0.660
4623,-0.830,-0.650
4624,-0.840,-0.650
4625,-0.820,-0.655
4626,-0.815,-0.655
4627,-0.810,-0.645
4628,-0.820,-0.675
4629,-0.820,-0.685
4630,-0.820,-0.700
4631,-0.840,-0.705
4632,-0.845,-0.695
4633,-0.865,-0.705
4634,-0.880,-0.720
4635,-0.865,-0.730
4636,-0.860,-0.725
4637,-0.850,-0.760
4638,-0.840,-0.750
4639,-0.860,-0.760
4640,-0.840,-0.780
4641,-0.870,-0.800
4642,-0.885,-0.820
4643,-0.905,-0.830
4644,-0.910,-0.855
4645,-0.930,-0.870
4646,-0.945,-0.880
4647,-0.945,-0.885
4648,-0.980,-0.895
4649,-0.975,-0.905
4650,-0.965,-0.915
4651,-0.985,-0.925
4652,-0.970,-0.955
4653,-0.985,-0.975
4654,-1.000,-1.000
4655,-1.015,-1.000
4656,-1.025,-0.995
4657,-1.025,-1.035
4658,-1.030,-1.040
4659,-1.035,-1.040
4660,-1.045,-1.035
4661,-1.040,-1.040
4662,-1.045,-1.020
4663,-1.060,-1.020
4664,-1.045,-1.025
4665,-1.040,-1.020
4666,-1.045,-1.060
4667,-1.060,-1.080
4668,-1.065,-1.085
4669,-1.070,-1.100
4670,-1.060,-1.105
4671,-1.075,-1.100
4672,-1.070,-1.090
4673,-1.055,-1.085
4674,-1.025,-1.070
4675,-0.990,-1.055
4676,-0.975,-1.060
4677,-0.950,-1.045
4678,-0.935,-1.030
4679,-0.925,-1.030
4680,-0.920,-1.035
4681,-0.905,-1.030
4682,-0.900,-1.015
4683,-0.870,-0.990
4684,-0.835,-0.980
4685,-0.825,-0.960
4686,-0.810,-0.935
4687,-0.775,-0.895
4688,-0.765,-0.890
4689,-0.755,-0.875
4690,-0.745,-0.870
4691,-0.745,-0.855
4692,-0.740,-0.850
4693,-0.730,-0.840
4694,-0.730,-0.830
4695,-0.725,-0.825
4696,-0.715,-0.790
4697,-0.695,-0.755
4698,-0.685,-0.740
4699,-0.675,-0.720
4700,-0.665,-0.720
4701,-0.670,-0.730
4702,-0.670,-0.755
4703,-0.670,-0.760
4704,-0.670,-0.770
4705,-0.690,-0.775
4706,-0.690,-0.765
4707,-0.680,-0.750
4708,-0.665,-0.725
4709,-0.660,-0.730
4710,-0.655,-0.700
4711,-0.645,-0.695
4712,-0.640,-0.685
4713,-0.640,-0.680
4714,-0.645,-0.700
4715,-0.650,-0.700
4716,-0.675,-0.710
4717,-0.690,-0.705
4718,-0.710,-0.690
4719,-0.690,-0.700
4720,-0.675,-0.705
4721,-0.660,-0.705
4722,-0.650,-0.675
4723,-0.645,-0.680
4724,-0.650,-0.670
4725,-0.660,-0.700
4726,-0.695,-0.690
4727,-0.690,-0.700
4728,-0.705,-0.710
4729,-0.710,-0.725
4730,-0.725,-0.730
4731,-0.745,-0.725
4732,-0.735,-0.715
4733,-0.720,-0.700
4734,-0.720,-0.710
4735,-0.725,-0.695
4736,-0.700,-0.690
4737,-0.705,-0.685
4738,-0.700,-0.680
4739,-0.715,-0.680
4740,-0.715,-0.685
4741,-0.735,-0.700
4742,-0.745,-0.725
4743,-0.730,-0.710
4744,-0.730,-0.715
4745,-0.710,-0.700
4746,-0.700,-0.670
4747,-0.690,-0.680
4748,-0.680,-0.660
4749,-0.670,-0.645
4750,-0.680,-0.680
4751,-0.690,-0.685
4752,-0.710,-0.680
4753,-0.740,-0.685
4754,-0.745,-0.675
4755,-0.735,-0.690
4756,-0.725,-0.690
4757,-0.705,-0.680
4758,-0.705,-0.685
4759,-0.685,-0.700
4760,-0.680,-0.715
4761,-0.675,-0.720
4762,-0.675,-0.720
4763,-0.690,-0.705
4764,-0.700,-0.685
4765,-0.710,-0.680
4766,-0.725,-0.690
4767,-0.705,-0.680
4768,-0.700,-0.660
4769,-0.695,-0.665
4770,-0.700,-0.670
4771,-0.695,-0.665
4772,-0.700,-0.670
4773,-0.705,-0.695
4774,-0.705,-0.700
4775,-0.710,-0.705
4776,-0.730,-0.745
4777,-0.720,-0.735
4778,-0.730,-0.740
4779,-0.725,-0.715
4780,-0.725,-0.690
4781,-0.705,-0.670
4782,-0.690,-0.640
4783,-0.675,-0.635
4784,-0.665,-0.645
4785,-0.680,-0.665
4786,-0.680,-0.680
4787,-0.690,-0.715
4788,-0.690,-0.725
4789,-0.695,-0.705
4790,-0.695,-0.695
4791,-0.690,-0.685
4792,-0.690,-0.650
4793,-0.660,-0.660
4794,-0.650,-0.660
4795,-0.630,-0.655
4796,-0.620,-0.660
4797,-0.620,-0.690
4798,-0.615,-0.695
4799,-0.615,-0.715
4800,-0.620,-0.725
4801,-0.630,-0.715
4802,-0.635,-0.730
4803,-0.635,-0.715
4804,-0.615,-0.695
4805,-0.585,-0.705
4806,-0.530,-0.685
4807,-0.500,-0.685
4808,-0.470,-0.660
4809,-0.485,-0.640
4810,-0.505,-0.615
4811,-0.535,-0.610
4812,-0.545,-0.630
4813,-0.585,-0.650
4814,-0.615,-0.665
4815,-0.635,-0.660
4816,-0.620,-0.635
4817,-0.575,-0.600
4818,-0.560,-0.540
4819,-0.525,-0.480
4820,-0.495,-0.415
4821,-0.505,-0.360
4822,-0.505,-0.305
4823,-0.515,-0.295
4824,-0.510,-0.320
4825,-0.525,-0.405
4826,-0.560,-0.510
4827,-0.590,-0.630
4828,-0.615,-0.695
4829,-0.655,-0.740
4830,-0.660,-0.700
4831,-0.680,-0.610
4832,-0.705,-0.505
4833,-0.705,-0.475
4834,-0.730,-0.530
4835,-0.745,-0.615
4836,-0.745,-0.715
4837,-0.775,-0.745
4838,-0.785,-0.765
4839,-0.800,-0.760
4840,-0.810,-0.735
4841,-0.780,-0.710
4842,-0.770,-0.685
4843,-0.765,-0.665
4844,-0.755,-0.670
4845,-0.765,-0.675
4846,-0.755,-0.680
4847,-0.750,-0.675
4848,-0.750,-0.660
4849,-0.740,-0.670
4850,-0.730,-0.675
4851,-0.750,-0.650
4852,-0.755,-0.635
4853,-0.750,-0.635
4854,-0.745,-0.635
4855,-0.740,-0.630
4856,-0.765,-0.640
4857,-0.770,-0.680
4858,-0.760,-0.690
4859,-0.775,-0.690
4860,-0.790,-0.695
4861,-0.800,-0.690
4862,-0.795,-0.715
4863,-0.780,-0.705
4864,-0.760,-0.720
4865,-0.750,-0.735
4866,-0.760,-0.755
4867,-0.760,-0.790
4868,-0.765,-0.845
4869,-0.730,-0.920
4870,-0.710,-1.010
4871,-0.640,-1.125
4872,-0.535,-1.245
4873,-0.415,-1.355
4874,-0.270,-1.465
4875,-0.135,-1.555
4876,-0.045,-1.565
4877,-0.010,-1.500
4878,-0.040,-1.405
4879,-0.050,-1.255
4880,-0.025,-1.125
4881,0.055,-1.020
4882,0.165,-0.880
4883,0.310,-0.740
4884,0.430,-0.525
4885,0.490,-0.235
4886,0.420,0.045
4887,0.205,0.265
4888,-0.160,0.375
4889,-0.575,0.300
4890,-0.970,0.110
4891,-1.280,-0.155
4892,-1.460,-0.400
4893,-1.550,-0.595
4894,-1.610,-0.695
4895,-1.665,-0.755
4896,-1.700,-0.810
4897,-1.740,-0.870
4898,-1.760,-0.905
4899,-1.800,-0.930
4900,-1.825,-0.945
4901,-1.815,-0.920
4902,-1.825,-0.920
4903,-1.815,-0.905
4904,-1.810,-0.900
4905,-1.795,-0.900
4906,-1.770,-0.905
4907,-1.745,-0.915
4908,-1.685,-0.950
4909,-1.615,-0.955
4910,-1.490,-0.970
4911,-1.335,-0.915
4912,-1.190,-0.840
4913,-1.025,-0.775
4914,-0.910,-0.700
4915,-0.845,-0.675
4916,-0.820,-0.655
4917,-0.830,-0.670
4918,-0.855,-0.670
4919,-0.860,-0.690
4920,-0.865,-0.680
4921,-0.870,-0.685
4922,-0.860,-0.685
4923,-0.855,-0.680
4924,-0.830,-0.645
4925,-0.810,-0.645
4926,-0.805,-0.650
4927,-0.805,-0.650
4928,-0.800,-0.640
4929,-0.805,-0.660
4930,-0.795,-0.705
4931,-0.800,-0.705
4932,-0.810,-0.735
4933,-0.825,-0.720
4934,-0.845,-0.755
4935,-0.845,-0.750
4936,-0.825,-0.730
4937,-0.830,-0.750
4938,-0.840,-0.755
4939,-0.845,-0.760
4940,-0.865,-0.785
4941,-0.885,-0.810
4942,-0.890,-0.840
4943,-0.885,-0.840
4944,-0.895,-0.875
4945,-0.920,-0.875
4946,-0.925,-0.895
4947,-0.935,-0.900
4948,-0.955,-0.905
4949,-0.950,-0.920
4950,-0.945,-0.930
4951,-0.960,-0.925
4952,-0.960,-0.950
4953,-0.975,-0.955
4954,-0.985,-0.975
4955,-1.000,-1.010
4956,-1.030,-1.005
4957,-1.045,-1.035
4958,-1.045,-1.060
4959,-1.050,-1.050
4960,-1.080,-1.055
4961,-1.055,-1.060
4962,-1.060,-1.065
4963,-1.055,-1.065
4964,-1.045,-1.045
4965,-1.075,-1.055
4966,-1.060,-1.040
4967,-1.070,-1.075
4968,-1.080,-1.105
4969,-1.090,-1.105
4970,-1.080,-1.115
4971,-1.085,-1.120
4972,-1.080,-1.100
4973,-1.080,-1.070
4974,-1.065,-1.060
4975,-1.060,-1.050
4976,-1.035,-1.080
4977,-1.035,-1.090
4978,-1.015,-1.100
4979,-1.025,-1.085
4980,-1.025,-1.080
4981,-0.995,-1.050
4982,-0.970,-1.070
4983,-0.955,-1.055
4984,-0.950,-1.050
4985,-0.945,-1.020
4986,-0.905,-0.980
4987,-0.905,-0.940
4988,-0.870,-0.910
4989,-0.855,-0.870
4990,-0.835,-0.845
4991,-0.815,-0.865
4992,-0.810,-0.890
4993,-0.830,-0.925
4994,-0.815,-0.950
4995,-0.825,-0.945
4996,-0.805,-0.900
4997,-0.805,-0.870
4998,-0.795,-0.850
4999,-0.785,-0.820
5000,-0.775,-0.810
5001,-0.770,-0.810
5002,-0.760,-0.810
5003,-0.765,-0.815
5004,-0.750,-0.810
5005,-0.765,-0.795
5006,-0.760,-0.775
5007,-0.760,-0.760
5008,-0.735,-0.725
5009,-0.735,-0.705
5010,-0.735,-0.690
5011,-0.730,-0.695
5012,-0.725,-0.705
5013,-0.730,-0.705
5014,-0.725,-0.715
5015,-0.735,-0.720
5016,-0.750,-0.720
5017,-0.750,-0.715
5018,-0.780,-0.720
5019,-0.760,-0.700
5020,-0.750,-0.670
5021,-0.760,-0.660
5022,-0.740,-0.660
5023,-0.730,-0.645
5024,-0.705,-0.675
5025,-0.715,-0.685
5026,-0.720,-0.685
5027,-0.750,-0.700
5028,-0.770,-0.690
5029,-0.785,-0.705
5030,-0.785,-0.730
5031,-0.780,-0.725
5032,-0.775,-0.705
5033,-0.760,-0.685
5034,-0.745,-0.675
5035,-0.735,-0.655
5036,-0.730,-0.660
5037,-0.740,-0.675
5038,-0.745,-0.675
5039,-0.775,-0.695
5040,-0.790,-0.695
5041,-0.805,-0.700
5042,-0.820,-0.715
5043,-0.805,-0.740
5044,-0.785,-0.740
5045,-0.775,-0.755
5046,-0.765,-0.745
5047,-0.800,-0.710
5048,-0.795,-0.700
5049,-0.795,-0.720
5050,-0.795,-0.715
5051,-0.800,-0.730
5052,-0.795,-0.735
5053,-0.805,-0.745
5054,-0.805,-0.735
5055,-0.795,-0.735
5056,-0.800,-0.725
5057,-0.800,-0.715
5058,-0.785,-0.705
5059,-0.770,-0.695
5060,-0.760,-0.725
5061,-0.765,-0.715
5062,-0.765,-0.725
5063,-0.770,-0.725
5064,-0.790,-0.720
5065,-0.795,-0.720
5066,-0.790,-0.725
5067,-0.780,-0.720
5068,-0.750,-0.700
5069,-0.755,-0.695
5070,-0.735,-0.680
5071,-0.745,-0.680
5072,-0.730,-0.695
5073,-0.730,-0.695
5074,-0.735,-0.705
5075,-0.755,-0.695
5076,-0.745,-0.720
5077,-0.770,-0.725
5078,-0.780,-0.730
5079,-0.750,-0.720
5080,-0.750,-0.695
5081,-0.735,-0.670
5082,-0.735,-0.670
5083,-0.735,-0.690
5084,-0.725,-0.735
5085,-0.725,-0.740
5086,-0.735,-0.730
5087,-0.730,-0.740
5088,-0.720,-0.745
5089,-0.730,-0.755
5090,-0.715,-0.750
5091,-0.680,-0.765
5092,-0.675,-0.760
5093,-0.655,-0.755
5094,-0.630,-0.755
5095,-0.630,-0.740
5096,-0.625,-0.760
5097,-0.640,-0.770
5098,-0.615,-0.770
5099,-0.620,-0.755
5100,-0.605,-0.740
5101,-0.630,-0.720
5102,-0.610,-0.680
5103,-0.620,-0.675
5104,-0.625,-0.675
5105,-0.625,-0.675
5106,-0.630,-0.680
5107,-0.640,-0.695
5108,-0.630,-0.695
5109,-0.615,-0.660
5110,-0.580,-0.640
5111,-0.570,-0.620
5112,-0.570,-0.610
5113,-0.610,-0.620
5114,-0.640,-0.635
5115,-0.675,-0.620
5116,-0.695,-0.615
5117,-0.700,-0.620
5118,-0.710,-0.625
5119,-0.710,-0.660
5120,-0.705,-0.680
5121,-0.720,-0.690
5122,-0.735,-0.705
5123,-0.765,-0.700
5124,-0.805,-0.690
5125,-0.825,-0.695
5126,-0.840,-0.675
5127,-0.860,-0.705
5128,-0.865,-0.700
5129,-0.845,-0.660
5130,-0.830,-0.625
5131,-0.800,-0.640
5132,-0.785,-0.710
5133,-0.795,-0.780
5134,-0.795,-0.800
5135,-0.810,-0.825
5136,-0.840,-0.790
5137,-0.870,-0.745
5138,-0.875,-0.720
5139,-0.905,-0.720
5140,-0.910,-0.705
5141,-0.905,-0.705
5142,-0.880,-0.670
5143,-0.840,-0.615
5144,-0.825,-0.595
5145,-0.795,-0.630
5146,-0.790,-0.685
5147,-0.805,-0.735
5148,-0.820,-0.800
5149,-0.835,-0.860
5150,-0.835,-0.905
5151,-0.840,-0.900
5152,-0.820,-0.850
5153,-0.810,-0.815
5154,-0.815,-0.790
5155,-0.845,-0.820
5156,-0.885,-0.885
5157,-0.905,-0.985
5158,-0.900,-1.110
5159,-0.830,-1.275
5160,-0.710,-1.455
5161,-0.590,-1.635
5162,-0.450,-1.770
5163,-0.320,-1.835
5164,-0.270,-1.785
5165,-0.270,-1.665
5166,-0.290,-1.455
5167,-0.290,-1.255
5168,-0.235,-1.165
5169,-0.080,-1.110
5170,0.100,-1.010
5171,0.320,-0.805
5172,0.455,-0.505
5173,0.460,-0.150
5174,0.295,0.120
5175,-0.020,0.280
5176,-0.430,0.245
5177,-0.835,0.080
5178,-1.170,-0.155
5179,-1.365,-0.335
5180,-1.490,-0.485
5181,-1.570,-0.550
5182,-1.630,-0.625
5183,-1.705,-0.690
5184,-1.775,-0.735
5185,-1.830,-0.785
5186,-1.880,-0.845
5187,-1.900,-0.895
5188,-1.895,-0.910
5189,-1.860,-0.885
5190,-1.830,-0.865
5191,-1.805,-0.835
5192,-1.790,-0.840
5193,-1.775,-0.860
5194,-1.740,-0.895
5195,-1.690,-0.925
5196,-1.615,-0.955
5197,-1.540,-0.945
5198,-1.435,-0.905
5199,-1.340,-0.800
5200,-1.175,-0.665
5201,-1.050,-0.570
5202,-0.960,-0.565
5203,-0.925,-0.640
5204,-0.910,-0.720
5205,-0.900,-0.770
5206,-0.895,-0.780
5207,-0.885,-0.750
5208,-0.875,-0.715
5209,-0.870,-0.700
5210,-0.855,-0.695
5211,-0.880,-0.700
5212,-0.880,-0.685
5213,-0.890,-0.680
5214,-0.870,-0.660
5215,-0.870,-0.635
5216,-0.865,-0.645
5217,-0.860,-0.665
5218,-0.870,-0.705
5219,-0.915,-0.755
5220,-0.920,-0.745
5221,-0.910,-0.730
5222,-0.920,-0.715
5223,-0.890,-0.685
5224,-0.880,-0.690
5225,-0.880,-0.710
5226,-0.870,-0.725
5227,-0.875,-0.745
5228,-0.880,-0.760
5229,-0.890,-0.770
5230,-0.915,-0.780
5231,-0.950,-0.765
5232,-0.975,-0.780
5233,-0.990,-0.820
5234,-0.995,-0.890
5235,-1.005,-0.930
5236,-1.000,-0.945
5237,-1.015,-0.940
5238,-1.030,-0.910
5239,-1.030,-0.900
5240,-1.015,-0.885
5241,-1.010,-0.905
5242,-1.010,-0.925
5243,-1.025,-0.965
5244,-1.060,-0.970
5245,-1.075,-0.990
5246,-1.095,-1.000
5247,-1.110,-0.995
5248,-1.110,-0.995
5249,-1.105,-1.000
5250,-1.080,-1.030
5251,-1.065,-1.035
5252,-1.045,-1.065
5253,-1.065,-1.070
5254,-1.075,-1.040
5255,-1.105,-1.060
5256,-1.125,-1.040
5257,-1.160,-1.025
5258,-1.155,-1.000
5259,-1.150,-1.020
5260,-1.120,-1.075
5261,-1.110,-1.120
5262,-1.105,-1.145
5263,-1.105,-1.105
5264,-1.100,-1.065
5265,-1.095,-1.015
5266,-1.060,-1.015
5267,-1.050,-1.040
5268,-1.020,-1.060
5269,-1.015,-1.085
5270,-1.000,-1.085
5271,-1.025,-1.050
5272,-1.030,-1.005
5273,-1.035,-0.980
5274,-0.990,-0.950
5275,-0.950,-0.905
5276,-0.905,-0.885
5277,-0.875,-0.870
5278,-0.865,-0.895
5279,-0.870,-0.930
5280,-0.870,-0.955
5281,-0.870,-0.960
5282,-0.880,-0.935
5283,-0.895,-0.885
5284,-0.890,-0.825
5285,-0.885,-0.780
5286,-0.855,-0.740
5287,-0.845,-0.750
5288,-0.810,-0.770
5289,-0.795,-0.785
5290,-0.760,-0.785
5291,-0.765,-0.780
5292,-0.780,-0.780
5293,-0.775,-0.765
5294,-0.790,-0.765
5295,-0.790,-0.745
5296,-0.810,-0.745
5297,-0.795,-0.725
5298,-0.785,-0.715
5299,-0.755,-0.695
5300,-0.735,-0.680
5301,-0.745,-0.680
5302,-0.745,-0.715
5303,-0.775,-0.745
5304,-0.795,-0.750
5305,-0.805,-0.760
5306,-0.825,-0.755
5307,-0.820,-0.760
5308,-0.820,-0.750
5309,-0.810,-0.735
5310,-0.795,-0.715
5311,-0.790,-0.690
5312,-0.810,-0.695
5313,-0.785,-0.695
5314,-0.770,-0.715
5315,-0.760,-0.745
5316,-0.780,-0.790
5317,-0.815,-0.790
5318,-0.820,-0.770
5319,-0.840,-0.725
5320,-0.840,-0.685
5321,-0.860,-0.690
5322,-0.850,-0.665
5323,-0.845,-0.690
5324,-0.840,-0.695
5325,-0.840,-0.690
5326,-0.855,-0.675
5327,-0.860,-0.715
5328,-0.865,-0.725
5329,-0.870,-0.705
5330,-0.880,-0.695
5331,-0.880,-0.700
5332,-0.885,-0.740
5333,-0.865,-0.770
5334,-0.850,-0.785
5335,-0.825,-0.780
5336,-0.825,-0.800
5337,-0.810,-0.820
5338,-0.820,-0.810
5339,-0.830,-0.815
5340,-0.840,-0.795
5341,-0.855,-0.795
5342,-0.880,-0.780
5343,-0.865,-0.780
5344,-0.865,-0.740
5345,-0.870,-0.705
5346,-0.825,-0.700
5347,-0.815,-0.705
5348,-0.805,-0.735
5349,-0.810,-0.745
5350,-0.835,-0.750
5351,-0.850,-0.750
5352,-0.865,-0.720
5353,-0.870,-0.710
5354,-0.865,-0.720
5355,-0.845,-0.725
5356,-0.840,-0.745
5357,-0.830,-0.770
5358,-0.820,-0.755
5359,-0.805,-0.735
5360,-0.780,-0.735
5361,-0.775,-0.725
5362,-0.770,-0.740
5363,-0.790,-0.760
5364,-0.820,-0.765
5365,-0.830,-0.750
5366,-0.860,-0.740
5367,-0.860,-0.720
5368,-0.845,-0.690
5369,-0.840,-0.680
5370,-0.810,-0.690
5371,-0.805,-0.725
5372,-0.800,-0.770
5373,-0.790,-0.785
5374,-0.800,-0.795
5375,-0.795,-0.770
5376,-0.790,-0.770
5377,-0.775,-0.775
5378,-0.775,-0.770
5379,-0.755,-0.785
5380,-0.750,-0.775
5381,-0.725,-0.775
5382,-0.700,-0.800
5383,-0.665,-0.805
5384,-0.670,-0.795
5385,-0.675,-0.790
5386,-0.665,-0.785
5387,-0.670,-0.750
5388,-0.660,-0.730
5389,-0.655,-0.720
5390,-0.645,-0.700
5391,-0.635,-0.675
5392,-0.620,-0.685
5393,-0.630,-0.695
5394,-0.640,-0.685
5395,-0.655,-0.700
5396,-0.695,-0.715
5397,-0.735,-0.710
5398,-0.735,-0.680
5399,-0.740,-0.660
5400,-0.720,-0.645
5401,-0.700,-0.610
5402,-0.690,-0.565
5403,-0.680,-0.520
5404,-0.685,-0.500
5405,-0.675,-0.530
5406,-0.690,-0.615
5407,-0.705,-0.695
5408,-0.715,-0.745
5409,-0.750,-0.745
5410,-0.775,-0.730
5411,-0.790,-0.705
5412,-0.795,-0.680
5413,-0.820,-0.700
5414,-0.840,-0.705
5415,-0.880,-0.705
5416,-0.885,-0.705
5417,-0.900,-0.730
5418,-0.890,-0.750
5419,-0.905,-0.740
5420,-0.900,-0.715
5421,-0.905,-0.705
5422,-0.895,-0.715
5423,-0.880,-0.750
5424,-0.895,-0.790
5425,-0.890,-0.805
5426,-0.895,-0.805
5427,-0.900,-0.795
5428,-0.900,-0.780
5429,-0.905,-0.785
5430,-0.915,-0.785
5431,-0.930,-0.730
5432,-0.930,-0.695
5433,-0.935,-0.710
5434,-0.925,-0.750
5435,-0.915,-0.775
5436,-0.905,-0.800
5437,-0.905,-0.805
5438,-0.925,-0.795
5439,-0.930,-0.790
5440,-0.935,-0.780
5441,-0.920,-0.780
5442,-0.900,-0.755
5443,-0.865,-0.750
5444,-0.870,-0.780
5445,-0.900,-0.790
5446,-0.925,-0.815
5447,-0.975,-0.840
5448,-1.005,-0.885
5449,-1.015,-0.965
5450,-0.990,-1.050
5451,-0.955,-1.145
5452,-0.865,-1.250
5453,-0.760,-1.390
5454,-0.625,-1.555
5455,-0.500,-1.675
5456,-0.410,-1.790
5457,-0.365,-1.830
5458,-0.370,-1.795
5459,-0.405,-1.665
5460,-0.415,-1.465
5461,-0.335,-1.245
5462,-0.195,-1.050
5463,0.000,-0.890
5464,0.215,-0.715
5465,0.375,-0.470
5466,0.420,-0.210
5467,0.305,0.030
5468,0.005,0.190
5469,-0.435,0.240
5470,-0.895,0.125
5471,-1.290,-0.060
5472,-1.550,-0.300
5473,-1.690,-0.515
5474,-1.795,-0.650
5475,-1.855,-0.735
5476,-1.890,-0.785
5477,-1.930,-0.815
5478,-1.975,-0.865
5479,-1.995,-0.895
5480,-1.990,-0.910
5481,-1.995,-0.955
5482,-1.980,-0.940
5483,-1.965,-0.940
5484,-1.955,-0.940
5485,-1.970,-0.930
5486,-1.970,-0.950
5487,-1.955,-0.955
5488,-1.905,-0.955
5489,-1.825,-0.945
5490,-1.690,-0.935
5491,-1.545,-0.880
5492,-1.380,-0.835
5493,-1.270,-0.790
5494,-1.160,-0.735
5495,-1.090,-0.710
5496,-1.055,-0.690
5497,-1.035,-0.710
5498,-1.025,-0.715
5499,-1.025,-0.745
5500,-1.025,-0.730
5501,-1.005,-0.705
5502,-0.995,-0.685
5503,-0.980,-0.660
5504,-0.965,-0.650
5505,-0.940,-0.655
5506,-0.950,-0.660
5507,-0.975,-0.670
5508,-0.975,-0.685
5509,-0.980,-0.680
5510,-0.990,-0.700
5511,-1.010,-0.700
5512,-1.015,-0.710
5513,-0.980,-0.710
5514,-0.970,-0.705
5515,-0.965,-0.705
5516,-0.965,-0.710
5517,-0.960,-0.725
5518,-0.965,-0.735
5519,-0.995,-0.785
5520,-1.015,-0.800
5521,-1.030,-0.805
5522,-1.055,-0.810
5523,-1.065,-0.830
5524,-1.050,-0.830
5525,-1.065,-0.830
5526,-1.070,-0.830
5527,-1.050,-0.855
5528,-1.060,-0.855
5529,-1.065,-0.865
5530,-1.080,-0.905
5531,-1.095,-0.920
5532,-1.110,-0.940
5533,-1.130,-0.960
5534,-1.145,-0.975
5535,-1.160,-0.980
5536,-1.160,-0.975
5537,-1.185,-0.980
5538,-1.180,-0.980
5539,-1.185,-0.975
5540,-1.190,-0.975
5541,-1.170,-0.995
5542,-1.170,-1.005
5543,-1.190,-1.030
5544,-1.205,-1.025
5545,-1.220,-1.025
5546,-1.235,-1.050
5547,-1.235,-1.060
5548,-1.250,-1.055
5549,-1.250,-1.055
5550,-1.225,-1.055
5551,-1.215,-1.040
5552,-1.195,-1.035
5553,-1.195,-1.045
5554,-1.195,-1.040
5555,-1.195,-1.060
5556,-1.190,-1.070
5557,-1.190,-1.065
5558,-1.175,-1.040
5559,-1.180,-1.035
5560,-1.170,-1.020
5561,-1.160,-1.020
5562,-1.125,-1.000
5563,-1.110,-0.995
5564,-1.105,-0.995
5565,-1.070,-0.980
5566,-1.065,-0.975
5567,-1.065,-0.965
5568,-1.050,-0.950
5569,-1.040,-0.945
5570,-1.010,-0.930
5571,-0.985,-0.910
5572,-0.985,-0.905
5573,-0.965,-0.875
5574,-0.955,-0.850
5575,-0.945,-0.835
5576,-0.935,-0.835
5577,-0.935,-0.810
5578,-0.915,-0.820
5579,-0.905,-0.815
5580,-0.920,-0.820
5581,-0.915,-0.775
5582,-0.910,-0.785
5583,-0.925,-0.775
5584,-0.915,-0.755
5585,-0.900,-0.750
5586,-0.895,-0.725
5587,-0.890,-0.720
5588,-0.860,-0.740
5589,-0.855,-0.725
5590,-0.875,-0.735
5591,-0.885,-0.730
5592,-0.905,-0.725
5593,-0.920,-0.715
5594,-0.925,-0.715
5595,-0.925,-0.725
5596,-0.915,-0.715
5597,-0.900,-0.725
5598,-0.895,-0.705
5599,-0.885,-0.710
5600,-0.915,-0.705
5601,-0.915,-0.730
5602,-0.915,-0.715
5603,-0.910,-0.730
5604,-0.905,-0.740
5605,-0.920,-0.710
5606,-0.930,-0.720
5607,-0.955,-0.700
5608,-0.945,-0.680
5609,-0.935,-0.670
5610,-0.930,-0.675
5611,-0.920,-0.655
5612,-0.925,-0.675
5613,-0.920,-0.690
5614,-0.910,-0.705
5615,-0.910,-0.725
5616,-0.940,-0.715
5617,-0.945,-0.725
5618,-0.940,-0.715
5619,-0.950,-0.700
5620,-0.945,-0.680
5621,-0.935,-0.710
5622,-0.940,-0.685
5623,-0.935,-0.695
5624,-0.910,-0.680
5625,-0.920,-0.690
5626,-0.915,-0.690
5627,-0.935,-0.690
5628,-0.930,-0.700
5629,-0.960,-0.730
5630,-0.965,-0.730
5631,-0.970,-0.725
5632,-0.975,-0.715
5633,-0.960,-0.725
5634,-0.930,-0.695
5635,-0.930,-0.695
5636,-0.935,-0.695
5637,-0.915,-0.710
5638,-0.935,-0.700
5639,-0.915,-0.740
5640,-0.940,-0.770
5641,-0.920,-0.755
5642,-0.920,-0.760
5643,-0.925,-0.740
5644,-0.935,-0.715
5645,-0.925,-0.690
5646,-0.910,-0.670
5647,-0.905,-0.665
5648,-0.880,-0.680
5649,-0.845,-0.705
5650,-0.830,-0.705
5651,-0.825,-0.720
5652,-0.835,-0.730
5653,-0.850,-0.750
5654,-0.880,-0.755
5655,-0.905,-0.750
5656,-0.900,-0.740
5657,-0.905,-0.740
5658,-0.885,-0.725
5659,-0.875,-0.700
5660,-0.875,-0.705
5661,-0.880,-0.690
5662,-0.890,-0.690
5663,-0.915,-0.680
5664,-0.950,-0.695
5665,-0.970,-0.685
5666,-0.975,-0.690
5667,-0.980,-0.680
5668,-0.965,-0.655
5669,-0.960,-0.655
5670,-0.950,-0.655
5671,-0.945,-0.630
5672,-0.930,-0.630
5673,-0.930,-0.630
5674,-0.940,-0.635
5675,-0.945,-0.625
5676,-0.950,-0.645
5677,-0.940,-0.650
5678,-0.950,-0.690
5679,-0.940,-0.665
5680,-0.940,-0.665
5681,-0.915,-0.665
5682,-0.895,-0.655
5683,-0.885,-0.640
5684,-0.855,-0.640
5685,-0.820,-0.640
5686,-0.785,-0.625
5687,-0.760,-0.620
5688,-0.760,-0.615
5689,-0.750,-0.580
5690,-0.755,-0.570
5691,-0.775,-0.550
5692,-0.795,-0.555
5693,-0.800,-0.565
5694,-0.820,-0.575
5695,-0.830,-0.605
5696,-0.825,-0.595
5697,-0.815,-0.590
5698,-0.805,-0.575
5699,-0.800,-0.560
5700,-0.780,-0.535
5701,-0.785,-0.500
5702,-0.780,-0.485
5703,-0.800,-0.470
5704,-0.805,-0.455
5705,-0.835,-0.475
5706,-0.840,-0.505
5707,-0.870,-0.535
5708,-0.910,-0.570
5709,-0.935,-0.605
5710,-0.960,-0.580
5711,-0.955,-0.615
5712,-0.970,-0.605
5713,-0.980,-0.610
5714,-1.000,-0.615
5715,-1.010,-0.605
5716,-1.015,-0.625
5717,-1.020,-0.615
5718,-1.015,-0.630
5719,-1.000,-0.625
5720,-1.005,-0.630
5721,-1.000,-0.635
5722,-1.010,-0.630
5723,-1.000,-0.630
5724,-1.020,-0.645
5725,-1.030,-0.645
5726,-1.040,-0.645
5727,-1.035,-0.640
5728,-1.035,-0.640
5729,-1.020,-0.635
5730,-1.020,-0.625
5731,-1.015,-0.615
5732,-1.015,-0.620
5733,-1.025,-0.610
5734,-1.055,-0.615
5735,-1.040,-0.635
5736,-1.050,-0.650
5737,-1.040,-0.655
5738,-1.040,-0.655
5739,-1.040,-0.640
5740,-1.035,-0.620
5741,-1.020,-0.620
5742,-1.015,-0.600
5743,-1.015,-0.600
5744,-1.020,-0.615
5745,-1.025,-0.660
5746,-1.050,-0.715
5747,-1.070,-0.785
5748,-1.075,-0.840
5749,-1.075,-0.915
5750,-1.015,-1.025
5751,-0.925,-1.135
5752,-0.795,-1.240
5753,-0.650,-1.355
5754,-0.495,-1.470
5755,-0.370,-1.530
5756,-0.280,-1.530
5757,-0.295,-1.450
5758,-0.320,-1.330
5759,-0.325,-1.200
5760,-0.295,-1.070
5761,-0.185,-0.920
5762,-0.030,-0.720
5763,0.105,-0.440
5764,0.155,-0.130
5765,0.055,0.150
5766,-0.250,0.320
5767,-0.685,0.320
5768,-1.155,0.135
5769,-1.560,-0.135
5770,-1.860,-0.400
5771,-2.020,-0.590
5772,-2.100,-0.735
5773,-2.135,-0.780
5774,-2.145,-0.810
5775,-2.180,-0.835
5776,-2.190,-0.845
5777,-2.215,-0.870
5778,-2.215,-0.890
5779,-2.195,-0.895
5780,-2.190,-0.880
5781,-2.185,-0.870
5782,-2.180,-0.865
5783,-2.170,-0.870
5784,-2.145,-0.870
5785,-2.125,-0.895
5786,-2.050,-0.895
5787,-1.970,-0.895
5788,-1.860,-0.875
5789,-1.710,-0.810
5790,-1.560,-0.745
5791,-1.430,-0.670
5792,-1.315,-0.610
5793,-1.250,-0.590
5794,-1.195,-0.565
5795,-1.175,-0.570
5796,-1.180,-0.565
5797,-1.170,-0.570
5798,-1.175,-0.575
5799,-1.175,-0.545
5800,-1.150,-0.535
5801,-1.135,-0.540
5802,-1.110,-0.540
5803,-1.090,-0.535
5804,-1.080,-0.540
5805,-1.085,-0.555
5806,-1.090,-0.560
5807,-1.110,-0.580
5808,-1.120,-0.590
5809,-1.130,-0.635
5810,-1.130,-0.635
5811,-1.135,-0.610
5812,-1.140,-0.620
5813,-1.135,-0.605
5814,-1.125,-0.600
5815,-1.115,-0.600
5816,-1.110,-0.615
5817,-1.125,-0.630
5818,-1.130,-0.645
5819,-1.155,-0.655
5820,-1.160,-0.705
5821,-1.180,-0.725
5822,-1.205,-0.750
5823,-1.210,-0.740
5824,-1.240,-0.730
5825,-1.240,-0.740
5826,-1.210,-0.745
5827,-1.215,-0.775
5828,-1.210,-0.785
5829,-1.215,-0.790
5830,-1.230,-0.820
5831,-1.260,-0.845
5832,-1.280,-0.860
5833,-1.295,-0.870
5834,-1.325,-0.860
5835,-1.335,-0.865
5836,-1.330,-0.850
5837,-1.340,-0.860
5838,-1.345,-0.895
5839,-1.350,-0.880
5840,-1.315,-0.900
5841,-1.325,-0.905
5842,-1.335,-0.925
5843,-1.330,-0.915
5844,-1.330,-0.930
5845,-1.325,-0.925
5846,-1.340,-0.945
5847,-1.340,-0.935
5848,-1.345,-0.930
5849,-1.345,-0.910
5850,-1.345,-0.920
5851,-1.340,-0.930
5852,-1.310,-0.910
5853,-1.295,-0.920
5854,-1.290,-0.930
5855,-1.270,-0.930
5856,-1.285,-0.935
5857,-1.275,-0.935
5858,-1.290,-0.940
5859,-1.265,-0.925
5860,-1.245,-0.905
5861,-1.205,-0.900
5862,-1.175,-0.885
5863,-1.155,-0.845
5864,-1.135,-0.830
5865,-1.120,-0.830
5866,-1.110,-0.810
5867,-1.105,-0.780
5868,-1.095,-0.775
5869,-1.090,-0.760
5870,-1.095,-0.755
5871,-1.085,-0.730
5872,-1.090,-0.730
5873,-1.065,-0.715
5874,-1.050,-0.695
5875,-1.015,-0.660
5876,-1.015,-0.650
5877,-1.010,-0.625
5878,-1.010,-0.625
5879,-1.020,-0.630
5880,-1.020,-0.635
5881,-1.035,-0.620
5882,-1.020,-0.635
5883,-1.020,-0.630
5884,-1.010,-0.620
5885,-1.015,-0.620
5886,-1.010,-0.595
5887,-1.005,-0.595
5888,-0.990,-0.585
5889,-0.985,-0.590
5890,-1.000,-0.580
5891,-1.000,-0.585
5892,-0.990,-0.580
5893,-1.005,-0.600
5894,-1.005,-0.595
5895,-1.020,-0.570
5896,-1.025,-0.570
5897,-1.025,-0.570
5898,-1.015,-0.540
5899,-1.015,-0.550
5900,-1.000,-0.545
5901,-1.000,-0.540
5902,-1.015,-0.560
5903,-1.030,-0.555
5904,-1.050,-0.585
5905,-1.075,-0.590
5906,-1.060,-0.590
5907,-1.055,-0.600
5908,-1.040,-0.595
5909,-1.020,-0.575
5910,-1.020,-0.575
5911,-1.010,-0.565
5912,-1.025,-0.565
5913,-1.035,-0.545
5914,-1.045,-0.560
5915,-1.045,-0.580
5916,-1.060,-0.590
5917,-1.045,-0.610
5918,-1.040,-0.625
5919,-1.045,-0.640
5920,-1.040,-0.635
5921,-1.030,-0.615
5922,-1.030,-0.590
5923,-1.035,-0.595
5924,-1.025,-0.565
5925,-1.040,-0.575
5926,-1.030,-0.590
5927,-1.045,-0.580
5928,-1.050,-0.605
5929,-1.060,-0.600
5930,-1.080,-0.605
5931,-1.080,-0.605
5932,-1.065,-0.605
5933,-1.045,-0.610
5934,-1.040,-0.595
5935,-1.025,-0.595
5936,-1.015,-0.595
5937,-1.030,-0.600
5938,-1.035,-0.620
5939,-1.055,-0.630
5940,-1.060,-0.630
5941,-1.050,-0.625
5942,-1.045,-0.610
5943,-1.050,-0.590
5944,-1.060,-0.605
5945,-1.060,-0.590
5946,-1.055,-0.595
5947,-1.045,-0.585
5948,-1.025,-0.580
5949,-1.025,-0.580
5950,-1.025,-0.595
5951,-1.015,-0.605
5952,-1.010,-0.600
5953,-1.030,-0.595
5954,-1.045,-0.595
5955,-1.055,-0.585
5956,-1.060,-0.595
5957,-1.065,-0.560
5958,-1.055,-0.565
5959,-1.020,-0.550
5960,-1.025,-0.560
5961,-1.025,-0.550
5962,-1.015,-0.550
5963,-1.030,-0.570
5964,-1.035,-0.580
5965,-1.050,-0.610
5966,-1.045,-0.620
5967,-1.050,-0.610
5968,-1.050,-0.605
5969,-1.040,-0.605
5970,-1.015,-0.590
5971,-1.005,-0.575
5972,-0.975,-0.575
5973,-0.980,-0.595
5974,-0.980,-0.610
5975,-0.970,-0.645
5976,-0.980,-0.675
5977,-0.980,-0.700
5978,-0.975,-0.705
5979,-0.970,-0.720
5980,-0.970,-0.690
5981,-0.960,-0.670
5982,-0.915,-0.625
5983,-0.885,-0.580
5984,-0.860,-0.540
5985,-0.830,-0.540
5986,-0.825,-0.520
5987,-0.830,-0.545
5988,-0.875,-0.550
5989,-0.910,-0.570
5990,-0.940,-0.595
5991,-0.975,-0.585
5992,-0.995,-0.550
5993,-0.990,-0.520
5994,-0.940,-0.505
5995,-0.910,-0.500
5996,-0.880,-0.485
5997,-0.850,-0.505
5998,-0.835,-0.490
5999,-0.830,-0.505
6000,-0.865,-0.505
6001,-0.925,-0.525
6002,-0.955,-0.550
6003,-1.010,-0.545
6004,-1.040,-0.530
6005,-1.050,-0.535
6006,-1.050,-0.525
6007,-1.040,-0.530
6008,-1.035,-0.540
6009,-1.035,-0.555
6010,-1.045,-0.560
6011,-1.055,-0.560
6012,-1.075,-0.565
6013,-1.090,-0.575
6014,-1.095,-0.560
6015,-1.100,-0.570
6016,-1.115,-0.580
6017,-1.105,-0.580
6018,-1.110,-0.575
6019,-1.110,-0.580
6020,-1.105,-0.585
6021,-1.105,-0.600
6022,-1.105,-0.595
6023,-1.125,-0.615
6024,-1.110,-0.605
6025,-1.125,-0.630
6026,-1.105,-0.625
6027,-1.110,-0.635
6028,-1.110,-0.600
6029,-1.115,-0.610
6030,-1.110,-0.575
6031,-1.115,-0.585
6032,-1.090,-0.590
6033,-1.085,-0.600
6034,-1.095,-0.615
6035,-1.100,-0.635
6036,-1.100,-0.635
6037,-1.115,-0.640
6038,-1.120,-0.655
6039,-1.120,-0.655
6040,-1.135,-0.665
6041,-1.130,-0.685
6042,-1.125,-0.730
6043,-1.130,-0.770
6044,-1.110,-0.870
6045,-1.100,-0.980
6046,-1.040,-1.085
6047,-0.945,-1.220
6048,-0.810,-1.330
6049,-0.670,-1.435
6050,-0.515,-1.515
6051,-0.430,-1.505
6052,-0.415,-1.450
6053,-0.395,-1.305
6054,-0.405,-1.165
6055,-0.340,-1.020
6056,-0.210,-0.855
6057,-0.080,-0.670
6058,0.045,-0.400
6059,0.115,-0.095
6060,0.040,0.220
6061,-0.190,0.410
6062,-0.580,0.425
6063,-1.050,0.295
6064,-1.480,0.055
6065,-1.720,-0.200
6066,-1.880,-0.410
6067,-1.925,-0.560
6068,-1.930,-0.635
6069,-1.950,-0.680
6070,-1.995,-0.720
6071,-2.040,-0.735
6072,-2.070,-0.735
6073,-2.080,-0.760
6074,-2.120,-0.775
6075,-2.200,-0.750
6076,-2.290,-0.750
6077,-2.310,-0.750
6078,-2.275,-0.770
6079,-2.195,-0.815
6080,-2.075,-0.880
6081,-1.980,-0.930
6082,-1.860,-0.925
6083,-1.730,-0.905
6084,-1.635,-0.870
6085,-1.555,-0.800
6086,-1.510,-0.725
6087,-1.430,-0.650
6088,-1.315,-0.585
6089,-1.240,-0.570
6090,-1.180,-0.520
6091,-1.170,-0.570
6092,-1.165,-0.590
6093,-1.195,-0.605
6094,-1.235,-0.630
6095,-1.245,-0.650
6096,-1.240,-0.645
6097,-1.225,-0.635
6098,-1.195,-0.615
6099,-1.190,-0.565
6100,-1.205,-0.540
6101,-1.270,-0.535
6102,-1.290,-0.525
6103,-1.270,-0.545
6104,-1.200,-0.590
6105,-1.160,-0.620
6106,-1.135,-0.655
6107,-1.145,-0.675
6108,-1.145,-0.680
6109,-1.170,-0.670
6110,-1.185,-0.650
6111,-1.190,-0.655
6112,-1.245,-0.680
6113,-1.265,-0.680
6114,-1.255,-0.720
6115,-1.215,-0.730
6116,-1.175,-0.750
6117,-1.165,-0.765
6118,-1.180,-0.770
6119,-1.260,-0.760
6120,-1.345,-0.770
6121,-1.405,-0.795
6122,-1.405,-0.780
6123,-1.390,-0.830
6124,-1.365,-0.845
6125,-1.335,-0.870
6126,-1.305,-0.890
6127,-1.290,-0.900
6128,-1.260,-0.910
6129,-1.265,-0.925
6130,-1.315,-0.935
6131,-1.380,-0.940
6132,-1.455,-0.950
6133,-1.500,-0.945
6134,-1.460,-0.970
6135,-1.425,-0.960
6136,-1.380,-0.970
6137,-1.370,-0.990
6138,-1.390,-0.970
6139,-1.465,-0.970
6140,-1.540,-0.960
6141,-1.590,-0.975
6142,-1.570,-1.010
6143,-1.500,-1.010
6144,-1.400,-1.025
6145,-1.340,-1.025
6146,-1.330,-1.010
6147,-1.375,-0.995
6148,-1.420,-0.980
6149,-1.420,-0.965
6150,-1.390,-0.980
6151,-1.330,-0.975
6152,-1.250,-0.980
6153,-1.190,-0.955
6154,-1.200,-0.940
6155,-1.230,-0.935
6156,-1.320,-0.925
6157,-1.370,-0.915
6158,-1.355,-0.905
6159,-1.330,-0.880
6160,-1.265,-0.880
6161,-1.215,-0.845
6162,-1.200,-0.835
6163,-1.200,-0.805
6164,-1.195,-0.785
6165,-1.155,-0.800
6166,-1.155,-0.770
6167,-1.165,-0.745
6168,-1.195,-0.745
6169,-1.250,-0.720
6170,-1.270,-0.770
6171,-1.305,-0.780
6172,-1.270,-0.800
6173,-1.225,-0.785
6174,-1.140,-0.760
6175,-1.080,-0.750
6176,-0.990,-0.690
6177,-0.935,-0.645
6178,-0.910,-0.605
6179,-0.910,-0.595
6180,-0.980,-0.605
6181,-1.095,-0.625
6182,-1.200,-0.650
6183,-1.220,-0.670
6184,-1.190,-0.665
6185,-1.120,-0.660
6186,-1.040,-0.640
6187,-0.995,-0.615
6188,-0.960,-0.625
6189,-0.995,-0.610
6190,-1.065,-0.625
6191,-1.140,-0.645
6192,-1.195,-0.655
6193,-1.210,-0.645
6194,-1.170,-0.670
6195,-1.105,-0.670
6196,-1.050,-0.660
6197,-1.025,-0.640
6198,-1.010,-0.635
6199,-1.035,-0.620
6200,-1.055,-0.640
6201,-1.100,-0.645
6202,-1.170,-0.645
6203,-1.225,-0.650
6204,-1.275,-0.640
6205,-1.240,-0.610
6206,-1.190,-0.600
6207,-1.150,-0.600
6208,-1.145,-0.590
6209,-1.190,-0.570
6210,-1.205,-0.570
6211,-1.190,-0.590
6212,-1.135,-0.650
6213,-1.110,-0.700
6214,-1.125,-0.770
6215,-1.130,-0.750
6216,-1.150,-0.715
6217,-1.190,-0.675
6218,-1.205,-0.615
6219,-1.220,-0.580
6220,-1.190,-0.570
6221,-1.145,-0.565
6222,-1.135,-0.575
6223,-1.155,-0.565
6224,-1.185,-0.580
6225,-1.220,-0.585
6226,-1.230,-0.585
6227,-1.210,-0.590
6228,-1.195,-0.600
6229,-1.175,-0.630
6230,-1.170,-0.660
6231,-1.155,-0.680
6232,-1.150,-0.660
6233,-1.165,-0.640
6234,-1.175,-0.620
6235,-1.205,-0.610
6236,-1.195,-0.595
6237,-1.180,-0.625
6238,-1.155,-0.665
6239,-1.150,-0.685
6240,-1.150,-0.675
6241,-1.160,-0.635
6242,-1.170,-0.615
6243,-1.155,-0.580
6244,-1.145,-0.565
6245,-1.115,-0.575
6246,-1.095,-0.590
6247,-1.090,-0.595
6248,-1.110,-0.610
6249,-1.170,-0.625
6250,-1.190,-0.630
6251,-1.180,-0.645
6252,-1.170,-0.665
6253,-1.135,-0.665
6254,-1.105,-0.675
6255,-1.090,-0.655
6256,-1.085,-0.610
6257,-1.120,-0.575
6258,-1.130,-0.575
6259,-1.135,-0.585
6260,-1.125,-0.600
6261,-1.105,-0.640
6262,-1.060,-0.680
6263,-1.045,-0.680
6264,-1.060,-0.680
6265,-1.075,-0.680
6266,-1.120,-0.690
6267,-1.130,-0.725
6268,-1.110,-0.720
6269,-1.090,-0.725
6270,-1.075,-0.715
6271,-1.060,-0.700
6272,-1.045,-0.655
6273,-1.020,-0.625
6274,-0.990,-0.625
6275,-0.975,-0.590
6276,-1.005,-0.575
6277,-1.020,-0.575
6278,-1.060,-0.590
6279,-1.095,-0.600
6280,-1.085,-0.615
6281,-1.085,-0.635
6282,-1.090,-0.630
6283,-1.085,-0.615
6284,-1.075,-0.580
6285,-1.055,-0.555
6286,-1.040,-0.535
6287,-1.025,-0.515
6288,-1.025,-0.510
6289,-1.020,-0.525
6290,-1.015,-0.520
6291,-1.055,-0.530
6292,-1.075,-0.545
6293,-1.120,-0.545
6294,-1.145,-0.565
6295,-1.160,-0.575
6296,-1.175,-0.560
6297,-1.180,-0.555
6298,-1.175,-0.575
6299,-1.185,-0.575
6300,-1.215,-0.610
6301,-1.255,-0.650
6302,-1.285,-0.675
6303,-1.295,-0.680
6304,-1.290,-0.670
6305,-1.275,-0.645
6306,-1.250,-0.650
6307,-1.245,-0.630
6308,-1.265,-0.630
6309,-1.290,-0.625
6310,-1.325,-0.610
6311,-1.340,-0.635
6312,-1.340,-0.650
6313,-1.300,-0.660
6314,-1.280,-0.680
6315,-1.270,-0.660
6316,-1.260,-0.645
6317,-1.280,-0.635
6318,-1.310,-0.640
6319,-1.345,-0.625
6320,-1.345,-0.630
6321,-1.330,-0.625
6322,-1.315,-0.625
6323,-1.305,-0.660
6324,-1.295,-0.680
6325,-1.300,-0.690
6326,-1.310,-0.685
6327,-1.335,-0.680
6328,-1.315,-0.645
6329,-1.310,-0.650
6330,-1.310,-0.675
6331,-1.305,-0.665
6332,-1.285,-0.680
6333,-1.285,-0.705
6334,-1.310,-0.710
6335,-1.325,-0.755
6336,-1.350,-0.815
6337,-1.365,-0.900
6338,-1.295,-0.990
6339,-1.230,-1.090
6340,-1.115,-1.230
6341,-0.975,-1.385
6342,-0.810,-1.490
6343,-0.680,-1.545
6344,-0.580,-1.520
6345,-0.555,-1.405
6346,-0.550,-1.265
6347,-0.560,-1.120
6348,-0.535,-0.995
6349,-0.455,-0.890
6350,-0.310,-0.750
6351,-0.170,-0.480
6352,-0.090,-0.145
6353,-0.105,0.185
6354,-0.260,0.415
6355,-0.520,0.535
6356,-0.875,0.445
6357,-1.255,0.235
6358,-1.585,-0.030
6359,-1.855,-0.295
6360,-2.020,-0.490
6361,-2.105,-0.580
6362,-2.145,-0.635
6363,-2.185,-0.670
6364,-2.215,-0.675
6365,-2.260,-0.735
6366,-2.290,-0.750
6367,-2.325,-0.770
6368,-2.355,-0.800
6369,-2.370,-0.810
6370,-2.355,-0.845
6371,-2.355,-0.880
6372,-2.335,-0.900
6373,-2.355,-0.910
6374,-2.350,-0.925
6375,-2.340,-0.925
6376,-2.270,-0.935
6377,-2.170,-0.940
6378,-2.035,-0.920
6379,-1.885,-0.865
6380,-1.715,-0.820
6381,-1.610,-0.745
