'sample interval','MLII','V1'
'0.00277778 sec','mV','mV'
0,-0.260,-0.210
1,-0.260,-0.210
2,-0.260,-0.210
3,-0.260,-0.210
4,-0.260,-0.210
5,-0.260,-0.210
6,-0.260,-0.210
7,-0.260,-0.210
8,-0.260,-0.195
9,-0.250,-0.185
10,-0.240,-0.175
11,-0.225,-0.170
12,-0.210,-0.180
13,-0.200,-0.180
14,-0.200,-0.190
15,-0.200,-0.170
16,-0.180,-0.180
17,-0.170,-0.185
18,-0.155,-0.185
19,-0.165,-0.190
20,-0.170,-0.195
21,-0.175,-0.195
22,-0.170,-0.175
23,-0.165,-0.165
24,-0.160,-0.160
25,-0.170,-0.205
26,-0.175,-0.260
27,-0.185,-0.295
28,-0.175,-0.295
29,-0.170,-0.255
30,-0.165,-0.240
31,-0.175,-0.245
32,-0.200,-0.260
33,-0.205,-0.295
34,-0.210,-0.300
35,-0.210,-0.290
36,-0.210,-0.280
37,-0.225,-0.285
38,-0.240,-0.285
39,-0.250,-0.275
40,-0.245,-0.265
41,-0.245,-0.245
42,-0.250,-0.245
43,-0.255,-0.255
44,-0.270,-0.255
45,-0.290,-0.245
46,-0.305,-0.230
47,-0.310,-0.215
48,-0.305,-0.200
49,-0.305,-0.190
50,-0.310,-0.200
51,-0.310,-0.185
52,-0.310,-0.180
53,-0.295,-0.165
54,-0.300,-0.175
55,-0.320,-0.160
56,-0.325,-0.155
57,-0.325,-0.130
58,-0.320,-0.125
59,-0.305,-0.140
60,-0.290,-0.155
61,-0.295,-0.155
62,-0.290,-0.160
63,-0.305,-0.140
64,-0.295,-0.120
65,-0.285,-0.090
66,-0.295,-0.115
67,-0.295,-0.130
68,-0.300,-0.135
69,-0.305,-0.125
70,-0.285,-0.100
71,-0.285,-0.085
72,-0.280,-0.095
73,-0.285,-0.110
74,-0.290,-0.115
75,-0.295,-0.095
76,-0.295,-0.085
77,-0.280,-0.075
78,-0.275,-0.065
79,-0.265,-0.065
80,-0.255,-0.085
81,-0.260,-0.085
82,-0.245,-0.100
83,-0.235,-0.105
84,-0.235,-0.110
85,-0.240,-0.140
86,-0.240,-0.155
87,-0.255,-0.165
88,-0.250,-0.175
89,-0.245,-0.190
90,-0.245,-0.200
91,-0.255,-0.210
92,-0.260,-0.230
93,-0.265,-0.220
94,-0.260,-0.215
95,-0.270,-0.205
96,-0.275,-0.195
97,-0.290,-0.205
98,-0.300,-0.230
99,-0.305,-0.235
100,-0.310,-0.220
101,-0.305,-0.215
102,-0.290,-0.235
103,-0.285,-0.260
104,-0.300,-0.265
105,-0.300,-0.265
106,-0.295,-0.245
107,-0.285,-0.225
108,-0.285,-0.220
109,-0.280,-0.230
110,-0.290,-0.260
111,-0.305,-0.260
112,-0.300,-0.245
113,-0.300,-0.230
114,-0.305,-0.225
115,-0.315,-0.235
116,-0.335,-0.230
117,-0.345,-0.200
118,-0.340,-0.170
119,-0.330,-0.155
120,-0.325,-0.145
121,-0.325,-0.145
122,-0.330,-0.165
123,-0.325,-0.175
124,-0.315,-0.175
125,-0.300,-0.155
126,-0.305,-0.150
127,-0.315,-0.145
128,-0.335,-0.120
129,-0.335,-0.100
130,-0.325,-0.075
131,-0.310,-0.080
132,-0.305,-0.110
133,-0.320,-0.145
134,-0.330,-0.170
135,-0.330,-0.170
136,-0.310,-0.150
137,-0.305,-0.140
138,-0.310,-0.135
139,-0.320,-0.135
140,-0.335,-0.135
141,-0.330,-0.115
142,-0.315,-0.075
143,-0.305,-0.050
144,-0.265,-0.050
145,-0.240,-0.090
146,-0.210,-0.170
147,-0.190,-0.235
148,-0.170,-0.300
149,-0.130,-0.355
150,-0.080,-0.440
151,0.005,-0.535
152,0.100,-0.640
153,0.185,-0.740
154,0.305,-0.840
155,0.430,-0.870
156,0.580,-0.860
157,0.705,-0.845
158,0.765,-0.815
159,0.835,-0.755
160,0.890,-0.625
161,0.870,-0.485
162,0.750,-0.360
163,0.575,-0.275
164,0.375,-0.255
165,0.150,-0.260
166,-0.030,-0.280
167,-0.130,-0.280
168,-0.180,-0.265
169,-0.220,-0.255
170,-0.230,-0.230
171,-0.235,-0.205
172,-0.215,-0.175
173,-0.215,-0.175
174,-0.220,-0.160
175,-0.235,-0.175
176,-0.255,-0.175
177,-0.265,-0.165
178,-0.275,-0.145
179,-0.275,-0.125
180,-0.295,-0.110
181,-0.300,-0.090
182,-0.305,-0.070
183,-0.310,-0.050
184,-0.300,-0.035
185,-0.315,-0.020
186,-0.325,-0.075
187,-0.345,-0.170
188,-0.335,-0.255
189,-0.340,-0.270
190,-0.320,-0.240
191,-0.295,-0.200
192,-0.285,-0.190
193,-0.295,-0.185
194,-0.315,-0.185
195,-0.320,-0.185
196,-0.325,-0.175
197,-0.325,-0.160
198,-0.325,-0.150
199,-0.335,-0.145
200,-0.325,-0.155
201,-0.335,-0.145
202,-0.320,-0.115
203,-0.320,-0.105
204,-0.310,-0.095
205,-0.310,-0.080
206,-0.300,-0.085
207,-0.280,-0.080
208,-0.255,-0.070
209,-0.235,-0.065
210,-0.210,-0.070
211,-0.205,-0.080
212,-0.200,-0.080
213,-0.205,-0.070
214,-0.215,-0.070
215,-0.195,-0.045
216,-0.195,-0.060
217,-0.205,-0.115
218,-0.210,-0.175
219,-0.215,-0.180
220,-0.210,-0.160
221,-0.195,-0.150
222,-0.175,-0.190
223,-0.165,-0.230
224,-0.175,-0.235
225,-0.165,-0.230
226,-0.160,-0.210
227,-0.160,-0.210
228,-0.160,-0.205
229,-0.165,-0.220
230,-0.170,-0.255
231,-0.185,-0.300
232,-0.200,-0.315
233,-0.190,-0.325
234,-0.180,-0.320
235,-0.175,-0.325
236,-0.165,-0.315
237,-0.175,-0.295
238,-0.170,-0.290
239,-0.165,-0.260
240,-0.170,-0.260
241,-0.175,-0.260
242,-0.190,-0.255
243,-0.195,-0.245
244,-0.205,-0.210
245,-0.195,-0.165
246,-0.210,-0.160
247,-0.205,-0.175
248,-0.215,-0.195
249,-0.225,-0.195
250,-0.225,-0.145
251,-0.220,-0.105
252,-0.230,-0.110
253,-0.250,-0.150
254,-0.265,-0.135
255,-0.290,-0.060
256,-0.285,0.005
257,-0.275,0.030
258,-0.275,-0.030
259,-0.300,-0.140
260,-0.330,-0.210
261,-0.335,-0.230
262,-0.310,-0.210
263,-0.280,-0.165
264,-0.265,-0.135
265,-0.255,-0.115
266,-0.250,-0.120
267,-0.255,-0.090
268,-0.270,-0.080
269,-0.260,-0.075
270,-0.250,-0.075
271,-0.240,-0.090
272,-0.240,-0.095
273,-0.240,-0.080
274,-0.215,-0.075
275,-0.215,-0.040
276,-0.220,-0.055
277,-0.235,-0.080
278,-0.240,-0.120
279,-0.260,-0.150
280,-0.255,-0.125
281,-0.255,-0.120
282,-0.260,-0.125
283,-0.255,-0.115
284,-0.260,-0.110
285,-0.265,-0.085
286,-0.255,-0.065
287,-0.255,-0.090
288,-0.265,-0.145
289,-0.270,-0.220
290,-0.275,-0.230
291,-0.280,-0.225
292,-0.265,-0.200
293,-0.270,-0.170
294,-0.265,-0.140
295,-0.275,-0.155
296,-0.275,-0.190
297,-0.290,-0.225
298,-0.295,-0.245
299,-0.300,-0.255
300,-0.290,-0.250
301,-0.295,-0.245
302,-0.305,-0.240
303,-0.315,-0.220
304,-0.315,-0.185
305,-0.310,-0.160
306,-0.305,-0.150
307,-0.305,-0.160
308,-0.295,-0.165
309,-0.320,-0.160
310,-0.330,-0.140
311,-0.330,-0.130
312,-0.330,-0.120
313,-0.335,-0.080
314,-0.350,-0.035
315,-0.340,-0.005
316,-0.325,0.005
317,-0.305,0.020
318,-0.295,0.055
319,-0.300,0.045
320,-0.320,-0.020
321,-0.350,-0.065
322,-0.360,-0.045
323,-0.345,0.010
324,-0.315,0.015
325,-0.290,-0.030
326,-0.290,-0.085
327,-0.295,-0.150
328,-0.335,-0.165
329,-0.335,-0.175
330,-0.320,-0.170
331,-0.295,-0.170
332,-0.290,-0.170
333,-0.285,-0.175
334,-0.275,-0.165
335,-0.280,-0.150
336,-0.270,-0.130
337,-0.265,-0.115
338,-0.285,-0.090
339,-0.285,-0.070
340,-0.270,-0.060
341,-0.275,-0.070
342,-0.290,-0.070
343,-0.300,-0.050
344,-0.310,-0.075
345,-0.315,-0.150
346,-0.320,-0.215
347,-0.305,-0.245
348,-0.290,-0.200
349,-0.280,-0.145
350,-0.285,-0.115
351,-0.290,-0.100
352,-0.290,-0.135
353,-0.290,-0.200
354,-0.295,-0.240
355,-0.305,-0.250
356,-0.310,-0.255
357,-0.290,-0.250
358,-0.270,-0.235
359,-0.255,-0.200
360,-0.250,-0.165
361,-0.280,-0.160
362,-0.315,-0.175
363,-0.350,-0.200
364,-0.365,-0.180
365,-0.360,-0.165
366,-0.345,-0.140
367,-0.335,-0.130
368,-0.345,-0.125
369,-0.325,-0.085
370,-0.310,-0.070
371,-0.295,-0.055
372,-0.300,-0.025
373,-0.285,0.040
374,-0.270,0.120
375,-0.265,0.150
376,-0.260,0.100
377,-0.290,0.030
378,-0.290,-0.045
379,-0.285,-0.110
380,-0.265,-0.140
381,-0.265,-0.125
382,-0.240,-0.090
383,-0.230,-0.115
384,-0.240,-0.185
385,-0.270,-0.235
386,-0.280,-0.255
387,-0.285,-0.235
388,-0.270,-0.230
389,-0.245,-0.225
390,-0.225,-0.210
391,-0.215,-0.215
392,-0.215,-0.230
393,-0.235,-0.230
394,-0.245,-0.215
395,-0.255,-0.200
396,-0.260,-0.195
397,-0.275,-0.190
398,-0.295,-0.180
399,-0.300,-0.145
400,-0.280,-0.130
401,-0.265,-0.125
402,-0.235,-0.155
403,-0.210,-0.240
404,-0.195,-0.350
405,-0.180,-0.445
406,-0.120,-0.545
407,-0.040,-0.630
408,0.100,-0.735
409,0.235,-0.845
410,0.350,-0.905
411,0.475,-0.855
412,0.620,-0.740
413,0.735,-0.610
414,0.850,-0.545
415,0.945,-0.505
416,0.980,-0.430
417,0.890,-0.300
418,0.720,-0.145
419,0.500,-0.020
420,0.270,0.065
421,0.045,0.090
422,-0.120,0.010
423,-0.245,-0.095
424,-0.330,-0.160
425,-0.350,-0.175
426,-0.300,-0.175
427,-0.235,-0.175
428,-0.205,-0.225
429,-0.195,-0.245
430,-0.200,-0.235
431,-0.195,-0.200
432,-0.200,-0.190
433,-0.210,-0.205
434,-0.215,-0.220
435,-0.230,-0.215
436,-0.235,-0.225
437,-0.230,-0.230
438,-0.220,-0.220
439,-0.225,-0.240
440,-0.240,-0.250
441,-0.250,-0.250
442,-0.235,-0.235
443,-0.240,-0.230
444,-0.245,-0.235
445,-0.245,-0.240
446,-0.255,-0.260
447,-0.255,-0.245
448,-0.255,-0.235
449,-0.250,-0.220
450,-0.250,-0.195
451,-0.250,-0.195
452,-0.240,-0.190
453,-0.240,-0.175
454,-0.235,-0.190
455,-0.220,-0.205
456,-0.225,-0.270
457,-0.230,-0.325
458,-0.220,-0.320
459,-0.205,-0.270
460,-0.190,-0.245
461,-0.180,-0.235
462,-0.180,-0.270
463,-0.185,-0.315
464,-0.215,-0.350
465,-0.210,-0.335
466,-0.180,-0.305
467,-0.165,-0.295
468,-0.140,-0.285
469,-0.125,-0.270
470,-0.130,-0.265
471,-0.120,-0.255
472,-0.120,-0.245
473,-0.110,-0.235
474,-0.110,-0.240
475,-0.105,-0.245
476,-0.100,-0.255
477,-0.095,-0.260
478,-0.090,-0.240
479,-0.085,-0.245
480,-0.075,-0.250
481,-0.085,-0.260
482,-0.085,-0.275
483,-0.090,-0.260
484,-0.065,-0.255
485,-0.050,-0.235
486,-0.045,-0.235
487,-0.055,-0.240
488,-0.060,-0.280
489,-0.060,-0.305
490,-0.045,-0.315
491,-0.045,-0.300
492,-0.025,-0.290
493,-0.025,-0.290
494,-0.030,-0.320
495,-0.025,-0.335
496,-0.025,-0.345
497,-0.010,-0.350
498,-0.005,-0.350
499,0.000,-0.360
500,-0.010,-0.355
501,-0.005,-0.345
502,-0.005,-0.320
503,-0.010,-0.305
504,-0.015,-0.290
505,-0.030,-0.305
506,-0.050,-0.300
507,-0.075,-0.290
508,-0.060,-0.280
509,-0.070,-0.255
510,-0.070,-0.255
511,-0.080,-0.260
512,-0.090,-0.265
513,-0.110,-0.270
514,-0.090,-0.245
515,-0.095,-0.230
516,-0.095,-0.210
517,-0.110,-0.205
518,-0.140,-0.220
519,-0.145,-0.215
520,-0.160,-0.210
521,-0.145,-0.210
522,-0.155,-0.210
523,-0.150,-0.205
524,-0.160,-0.200
525,-0.160,-0.205
526,-0.160,-0.210
527,-0.150,-0.195
528,-0.140,-0.195
529,-0.150,-0.190
530,-0.155,-0.195
531,-0.170,-0.185
532,-0.150,-0.185
533,-0.140,-0.165
534,-0.125,-0.160
535,-0.130,-0.170
536,-0.140,-0.175
537,-0.155,-0.175
538,-0.140,-0.160
539,-0.125,-0.160
540,-0.130,-0.175
541,-0.135,-0.185
542,-0.145,-0.195
543,-0.155,-0.185
544,-0.145,-0.190
545,-0.130,-0.180
546,-0.125,-0.185
547,-0.135,-0.205
548,-0.135,-0.215
549,-0.135,-0.200
550,-0.125,-0.165
551,-0.110,-0.160
552,-0.110,-0.160
553,-0.095,-0.155
554,-0.115,-0.165
555,-0.115,-0.165
556,-0.110,-0.180
557,-0.095,-0.185
558,-0.105,-0.180
559,-0.115,-0.165
560,-0.130,-0.160
561,-0.135,-0.180
562,-0.125,-0.185
563,-0.130,-0.205
564,-0.125,-0.205
565,-0.140,-0.205
566,-0.150,-0.210
567,-0.150,-0.205
568,-0.145,-0.195
569,-0.135,-0.205
570,-0.135,-0.230
571,-0.155,-0.245
572,-0.160,-0.245
573,-0.175,-0.235
574,-0.155,-0.205
575,-0.150,-0.195
576,-0.155,-0.195
577,-0.160,-0.200
578,-0.175,-0.215
579,-0.175,-0.195
580,-0.160,-0.175
581,-0.160,-0.180
582,-0.160,-0.170
583,-0.160,-0.180
584,-0.160,-0.185
585,-0.170,-0.185
586,-0.155,-0.170
587,-0.145,-0.175
588,-0.155,-0.190
589,-0.175,-0.195
590,-0.170,-0.210
591,-0.170,-0.210
592,-0.155,-0.205
593,-0.140,-0.195
594,-0.145,-0.205
595,-0.160,-0.225
596,-0.180,-0.230
597,-0.180,-0.235
598,-0.175,-0.220
599,-0.155,-0.210
600,-0.155,-0.215
601,-0.155,-0.225
602,-0.155,-0.230
603,-0.165,-0.215
604,-0.160,-0.200
605,-0.145,-0.200
606,-0.145,-0.195
607,-0.155,-0.205
608,-0.150,-0.210
609,-0.155,-0.185
610,-0.140,-0.180
611,-0.135,-0.180
612,-0.135,-0.200
613,-0.150,-0.220
614,-0.160,-0.230
615,-0.175,-0.200
616,-0.165,-0.190
617,-0.145,-0.170
618,-0.140,-0.170
619,-0.155,-0.200
620,-0.175,-0.210
621,-0.190,-0.200
622,-0.175,-0.195
623,-0.165,-0.195
624,-0.160,-0.200
625,-0.180,-0.200
626,-0.195,-0.195
627,-0.200,-0.180
628,-0.185,-0.165
629,-0.175,-0.155
630,-0.180,-0.170
631,-0.185,-0.195
632,-0.190,-0.215
633,-0.190,-0.200
634,-0.180,-0.210
635,-0.180,-0.175
636,-0.170,-0.170
637,-0.165,-0.175
638,-0.180,-0.180
639,-0.190,-0.170
640,-0.170,-0.145
641,-0.160,-0.135
642,-0.165,-0.145
643,-0.175,-0.155
644,-0.175,-0.180
645,-0.175,-0.185
646,-0.170,-0.175
647,-0.170,-0.165
648,-0.170,-0.170
649,-0.175,-0.190
650,-0.180,-0.195
651,-0.190,-0.190
652,-0.170,-0.190
653,-0.160,-0.180
654,-0.155,-0.200
655,-0.160,-0.215
656,-0.170,-0.220
657,-0.165,-0.210
658,-0.150,-0.200
659,-0.135,-0.200
660,-0.145,-0.200
661,-0.170,-0.205
662,-0.185,-0.235
663,-0.185,-0.235
664,-0.165,-0.220
665,-0.170,-0.225
666,-0.160,-0.220
667,-0.170,-0.235
668,-0.180,-0.225
669,-0.195,-0.195
670,-0.180,-0.145
671,-0.140,-0.090
672,-0.125,-0.110
673,-0.105,-0.190
674,-0.095,-0.330
675,-0.075,-0.430
676,-0.035,-0.500
677,0.025,-0.545
678,0.115,-0.610
679,0.220,-0.705
680,0.325,-0.815
681,0.440,-0.885
682,0.585,-0.905
683,0.710,-0.845
684,0.820,-0.780
685,0.915,-0.705
686,1.005,-0.620
687,1.055,-0.490
688,1.040,-0.355
689,0.935,-0.240
690,0.760,-0.145
691,0.555,-0.095
692,0.330,-0.080
693,0.135,-0.100
694,0.000,-0.140
695,-0.095,-0.175
696,-0.155,-0.200
697,-0.195,-0.210
698,-0.190,-0.210
699,-0.155,-0.205
700,-0.115,-0.175
701,-0.105,-0.170
702,-0.105,-0.170
703,-0.130,-0.175
704,-0.145,-0.185
705,-0.165,-0.190
706,-0.165,-0.175
707,-0.160,-0.175
708,-0.160,-0.170
709,-0.170,-0.190
710,-0.190,-0.215
711,-0.190,-0.200
712,-0.180,-0.215
713,-0.170,-0.225
714,-0.175,-0.235
715,-0.185,-0.260
716,-0.180,-0.290
717,-0.190,-0.290
718,-0.185,-0.275
719,-0.175,-0.265
720,-0.175,-0.265
721,-0.170,-0.260
722,-0.175,-0.270
723,-0.185,-0.255
724,-0.180,-0.230
725,-0.155,-0.225
726,-0.150,-0.220
727,-0.160,-0.230
728,-0.165,-0.235
729,-0.170,-0.235
730,-0.160,-0.225
731,-0.145,-0.225
732,-0.155,-0.235
733,-0.160,-0.240
734,-0.170,-0.255
735,-0.165,-0.245
736,-0.160,-0.230
737,-0.150,-0.235
738,-0.145,-0.235
739,-0.145,-0.240
740,-0.150,-0.255
741,-0.155,-0.240
742,-0.145,-0.225
743,-0.140,-0.225
744,-0.135,-0.225
745,-0.145,-0.230
746,-0.145,-0.235
747,-0.150,-0.225
748,-0.135,-0.210
749,-0.120,-0.205
750,-0.125,-0.205
751,-0.125,-0.225
752,-0.135,-0.230
753,-0.140,-0.215
754,-0.125,-0.210
755,-0.115,-0.205
756,-0.130,-0.205
757,-0.125,-0.225
758,-0.135,-0.260
759,-0.130,-0.255
760,-0.125,-0.245
761,-0.105,-0.220
762,-0.100,-0.225
763,-0.100,-0.225
764,-0.090,-0.235
765,-0.080,-0.235
766,-0.055,-0.235
767,-0.040,-0.235
768,-0.030,-0.245
769,-0.040,-0.240
770,-0.045,-0.250
771,-0.040,-0.240
772,-0.025,-0.240
773,-0.020,-0.240
774,-0.010,-0.225
775,-0.015,-0.230
776,-0.025,-0.230
777,-0.035,-0.225
778,-0.025,-0.225
779,-0.030,-0.205
780,-0.040,-0.205
781,-0.055,-0.210
782,-0.075,-0.210
783,-0.085,-0.195
784,-0.085,-0.175
785,-0.075,-0.165
786,-0.090,-0.170
787,-0.100,-0.180
788,-0.130,-0.185
789,-0.135,-0.170
790,-0.140,-0.140
791,-0.140,-0.130
792,-0.145,-0.135
793,-0.150,-0.150
794,-0.165,-0.190
795,-0.170,-0.205
796,-0.165,-0.210
797,-0.155,-0.205
798,-0.170,-0.185
799,-0.170,-0.180
800,-0.175,-0.180
801,-0.175,-0.165
802,-0.170,-0.160
803,-0.155,-0.145
804,-0.160,-0.145
805,-0.165,-0.160
806,-0.175,-0.165
807,-0.170,-0.160
808,-0.160,-0.150
809,-0.160,-0.145
810,-0.170,-0.155
811,-0.170,-0.165
812,-0.190,-0.180
813,-0.185,-0.165
814,-0.190,-0.160
815,-0.185,-0.150
816,-0.190,-0.170
817,-0.185,-0.180
818,-0.195,-0.195
819,-0.200,-0.200
820,-0.195,-0.210
821,-0.195,-0.200
822,-0.185,-0.205
823,-0.180,-0.215
824,-0.180,-0.225
825,-0.165,-0.215
826,-0.170,-0.195
827,-0.160,-0.200
828,-0.165,-0.185
829,-0.160,-0.210
830,-0.160,-0.230
831,-0.160,-0.205
832,-0.150,-0.190
833,-0.140,-0.185
834,-0.145,-0.195
835,-0.145,-0.205
836,-0.160,-0.205
837,-0.175,-0.195
838,-0.165,-0.185
839,-0.160,-0.180
840,-0.165,-0.195
841,-0.175,-0.205
842,-0.170,-0.255
843,-0.185,-0.245
844,-0.175,-0.235
845,-0.170,-0.220
846,-0.175,-0.220
847,-0.180,-0.220
848,-0.195,-0.240
849,-0.195,-0.235
850,-0.185,-0.250
851,-0.180,-0.245
852,-0.165,-0.245
853,-0.180,-0.235
854,-0.190,-0.250
855,-0.195,-0.235
856,-0.195,-0.220
857,-0.185,-0.205
858,-0.180,-0.200
859,-0.190,-0.200
860,-0.195,-0.215
861,-0.210,-0.200
862,-0.195,-0.185
863,-0.190,-0.180
864,-0.190,-0.180
865,-0.205,-0.180
866,-0.190,-0.180
867,-0.210,-0.170
868,-0.190,-0.155
869,-0.190,-0.150
870,-0.195,-0.140
871,-0.205,-0.140
872,-0.205,-0.155
873,-0.215,-0.145
874,-0.210,-0.135
875,-0.195,-0.130
876,-0.195,-0.140
877,-0.205,-0.135
878,-0.205,-0.145
879,-0.215,-0.140
880,-0.220,-0.115
881,-0.210,-0.100
882,-0.220,-0.105
883,-0.220,-0.135
884,-0.230,-0.160
885,-0.220,-0.155
886,-0.200,-0.145
887,-0.185,-0.135
888,-0.165,-0.135
889,-0.150,-0.150
890,-0.140,-0.185
891,-0.120,-0.255
892,-0.100,-0.335
893,-0.085,-0.420
894,-0.060,-0.475
895,0.000,-0.540
896,0.075,-0.610
897,0.165,-0.680
898,0.270,-0.790
899,0.365,-0.880
900,0.475,-0.955
901,0.600,-0.980
902,0.690,-0.935
903,0.770,-0.880
904,0.850,-0.800
905,0.910,-0.700
906,0.910,-0.555
907,0.835,-0.435
908,0.725,-0.365
909,0.590,-0.280
910,0.430,-0.245
911,0.250,-0.245
912,0.100,-0.260
913,0.000,-0.275
914,-0.065,-0.275
915,-0.105,-0.245
916,-0.120,-0.235
917,-0.115,-0.220
918,-0.105,-0.205
919,-0.110,-0.210
920,-0.135,-0.205
921,-0.155,-0.195
922,-0.165,-0.190
923,-0.170,-0.185
924,-0.165,-0.195
925,-0.180,-0.190
926,-0.195,-0.190
927,-0.200,-0.185
928,-0.200,-0.175
929,-0.200,-0.180
930,-0.210,-0.200
931,-0.215,-0.205
932,-0.210,-0.200
933,-0.215,-0.190
934,-0.215,-0.170
935,-0.210,-0.175
936,-0.225,-0.170
937,-0.225,-0.170
938,-0.240,-0.175
939,-0.240,-0.165
940,-0.245,-0.160
941,-0.240,-0.135
942,-0.240,-0.145
943,-0.250,-0.160
944,-0.260,-0.160
945,-0.260,-0.160
946,-0.250,-0.160
947,-0.255,-0.155
948,-0.255,-0.165
949,-0.265,-0.180
950,-0.275,-0.190
951,-0.290,-0.195
952,-0.285,-0.175
953,-0.285,-0.175
954,-0.295,-0.170
955,-0.310,-0.185
956,-0.315,-0.205
957,-0.300,-0.210
958,-0.265,-0.205
959,-0.250,-0.200
960,-0.235,-0.215
961,-0.235,-0.215
962,-0.235,-0.230
963,-0.225,-0.210
964,-0.205,-0.220
965,-0.180,-0.205
966,-0.170,-0.220
967,-0.170,-0.220
968,-0.175,-0.230
969,-0.180,-0.230
970,-0.165,-0.235
971,-0.145,-0.245
972,-0.150,-0.260
973,-0.145,-0.275
974,-0.135,-0.270
975,-0.140,-0.280
976,-0.140,-0.245
977,-0.135,-0.255
978,-0.125,-0.260
979,-0.125,-0.260
980,-0.120,-0.265
981,-0.115,-0.255
982,-0.115,-0.260
983,-0.105,-0.255
984,-0.100,-0.250
985,-0.105,-0.270
986,-0.105,-0.270
987,-0.110,-0.265
988,-0.100,-0.245
989,-0.095,-0.255
990,-0.085,-0.275
991,-0.100,-0.265
992,-0.100,-0.275
993,-0.105,-0.255
994,-0.095,-0.260
995,-0.090,-0.250
996,-0.095,-0.260
997,-0.105,-0.245
998,-0.115,-0.255
999,-0.125,-0.250
1000,-0.120,-0.240
1001,-0.120,-0.210
1002,-0.140,-0.210
1003,-0.150,-0.210
1004,-0.175,-0.200
1005,-0.185,-0.190
1006,-0.185,-0.180
1007,-0.190,-0.190
1008,-0.210,-0.190
1009,-0.220,-0.205
1010,-0.230,-0.195
1011,-0.230,-0.200
1012,-0.240,-0.185
1013,-0.255,-0.200
1014,-0.260,-0.210
1015,-0.285,-0.205
1016,-0.300,-0.210
1017,-0.290,-0.215
1018,-0.280,-0.230
1019,-0.280,-0.230
1020,-0.265,-0.225
1021,-0.285,-0.230
1022,-0.260,-0.215
1023,-0.225,-0.200
1024,-0.200,-0.200
1025,-0.180,-0.200
1026,-0.165,-0.200
1027,-0.160,-0.200
1028,-0.170,-0.180
1029,-0.160,-0.165
1030,-0.155,-0.170
1031,-0.155,-0.170
1032,-0.155,-0.175
1033,-0.160,-0.190
1034,-0.160,-0.170
1035,-0.150,-0.160
1036,-0.150,-0.150
1037,-0.155,-0.155
1038,-0.165,-0.165
1039,-0.175,-0.170
1040,-0.180,-0.165
1041,-0.160,-0.155
1042,-0.160,-0.150
1043,-0.150,-0.160
1044,-0.165,-0.180
1045,-0.165,-0.185
1046,-0.165,-0.180
1047,-0.170,-0.180
1048,-0.165,-0.170
1049,-0.170,-0.170
1050,-0.180,-0.170
1051,-0.180,-0.190
1052,-0.180,-0.175
1053,-0.170,-0.160
1054,-0.170,-0.155
1055,-0.185,-0.160
1056,-0.200,-0.170
1057,-0.220,-0.190
1058,-0.220,-0.185
1059,-0.220,-0.180
1060,-0.210,-0.170
1061,-0.215,-0.170
1062,-0.225,-0.170
1063,-0.240,-0.175
1064,-0.245,-0.150
1065,-0.235,-0.135
1066,-0.230,-0.140
1067,-0.245,-0.160
1068,-0.265,-0.175
1069,-0.280,-0.195
1070,-0.285,-0.205
1071,-0.285,-0.205
1072,-0.280,-0.215
1073,-0.295,-0.235
1074,-0.305,-0.260
1075,-0.305,-0.280
1076,-0.310,-0.270
1077,-0.295,-0.255
1078,-0.285,-0.240
1079,-0.275,-0.235
1080,-0.265,-0.230
1081,-0.265,-0.230
1082,-0.250,-0.215
1083,-0.225,-0.190
1084,-0.195,-0.185
1085,-0.190,-0.190
1086,-0.195,-0.200
1087,-0.200,-0.205
1088,-0.210,-0.195
1089,-0.210,-0.165
1090,-0.200,-0.135
1091,-0.200,-0.120
1092,-0.205,-0.120
1093,-0.215,-0.150
1094,-0.215,-0.185
1095,-0.195,-0.210
1096,-0.200,-0.210
1097,-0.180,-0.225
1098,-0.190,-0.230
1099,-0.190,-0.235
1100,-0.195,-0.210
1101,-0.195,-0.200
1102,-0.195,-0.195
1103,-0.205,-0.190
1104,-0.200,-0.195
1105,-0.210,-0.205
1106,-0.215,-0.185
1107,-0.210,-0.180
1108,-0.205,-0.175
1109,-0.205,-0.170
1110,-0.210,-0.185
1111,-0.225,-0.205
1112,-0.220,-0.185
1113,-0.215,-0.175
1114,-0.205,-0.165
1115,-0.215,-0.170
1116,-0.230,-0.180
1117,-0.230,-0.185
1118,-0.230,-0.170
1119,-0.230,-0.155
1120,-0.230,-0.160
1121,-0.235,-0.150
1122,-0.250,-0.160
1123,-0.265,-0.175
1124,-0.260,-0.175
1125,-0.255,-0.165
1126,-0.250,-0.170
1127,-0.255,-0.185
1128,-0.265,-0.195
1129,-0.275,-0.205
1130,-0.285,-0.205
1131,-0.275,-0.195
1132,-0.270,-0.175
1133,-0.260,-0.175
1134,-0.275,-0.175
1135,-0.280,-0.180
1136,-0.275,-0.175
1137,-0.265,-0.175
1138,-0.250,-0.165
1139,-0.240,-0.155
1140,-0.230,-0.165
1141,-0.220,-0.170
1142,-0.210,-0.160
1143,-0.190,-0.185
1144,-0.180,-0.200
1145,-0.175,-0.220
1146,-0.190,-0.240
1147,-0.180,-0.245
1148,-0.175,-0.245
1149,-0.175,-0.235
1150,-0.170,-0.235
1151,-0.175,-0.230
1152,-0.180,-0.240
1153,-0.185,-0.250
1154,-0.190,-0.245
1155,-0.180,-0.225
1156,-0.175,-0.230
1157,-0.175,-0.230
1158,-0.175,-0.235
1159,-0.200,-0.240
1160,-0.190,-0.235
1161,-0.175,-0.220
1162,-0.170,-0.225
1163,-0.175,-0.225
1164,-0.185,-0.225
1165,-0.180,-0.240
1166,-0.185,-0.230
1167,-0.165,-0.230
1168,-0.160,-0.215
1169,-0.170,-0.195
1170,-0.175,-0.195
1171,-0.180,-0.195
1172,-0.180,-0.175
1173,-0.155,-0.160
1174,-0.135,-0.175
1175,-0.125,-0.230
1176,-0.100,-0.320
1177,-0.095,-0.410
1178,-0.080,-0.470
1179,-0.035,-0.535
1180,0.035,-0.585
1181,0.135,-0.645
1182,0.240,-0.740
1183,0.340,-0.835
1184,0.465,-0.880
1185,0.610,-0.860
1186,0.735,-0.800
1187,0.845,-0.715
1188,0.940,-0.655
1189,1.010,-0.580
1190,1.025,-0.450
1191,0.940,-0.325
1192,0.775,-0.210
1193,0.550,-0.120
1194,0.310,-0.080
1195,0.100,-0.075
1196,-0.040,-0.105
1197,-0.135,-0.135
1198,-0.210,-0.175
1199,-0.280,-0.205
1200,-0.315,-0.220
1201,-0.305,-0.225
1202,-0.270,-0.205
1203,-0.235,-0.195
1204,-0.230,-0.180
1205,-0.230,-0.185
1206,-0.235,-0.205
1207,-0.245,-0.220
1208,-0.245,-0.200
1209,-0.245,-0.190
1210,-0.240,-0.205
1211,-0.250,-0.210
1212,-0.250,-0.235
1213,-0.250,-0.240
1214,-0.245,-0.245
1215,-0.235,-0.230
1216,-0.225,-0.215
1217,-0.220,-0.225
1218,-0.230,-0.240
1219,-0.240,-0.245
1220,-0.250,-0.250
1221,-0.245,-0.235
1222,-0.235,-0.225
1223,-0.235,-0.225
1224,-0.250,-0.230
1225,-0.250,-0.235
1226,-0.250,-0.230
1227,-0.235,-0.225
1228,-0.240,-0.215
1229,-0.235,-0.210
1230,-0.230,-0.240
1231,-0.245,-0.245
1232,-0.250,-0.235
1233,-0.235,-0.245
1234,-0.235,-0.235
1235,-0.235,-0.245
1236,-0.230,-0.250
1237,-0.235,-0.255
1238,-0.235,-0.255
1239,-0.220,-0.260
1240,-0.215,-0.255
1241,-0.215,-0.240
1242,-0.225,-0.255
1243,-0.230,-0.265
1244,-0.225,-0.275
1245,-0.215,-0.260
1246,-0.210,-0.260
1247,-0.205,-0.260
1248,-0.210,-0.255
1249,-0.215,-0.260
1250,-0.210,-0.250
1251,-0.195,-0.235
1252,-0.175,-0.225
1253,-0.170,-0.220
1254,-0.175,-0.220
1255,-0.170,-0.225
1256,-0.185,-0.210
1257,-0.155,-0.200
1258,-0.155,-0.200
1259,-0.155,-0.210
1260,-0.155,-0.220
1261,-0.150,-0.235
1262,-0.140,-0.225
1263,-0.135,-0.220
1264,-0.135,-0.215
1265,-0.130,-0.220
1266,-0.140,-0.240
1267,-0.135,-0.255
1268,-0.135,-0.260
1269,-0.130,-0.250
1270,-0.130,-0.240
1271,-0.130,-0.235
1272,-0.135,-0.245
1273,-0.130,-0.250
1274,-0.115,-0.240
1275,-0.090,-0.225
1276,-0.070,-0.240
1277,-0.065,-0.255
1278,-0.065,-0.270
1279,-0.080,-0.290
1280,-0.085,-0.295
1281,-0.065,-0.305
1282,-0.065,-0.315
1283,-0.065,-0.315
1284,-0.080,-0.315
1285,-0.080,-0.330
1286,-0.080,-0.310
1287,-0.085,-0.310
1288,-0.075,-0.305
1289,-0.085,-0.300
1290,-0.105,-0.295
1291,-0.120,-0.295
1292,-0.130,-0.290
1293,-0.120,-0.270
1294,-0.125,-0.275
1295,-0.135,-0.250
1296,-0.140,-0.245
1297,-0.155,-0.270
1298,-0.165,-0.270
1299,-0.170,-0.255
1300,-0.170,-0.265
1301,-0.165,-0.265
1302,-0.175,-0.270
1303,-0.190,-0.275
1304,-0.205,-0.245
1305,-0.205,-0.230
1306,-0.190,-0.230
1307,-0.205,-0.225
1308,-0.205,-0.230
1309,-0.210,-0.230
1310,-0.210,-0.235
1311,-0.195,-0.210
1312,-0.195,-0.185
1313,-0.195,-0.180
1314,-0.200,-0.170
1315,-0.220,-0.180
1316,-0.235,-0.175
1317,-0.215,-0.165
1318,-0.190,-0.175
1319,-0.180,-0.180
1320,-0.180,-0.180
1321,-0.195,-0.185
1322,-0.200,-0.175
1323,-0.190,-0.165
1324,-0.170,-0.155
1325,-0.160,-0.175
1326,-0.165,-0.185
1327,-0.180,-0.200
1328,-0.175,-0.175
1329,-0.160,-0.175
1330,-0.160,-0.160
1331,-0.165,-0.170
1332,-0.175,-0.190
1333,-0.195,-0.190
1334,-0.200,-0.180
1335,-0.200,-0.165
1336,-0.195,-0.145
1337,-0.200,-0.150
1338,-0.205,-0.160
1339,-0.225,-0.170
1340,-0.230,-0.150
1341,-0.220,-0.140
1342,-0.190,-0.135
1343,-0.180,-0.155
1344,-0.185,-0.170
1345,-0.190,-0.190
1346,-0.200,-0.190
1347,-0.190,-0.195
1348,-0.180,-0.185
1349,-0.180,-0.200
1350,-0.185,-0.210
1351,-0.205,-0.235
1352,-0.210,-0.225
1353,-0.205,-0.220
1354,-0.210,-0.225
1355,-0.215,-0.235
1356,-0.220,-0.260
1357,-0.240,-0.270
1358,-0.245,-0.265
1359,-0.240,-0.255
1360,-0.220,-0.250
1361,-0.220,-0.250
1362,-0.215,-0.260
1363,-0.225,-0.260
1364,-0.230,-0.245
1365,-0.225,-0.230
1366,-0.225,-0.225
1367,-0.220,-0.220
1368,-0.225,-0.220
1369,-0.240,-0.245
1370,-0.245,-0.240
1371,-0.225,-0.225
1372,-0.220,-0.210
1373,-0.215,-0.225
1374,-0.210,-0.220
1375,-0.215,-0.230
1376,-0.235,-0.220
1377,-0.215,-0.205
1378,-0.215,-0.200
1379,-0.210,-0.195
1380,-0.215,-0.200
1381,-0.215,-0.200
1382,-0.220,-0.195
1383,-0.215,-0.190
1384,-0.205,-0.180
1385,-0.190,-0.190
1386,-0.195,-0.190
1387,-0.190,-0.200
1388,-0.205,-0.195
1389,-0.185,-0.185
1390,-0.180,-0.185
1391,-0.185,-0.180
1392,-0.190,-0.200
1393,-0.195,-0.200
1394,-0.205,-0.205
1395,-0.215,-0.195
1396,-0.205,-0.195
1397,-0.210,-0.185
1398,-0.210,-0.190
1399,-0.225,-0.195
1400,-0.215,-0.170
1401,-0.205,-0.170
1402,-0.205,-0.160
1403,-0.205,-0.155
1404,-0.220,-0.140
1405,-0.240,-0.145
1406,-0.240,-0.125
1407,-0.215,-0.125
1408,-0.200,-0.140
1409,-0.180,-0.215
1410,-0.150,-0.320
1411,-0.130,-0.425
1412,-0.080,-0.500
1413,-0.005,-0.590
1414,0.115,-0.655
1415,0.230,-0.760
1416,0.315,-0.875
1417,0.405,-0.950
1418,0.515,-0.980
1419,0.650,-0.930
1420,0.740,-0.880
1421,0.810,-0.820
1422,0.890,-0.745
1423,0.925,-0.625
1424,0.885,-0.475
1425,0.765,-0.345
1426,0.640,-0.265
1427,0.460,-0.220
1428,0.255,-0.215
1429,0.085,-0.245
1430,-0.025,-0.255
1431,-0.085,-0.260
1432,-0.135,-0.230
1433,-0.155,-0.220
1434,-0.145,-0.225
1435,-0.140,-0.225
1436,-0.130,-0.215
1437,-0.120,-0.205
1438,-0.130,-0.200
1439,-0.155,-0.200
1440,-0.170,-0.205
1441,-0.185,-0.210
1442,-0.200,-0.200
1443,-0.215,-0.205
1444,-0.200,-0.190
1445,-0.205,-0.195
1446,-0.205,-0.205
1447,-0.220,-0.205
1448,-0.225,-0.210
1449,-0.225,-0.190
1450,-0.205,-0.175
1451,-0.215,-0.185
1452,-0.215,-0.195
1453,-0.225,-0.205
1454,-0.225,-0.190
1455,-0.225,-0.180
1456,-0.215,-0.180
1457,-0.215,-0.175
1458,-0.225,-0.175
1459,-0.235,-0.190
1460,-0.250,-0.175
1461,-0.240,-0.175
1462,-0.235,-0.170
1463,-0.230,-0.160
1464,-0.235,-0.175
1465,-0.235,-0.170
1466,-0.250,-0.165
1467,-0.250,-0.160
1468,-0.255,-0.155
1469,-0.250,-0.165
1470,-0.255,-0.160
1471,-0.265,-0.175
1472,-0.270,-0.160
1473,-0.265,-0.155
1474,-0.245,-0.145
1475,-0.245,-0.150
1476,-0.240,-0.155
1477,-0.240,-0.170
1478,-0.240,-0.170
1479,-0.235,-0.185
1480,-0.225,-0.195
1481,-0.210,-0.195
1482,-0.220,-0.200
1483,-0.225,-0.215
1484,-0.220,-0.215
1485,-0.200,-0.215
1486,-0.185,-0.210
1487,-0.165,-0.225
1488,-0.165,-0.250
1489,-0.170,-0.265
1490,-0.150,-0.245
1491,-0.145,-0.245
1492,-0.135,-0.235
1493,-0.135,-0.240
1494,-0.125,-0.245
1495,-0.135,-0.265
1496,-0.135,-0.255
1497,-0.140,-0.245
1498,-0.125,-0.245
1499,-0.120,-0.240
1500,-0.130,-0.245
1501,-0.140,-0.275
1502,-0.150,-0.270
1503,-0.140,-0.260
1504,-0.115,-0.245
1505,-0.105,-0.245
1506,-0.115,-0.255
1507,-0.115,-0.260
1508,-0.125,-0.260
1509,-0.115,-0.245
1510,-0.110,-0.235
1511,-0.125,-0.235
1512,-0.140,-0.245
1513,-0.150,-0.240
1514,-0.155,-0.245
1515,-0.160,-0.230
1516,-0.170,-0.215
1517,-0.170,-0.210
1518,-0.185,-0.210
1519,-0.200,-0.215
1520,-0.220,-0.205
1521,-0.225,-0.200
1522,-0.225,-0.190
1523,-0.235,-0.185
1524,-0.240,-0.200
1525,-0.255,-0.195
1526,-0.265,-0.190
1527,-0.275,-0.185
1528,-0.270,-0.175
1529,-0.270,-0.180
1530,-0.275,-0.175
1531,-0.285,-0.175
1532,-0.290,-0.170
1533,-0.290,-0.165
1534,-0.280,-0.160
1535,-0.295,-0.165
1536,-0.295,-0.160
1537,-0.305,-0.160
1538,-0.305,-0.150
1539,-0.310,-0.125
1540,-0.290,-0.115
1541,-0.275,-0.110
1542,-0.260,-0.115
1543,-0.265,-0.135
1544,-0.250,-0.135
1545,-0.225,-0.135
1546,-0.215,-0.135
1547,-0.200,-0.165
1548,-0.190,-0.195
1549,-0.200,-0.190
1550,-0.190,-0.180
1551,-0.170,-0.175
1552,-0.155,-0.180
1553,-0.150,-0.205
1554,-0.155,-0.205
1555,-0.170,-0.215
1556,-0.165,-0.205
1557,-0.155,-0.195
1558,-0.150,-0.195
1559,-0.155,-0.195
1560,-0.160,-0.205
1561,-0.175,-0.210
1562,-0.170,-0.220
1563,-0.165,-0.200
1564,-0.170,-0.190
1565,-0.175,-0.200
1566,-0.165,-0.210
1567,-0.165,-0.210
1568,-0.180,-0.200
1569,-0.185,-0.190
1570,-0.170,-0.190
1571,-0.185,-0.195
1572,-0.190,-0.220
1573,-0.200,-0.225
1574,-0.205,-0.220
1575,-0.205,-0.200
1576,-0.215,-0.200
1577,-0.210,-0.195
1578,-0.215,-0.200
1579,-0.220,-0.220
1580,-0.230,-0.210
1581,-0.225,-0.200
1582,-0.220,-0.180
1583,-0.220,-0.190
1584,-0.225,-0.205
1585,-0.235,-0.210
1586,-0.250,-0.205
1587,-0.245,-0.185
1588,-0.240,-0.185
1589,-0.250,-0.185
1590,-0.260,-0.195
1591,-0.275,-0.205
1592,-0.290,-0.205
1593,-0.290,-0.205
1594,-0.285,-0.195
1595,-0.290,-0.205
1596,-0.300,-0.210
1597,-0.305,-0.225
1598,-0.315,-0.215
1599,-0.310,-0.210
1600,-0.310,-0.190
1601,-0.300,-0.180
1602,-0.320,-0.170
1603,-0.315,-0.170
1604,-0.320,-0.150
1605,-0.310,-0.135
1606,-0.285,-0.150
1607,-0.255,-0.225
1608,-0.210,-0.315
1609,-0.175,-0.400
1610,-0.135,-0.460
1611,-0.075,-0.505
1612,0.010,-0.550
1613,0.090,-0.615
1614,0.160,-0.705
1615,0.230,-0.825
1616,0.315,-0.900
1617,0.420,-0.945
1618,0.525,-0.925
1619,0.600,-0.885
1620,0.660,-0.830
1621,0.715,-0.750
1622,0.725,-0.610
1623,0.700,-0.455
1624,0.620,-0.320
1625,0.500,-0.255
1626,0.325,-0.235
1627,0.135,-0.255
1628,-0.020,-0.265
1629,-0.095,-0.265
1630,-0.135,-0.240
1631,-0.175,-0.225
1632,-0.210,-0.220
1633,-0.220,-0.210
1634,-0.215,-0.185
1635,-0.205,-0.175
1636,-0.215,-0.180
1637,-0.225,-0.185
1638,-0.250,-0.180
1639,-0.265,-0.185
1640,-0.275,-0.175
1641,-0.275,-0.170
1642,-0.280,-0.155
1643,-0.270,-0.160
1644,-0.285,-0.160
1645,-0.295,-0.170
1646,-0.300,-0.160
1647,-0.300,-0.155
1648,-0.295,-0.150
1649,-0.300,-0.170
1650,-0.320,-0.175
1651,-0.320,-0.190
1652,-0.315,-0.185
1653,-0.300,-0.160
1654,-0.300,-0.165
1655,-0.310,-0.180
1656,-0.310,-0.185
1657,-0.330,-0.195
1658,-0.320,-0.195
1659,-0.315,-0.175
1660,-0.315,-0.180
1661,-0.315,-0.195
1662,-0.320,-0.215
1663,-0.325,-0.235
1664,-0.315,-0.225
1665,-0.320,-0.215
1666,-0.300,-0.220
1667,-0.290,-0.220
1668,-0.300,-0.245
1669,-0.310,-0.255
1670,-0.315,-0.240
1671,-0.300,-0.235
1672,-0.290,-0.240
1673,-0.300,-0.240
1674,-0.295,-0.245
1675,-0.290,-0.255
1676,-0.280,-0.240
1677,-0.255,-0.245
1678,-0.230,-0.230
1679,-0.225,-0.240
1680,-0.235,-0.260
1681,-0.245,-0.270
1682,-0.235,-0.250
1683,-0.220,-0.245
1684,-0.215,-0.245
1685,-0.215,-0.240
1686,-0.225,-0.240
1687,-0.225,-0.250
1688,-0.210,-0.230
1689,-0.200,-0.220
1690,-0.195,-0.225
1691,-0.190,-0.235
1692,-0.195,-0.245
1693,-0.190,-0.260
1694,-0.195,-0.245
1695,-0.190,-0.220
1696,-0.170,-0.215
1697,-0.175,-0.225
1698,-0.165,-0.235
1699,-0.160,-0.245
1700,-0.150,-0.240
1701,-0.130,-0.220
1702,-0.130,-0.215
1703,-0.135,-0.215
1704,-0.130,-0.220
1705,-0.135,-0.210
1706,-0.140,-0.200
1707,-0.125,-0.200
1708,-0.115,-0.185
1709,-0.120,-0.200
1710,-0.135,-0.190
1711,-0.150,-0.200
1712,-0.160,-0.195
1713,-0.160,-0.190
1714,-0.165,-0.185
1715,-0.175,-0.175
1716,-0.200,-0.200
1717,-0.210,-0.205
1718,-0.225,-0.190
1719,-0.215,-0.185
1720,-0.210,-0.185
1721,-0.215,-0.190
1722,-0.245,-0.205
1723,-0.260,-0.215
1724,-0.260,-0.210
1725,-0.275,-0.200
1726,-0.265,-0.200
1727,-0.275,-0.215
1728,-0.285,-0.230
1729,-0.295,-0.250
1730,-0.300,-0.235
1731,-0.295,-0.220
1732,-0.285,-0.215
1733,-0.290,-0.225
1734,-0.290,-0.245
1735,-0.295,-0.260
1736,-0.285,-0.255
1737,-0.280,-0.235
1738,-0.260,-0.200
1739,-0.270,-0.185
1740,-0.270,-0.195
1741,-0.285,-0.215
1742,-0.285,-0.210
1743,-0.275,-0.205
1744,-0.270,-0.200
1745,-0.275,-0.195
1746,-0.285,-0.195
1747,-0.300,-0.215
1748,-0.300,-0.205
1749,-0.290,-0.195
1750,-0.275,-0.185
1751,-0.285,-0.185
1752,-0.290,-0.190
1753,-0.295,-0.195
1754,-0.285,-0.190
1755,-0.270,-0.170
1756,-0.265,-0.160
1757,-0.275,-0.160
1758,-0.275,-0.155
1759,-0.280,-0.165
1760,-0.275,-0.150
1761,-0.275,-0.150
1762,-0.260,-0.150
1763,-0.260,-0.160
1764,-0.275,-0.180
1765,-0.290,-0.185
1766,-0.275,-0.165
1767,-0.260,-0.145
1768,-0.255,-0.150
1769,-0.255,-0.150
1770,-0.265,-0.145
1771,-0.270,-0.145
1772,-0.260,-0.135
1773,-0.270,-0.120
1774,-0.265,-0.110
1775,-0.260,-0.115
1776,-0.280,-0.125
1777,-0.295,-0.135
1778,-0.275,-0.130
1779,-0.265,-0.105
1780,-0.255,-0.105
1781,-0.260,-0.120
1782,-0.280,-0.145
1783,-0.300,-0.140
1784,-0.295,-0.145
1785,-0.290,-0.135
1786,-0.280,-0.155
1787,-0.290,-0.155
1788,-0.295,-0.175
1789,-0.305,-0.205
1790,-0.295,-0.205
1791,-0.295,-0.205
1792,-0.275,-0.195
1793,-0.285,-0.200
1794,-0.290,-0.225
1795,-0.295,-0.250
1796,-0.295,-0.245
1797,-0.280,-0.235
1798,-0.280,-0.220
1799,-0.280,-0.225
1800,-0.280,-0.230
1801,-0.280,-0.250
1802,-0.285,-0.235
1803,-0.265,-0.220
1804,-0.255,-0.220
1805,-0.265,-0.225
1806,-0.275,-0.240
1807,-0.290,-0.245
1808,-0.305,-0.235
1809,-0.285,-0.200
1810,-0.280,-0.185
1811,-0.280,-0.195
1812,-0.285,-0.210
1813,-0.290,-0.230
1814,-0.305,-0.235
1815,-0.290,-0.230
1816,-0.275,-0.225
1817,-0.275,-0.225
1818,-0.280,-0.220
1819,-0.285,-0.230
1820,-0.290,-0.230
1821,-0.290,-0.220
1822,-0.270,-0.220
1823,-0.280,-0.225
1824,-0.275,-0.220
1825,-0.285,-0.220
1826,-0.290,-0.215
1827,-0.275,-0.195
1828,-0.265,-0.180
1829,-0.275,-0.180
1830,-0.265,-0.175
1831,-0.270,-0.180
1832,-0.270,-0.175
1833,-0.265,-0.165
1834,-0.260,-0.175
1835,-0.270,-0.165
1836,-0.270,-0.175
1837,-0.285,-0.175
1838,-0.295,-0.165
1839,-0.290,-0.160
1840,-0.290,-0.165
1841,-0.290,-0.150
1842,-0.300,-0.160
1843,-0.305,-0.165
1844,-0.310,-0.165
1845,-0.310,-0.175
1846,-0.310,-0.165
1847,-0.310,-0.170
1848,-0.305,-0.180
1849,-0.315,-0.175
1850,-0.315,-0.170
1851,-0.315,-0.165
1852,-0.310,-0.160
1853,-0.310,-0.155
1854,-0.320,-0.170
1855,-0.320,-0.190
1856,-0.325,-0.185
1857,-0.320,-0.160
1858,-0.315,-0.165
1859,-0.325,-0.175
1860,-0.320,-0.200
1861,-0.335,-0.210
1862,-0.320,-0.200
1863,-0.300,-0.190
1864,-0.290,-0.185
1865,-0.280,-0.185
1866,-0.255,-0.200
1867,-0.270,-0.215
1868,-0.265,-0.220
1869,-0.265,-0.225
1870,-0.255,-0.235
1871,-0.270,-0.235
1872,-0.270,-0.255
1873,-0.285,-0.270
1874,-0.280,-0.255
1875,-0.275,-0.250
1876,-0.270,-0.245
1877,-0.280,-0.250
1878,-0.285,-0.255
1879,-0.290,-0.265
1880,-0.300,-0.275
1881,-0.300,-0.260
1882,-0.300,-0.255
1883,-0.295,-0.250
1884,-0.295,-0.265
1885,-0.300,-0.265
1886,-0.315,-0.250
1887,-0.305,-0.240
1888,-0.300,-0.230
1889,-0.285,-0.225
1890,-0.290,-0.225
1891,-0.295,-0.235
1892,-0.310,-0.235
1893,-0.300,-0.230
1894,-0.290,-0.225
1895,-0.290,-0.225
1896,-0.295,-0.240
1897,-0.300,-0.230
1898,-0.300,-0.225
1899,-0.300,-0.205
1900,-0.300,-0.195
1901,-0.310,-0.200
1902,-0.305,-0.210
1903,-0.315,-0.220
1904,-0.315,-0.210
1905,-0.315,-0.205
1906,-0.310,-0.195
1907,-0.300,-0.200
1908,-0.305,-0.215
1909,-0.310,-0.215
1910,-0.310,-0.210
1911,-0.295,-0.190
1912,-0.295,-0.175
1913,-0.295,-0.180
1914,-0.295,-0.190
1915,-0.300,-0.190
1916,-0.290,-0.180
1917,-0.285,-0.175
1918,-0.270,-0.165
1919,-0.275,-0.165
1920,-0.270,-0.170
1921,-0.280,-0.180
1922,-0.275,-0.180
1923,-0.270,-0.180
1924,-0.275,-0.155
1925,-0.285,-0.160
1926,-0.275,-0.160
1927,-0.275,-0.180
1928,-0.270,-0.195
1929,-0.270,-0.205
1930,-0.265,-0.195
1931,-0.270,-0.190
1932,-0.265,-0.195
1933,-0.260,-0.195
1934,-0.255,-0.210
1935,-0.230,-0.210
1936,-0.220,-0.220
1937,-0.225,-0.225
1938,-0.240,-0.240
1939,-0.245,-0.250
1940,-0.240,-0.245
1941,-0.245,-0.240
1942,-0.235,-0.240
1943,-0.230,-0.225
1944,-0.225,-0.245
1945,-0.220,-0.260
1946,-0.225,-0.240
1947,-0.205,-0.215
1948,-0.200,-0.205
1949,-0.200,-0.205
1950,-0.190,-0.215
1951,-0.180,-0.250
1952,-0.140,-0.290
1953,-0.125,-0.380
1954,-0.110,-0.470
1955,-0.080,-0.540
1956,-0.045,-0.625
1957,0.030,-0.690
1958,0.125,-0.775
1959,0.245,-0.855
1960,0.350,-0.950
1961,0.465,-0.985
1962,0.565,-0.980
1963,0.660,-0.925
1964,0.740,-0.845
1965,0.820,-0.770
1966,0.885,-0.660
1967,0.875,-0.525
1968,0.750,-0.395
1969,0.580,-0.295
1970,0.370,-0.200
1971,0.165,-0.160
1972,-0.005,-0.165
1973,-0.125,-0.225
1974,-0.205,-0.275
1975,-0.270,-0.295
1976,-0.290,-0.275
1977,-0.285,-0.240
1978,-0.245,-0.230
1979,-0.220,-0.225
1980,-0.220,-0.225
1981,-0.230,-0.220
1982,-0.245,-0.205
1983,-0.245,-0.190
1984,-0.260,-0.180
1985,-0.260,-0.180
1986,-0.290,-0.190
1987,-0.285,-0.195
1988,-0.305,-0.185
1989,-0.300,-0.170
1990,-0.300,-0.180
1991,-0.315,-0.175
1992,-0.335,-0.190
1993,-0.335,-0.190
1994,-0.350,-0.190
1995,-0.360,-0.175
1996,-0.355,-0.160
1997,-0.370,-0.145
1998,-0.370,-0.165
1999,-0.360,-0.165
2000,-0.335,-0.155
2001,-0.300,-0.160
2002,-0.285,-0.160
2003,-0.280,-0.175
2004,-0.275,-0.190
2005,-0.285,-0.205
2006,-0.295,-0.210
2007,-0.290,-0.235
2008,-0.285,-0.255
2009,-0.275,-0.285
2010,-0.285,-0.305
2011,-0.285,-0.320
2012,-0.280,-0.310
2013,-0.285,-0.295
2014,-0.275,-0.295
2015,-0.280,-0.290
2016,-0.270,-0.290
2017,-0.265,-0.305
2018,-0.255,-0.305
2019,-0.250,-0.295
2020,-0.240,-0.290
2021,-0.235,-0.295
2022,-0.245,-0.315
2023,-0.250,-0.320
2024,-0.245,-0.295
2025,-0.230,-0.295
2026,-0.205,-0.280
2027,-0.205,-0.290
2028,-0.200,-0.305
2029,-0.210,-0.315
2030,-0.205,-0.305
2031,-0.205,-0.300
2032,-0.200,-0.290
2033,-0.205,-0.295
2034,-0.210,-0.295
2035,-0.205,-0.310
2036,-0.215,-0.300
2037,-0.205,-0.295
2038,-0.180,-0.285
2039,-0.175,-0.290
2040,-0.180,-0.285
2041,-0.180,-0.280
2042,-0.175,-0.275
2043,-0.170,-0.265
2044,-0.165,-0.270
2045,-0.175,-0.290
2046,-0.180,-0.295
2047,-0.190,-0.310
2048,-0.180,-0.295
2049,-0.160,-0.285
2050,-0.155,-0.280
2051,-0.155,-0.290
2052,-0.150,-0.295
2053,-0.150,-0.310
2054,-0.140,-0.315
2055,-0.135,-0.305
2056,-0.130,-0.295
2057,-0.125,-0.285
2058,-0.140,-0.290
2059,-0.150,-0.295
2060,-0.155,-0.275
2061,-0.150,-0.270
2062,-0.155,-0.250
2063,-0.155,-0.250
2064,-0.165,-0.240
2065,-0.170,-0.240
2066,-0.165,-0.230
2067,-0.140,-0.235
2068,-0.140,-0.260
2069,-0.140,-0.280
2070,-0.150,-0.300
2071,-0.170,-0.315
2072,-0.160,-0.310
2073,-0.175,-0.285
2074,-0.170,-0.280
2075,-0.175,-0.280
2076,-0.190,-0.295
2077,-0.205,-0.295
2078,-0.220,-0.285
2079,-0.210,-0.280
2080,-0.200,-0.270
2081,-0.200,-0.270
2082,-0.210,-0.280
2083,-0.215,-0.270
2084,-0.220,-0.265
2085,-0.210,-0.240
2086,-0.205,-0.235
2087,-0.200,-0.225
2088,-0.215,-0.245
2089,-0.210,-0.240
2090,-0.210,-0.225
2091,-0.200,-0.205
2092,-0.200,-0.210
2093,-0.205,-0.210
2094,-0.215,-0.215
2095,-0.220,-0.220
2096,-0.225,-0.215
2097,-0.225,-0.195
2098,-0.215,-0.190
2099,-0.225,-0.200
2100,-0.230,-0.195
2101,-0.245,-0.190
2102,-0.235,-0.170
2103,-0.225,-0.160
2104,-0.225,-0.160
2105,-0.230,-0.175
2106,-0.230,-0.195
2107,-0.230,-0.190
2108,-0.220,-0.175
2109,-0.215,-0.165
2110,-0.205,-0.155
2111,-0.210,-0.165
2112,-0.220,-0.175
2113,-0.230,-0.195
2114,-0.245,-0.200
2115,-0.235,-0.200
2116,-0.240,-0.200
2117,-0.255,-0.190
2118,-0.265,-0.190
2119,-0.280,-0.195
2120,-0.285,-0.195
2121,-0.280,-0.195
2122,-0.275,-0.185
2123,-0.280,-0.190
2124,-0.275,-0.205
2125,-0.275,-0.205
2126,-0.265,-0.205
2127,-0.255,-0.200
2128,-0.250,-0.195
2129,-0.255,-0.200
2130,-0.260,-0.220
2131,-0.265,-0.225
2132,-0.260,-0.240
2133,-0.245,-0.240
2134,-0.250,-0.240
2135,-0.240,-0.230
2136,-0.245,-0.225
2137,-0.255,-0.215
2138,-0.265,-0.210
2139,-0.240,-0.220
2140,-0.240,-0.240
2141,-0.240,-0.245
2142,-0.235,-0.250
2143,-0.240,-0.260
2144,-0.240,-0.245
2145,-0.245,-0.235
2146,-0.240,-0.240
2147,-0.245,-0.235
2148,-0.255,-0.245
2149,-0.260,-0.250
2150,-0.260,-0.225
2151,-0.255,-0.220
2152,-0.245,-0.200
2153,-0.245,-0.195
2154,-0.240,-0.200
2155,-0.255,-0.200
2156,-0.265,-0.180
2157,-0.260,-0.160
2158,-0.265,-0.145
2159,-0.255,-0.150
2160,-0.260,-0.150
2161,-0.260,-0.160
2162,-0.270,-0.185
2163,-0.260,-0.190
2164,-0.260,-0.190
2165,-0.265,-0.190
2166,-0.275,-0.195
2167,-0.295,-0.195
2168,-0.300,-0.195
2169,-0.295,-0.185
2170,-0.285,-0.180
2171,-0.290,-0.185
2172,-0.295,-0.200
2173,-0.325,-0.200
2174,-0.330,-0.180
2175,-0.325,-0.170
2176,-0.320,-0.160
2177,-0.320,-0.155
2178,-0.310,-0.165
2179,-0.330,-0.180
2180,-0.335,-0.170
2181,-0.305,-0.160
2182,-0.285,-0.170
2183,-0.270,-0.175
2184,-0.275,-0.195
2185,-0.290,-0.210
2186,-0.285,-0.185
2187,-0.275,-0.185
2188,-0.265,-0.175
2189,-0.260,-0.190
2190,-0.265,-0.200
2191,-0.275,-0.215
2192,-0.270,-0.200
2193,-0.260,-0.190
2194,-0.250,-0.190
2195,-0.245,-0.210
2196,-0.245,-0.210
2197,-0.255,-0.230
2198,-0.240,-0.220
2199,-0.235,-0.210
2200,-0.230,-0.205
2201,-0.235,-0.210
2202,-0.240,-0.205
2203,-0.245,-0.210
2204,-0.245,-0.205
2205,-0.235,-0.195
2206,-0.225,-0.185
2207,-0.235,-0.190
2208,-0.240,-0.185
2209,-0.245,-0.200
2210,-0.250,-0.180
2211,-0.235,-0.170
2212,-0.225,-0.180
2213,-0.230,-0.195
2214,-0.235,-0.215
2215,-0.235,-0.210
2216,-0.235,-0.195
2217,-0.240,-0.170
2218,-0.240,-0.155
2219,-0.235,-0.160
2220,-0.230,-0.150
2221,-0.235,-0.150
2222,-0.220,-0.150
2223,-0.215,-0.150
2224,-0.190,-0.185
2225,-0.165,-0.290
2226,-0.150,-0.410
2227,-0.130,-0.515
2228,-0.085,-0.600
2229,0.020,-0.675
2230,0.145,-0.775
2231,0.255,-0.880
2232,0.365,-0.960
2233,0.475,-0.955
2234,0.595,-0.880
2235,0.705,-0.780
2236,0.810,-0.680
2237,0.865,-0.570
2238,0.860,-0.425
2239,0.755,-0.310
2240,0.575,-0.215
2241,0.360,-0.125
2242,0.155,-0.085
2243,-0.025,-0.110
2244,-0.165,-0.170
2245,-0.270,-0.220
2246,-0.310,-0.230
2247,-0.300,-0.210
2248,-0.260,-0.195
2249,-0.205,-0.200
2250,-0.190,-0.215
2251,-0.195,-0.220
2252,-0.215,-0.215
2253,-0.220,-0.210
2254,-0.215,-0.195
2255,-0.225,-0.195
2256,-0.235,-0.210
2257,-0.245,-0.205
2258,-0.255,-0.190
2259,-0.240,-0.180
2260,-0.230,-0.190
2261,-0.240,-0.190
2262,-0.255,-0.210
2263,-0.260,-0.215
2264,-0.275,-0.225
2265,-0.265,-0.215
2266,-0.255,-0.205
2267,-0.250,-0.205
2268,-0.265,-0.210
2269,-0.275,-0.235
2270,-0.280,-0.225
2271,-0.270,-0.210
2272,-0.265,-0.215
2273,-0.275,-0.215
2274,-0.285,-0.240
2275,-0.300,-0.240
2276,-0.295,-0.240
2277,-0.280,-0.235
2278,-0.275,-0.220
2279,-0.275,-0.220
2280,-0.275,-0.235
2281,-0.290,-0.240
2282,-0.280,-0.235
2283,-0.275,-0.220
2284,-0.265,-0.205
2285,-0.270,-0.220
2286,-0.275,-0.235
2287,-0.285,-0.240
2288,-0.280,-0.235
2289,-0.270,-0.225
2290,-0.260,-0.235
2291,-0.260,-0.235
2292,-0.260,-0.240
2293,-0.270,-0.245
2294,-0.265,-0.225
2295,-0.250,-0.215
2296,-0.235,-0.205
2297,-0.240,-0.200
2298,-0.235,-0.210
2299,-0.240,-0.195
2300,-0.220,-0.180
2301,-0.210,-0.175
2302,-0.195,-0.180
2303,-0.190,-0.180
2304,-0.185,-0.205
2305,-0.185,-0.215
2306,-0.175,-0.205
2307,-0.165,-0.210
2308,-0.145,-0.210
2309,-0.150,-0.220
2310,-0.145,-0.235
2311,-0.150,-0.250
2312,-0.140,-0.250
2313,-0.130,-0.270
2314,-0.135,-0.275
2315,-0.130,-0.300
2316,-0.135,-0.310
2317,-0.140,-0.320
2318,-0.130,-0.305
2319,-0.120,-0.290
2320,-0.110,-0.305
2321,-0.120,-0.305
2322,-0.130,-0.300
2323,-0.135,-0.305
2324,-0.140,-0.290
2325,-0.140,-0.270
2326,-0.130,-0.265
2327,-0.140,-0.260
2328,-0.155,-0.265
2329,-0.165,-0.275
2330,-0.175,-0.255
2331,-0.180,-0.240
2332,-0.180,-0.240
2333,-0.190,-0.230
2334,-0.200,-0.250
2335,-0.215,-0.250
2336,-0.225,-0.240
2337,-0.225,-0.235
2338,-0.225,-0.240
2339,-0.230,-0.250
2340,-0.245,-0.260
2341,-0.260,-0.270
2342,-0.260,-0.250
2343,-0.250,-0.235
2344,-0.250,-0.240
2345,-0.265,-0.230
2346,-0.275,-0.230
2347,-0.285,-0.230
2348,-0.280,-0.220
2349,-0.265,-0.205
2350,-0.270,-0.220
2351,-0.270,-0.215
2352,-0.290,-0.240
2353,-0.295,-0.235
2354,-0.300,-0.225
2355,-0.295,-0.220
2356,-0.300,-0.210
2357,-0.295,-0.200
2358,-0.305,-0.200
2359,-0.300,-0.215
2360,-0.300,-0.195
2361,-0.295,-0.175
2362,-0.275,-0.165
2363,-0.280,-0.155
2364,-0.280,-0.155
2365,-0.280,-0.150
2366,-0.280,-0.145
2367,-0.275,-0.140
2368,-0.265,-0.145
2369,-0.275,-0.125
2370,-0.270,-0.135
2371,-0.285,-0.130
2372,-0.285,-0.115
2373,-0.280,-0.105
2374,-0.270,-0.110
2375,-0.260,-0.115
2376,-0.255,-0.130
2377,-0.250,-0.140
2378,-0.250,-0.150
2379,-0.235,-0.145
2380,-0.235,-0.150
2381,-0.240,-0.160
2382,-0.240,-0.170
2383,-0.260,-0.190
2384,-0.260,-0.185
2385,-0.240,-0.205
2386,-0.245,-0.205
2387,-0.245,-0.230
2388,-0.255,-0.240
2389,-0.255,-0.240
2390,-0.265,-0.240
2391,-0.255,-0.225
2392,-0.250,-0.225
2393,-0.255,-0.220
2394,-0.250,-0.235
2395,-0.260,-0.235
2396,-0.260,-0.220
2397,-0.265,-0.220
2398,-0.260,-0.215
2399,-0.265,-0.215
2400,-0.275,-0.215
2401,-0.280,-0.225
2402,-0.280,-0.230
2403,-0.270,-0.220
2404,-0.265,-0.210
2405,-0.270,-0.220
2406,-0.280,-0.215
2407,-0.280,-0.215
2408,-0.285,-0.200
2409,-0.280,-0.210
2410,-0.275,-0.210
2411,-0.280,-0.230
2412,-0.285,-0.245
2413,-0.305,-0.250
2414,-0.310,-0.235
2415,-0.300,-0.225
2416,-0.290,-0.205
2417,-0.290,-0.200
2418,-0.290,-0.210
2419,-0.290,-0.210
2420,-0.310,-0.205
2421,-0.290,-0.190
2422,-0.290,-0.185
2423,-0.295,-0.170
2424,-0.305,-0.185
2425,-0.310,-0.190
2426,-0.305,-0.185
2427,-0.310,-0.170
2428,-0.300,-0.160
2429,-0.305,-0.165
2430,-0.310,-0.175
2431,-0.320,-0.175
2432,-0.330,-0.160
2433,-0.320,-0.155
2434,-0.310,-0.160
2435,-0.305,-0.155
2436,-0.320,-0.160
2437,-0.340,-0.160
2438,-0.350,-0.150
2439,-0.340,-0.140
2440,-0.325,-0.130
2441,-0.335,-0.110
2442,-0.325,-0.125
2443,-0.315,-0.125
2444,-0.295,-0.135
2445,-0.250,-0.130
2446,-0.225,-0.130
2447,-0.220,-0.145
2448,-0.225,-0.165
2449,-0.240,-0.175
2450,-0.240,-0.160
2451,-0.235,-0.165
2452,-0.220,-0.165
2453,-0.230,-0.190
2454,-0.230,-0.210
2455,-0.240,-0.225
2456,-0.240,-0.225
2457,-0.230,-0.210
2458,-0.225,-0.215
2459,-0.220,-0.220
2460,-0.245,-0.230
2461,-0.240,-0.240
2462,-0.255,-0.225
2463,-0.245,-0.215
2464,-0.235,-0.215
2465,-0.245,-0.210
2466,-0.255,-0.215
2467,-0.255,-0.220
2468,-0.265,-0.210
2469,-0.255,-0.200
2470,-0.260,-0.190
2471,-0.265,-0.200
2472,-0.275,-0.210
2473,-0.280,-0.205
2474,-0.270,-0.205
2475,-0.270,-0.200
2476,-0.255,-0.200
2477,-0.250,-0.205
2478,-0.240,-0.190
2479,-0.245,-0.185
2480,-0.235,-0.155
2481,-0.240,-0.135
2482,-0.215,-0.145
2483,-0.190,-0.205
2484,-0.155,-0.305
2485,-0.145,-0.390
2486,-0.110,-0.485
2487,-0.045,-0.550
2488,0.060,-0.635
2489,0.165,-0.745
2490,0.260,-0.875
2491,0.350,-0.975
2492,0.470,-0.990
2493,0.590,-0.945
2494,0.670,-0.875
2495,0.725,-0.810
2496,0.755,-0.735
2497,0.750,-0.590
2498,0.680,-0.415
2499,0.560,-0.265
2500,0.425,-0.190
2501,0.235,-0.185
2502,0.040,-0.220
2503,-0.095,-0.245
2504,-0.150,-0.235
2505,-0.165,-0.210
2506,-0.170,-0.195
2507,-0.170,-0.205
2508,-0.180,-0.200
2509,-0.175,-0.210
2510,-0.195,-0.185
2511,-0.200,-0.175
2512,-0.205,-0.170
2513,-0.230,-0.195
2514,-0.250,-0.205
2515,-0.270,-0.235
2516,-0.270,-0.215
2517,-0.265,-0.210
2518,-0.265,-0.205
2519,-0.285,-0.205
2520,-0.300,-0.220
2521,-0.305,-0.210
2522,-0.305,-0.200
2523,-0.295,-0.195
2524,-0.280,-0.190
2525,-0.290,-0.180
2526,-0.290,-0.185
2527,-0.295,-0.200
2528,-0.295,-0.205
2529,-0.295,-0.205
2530,-0.285,-0.190
2531,-0.275,-0.195
2532,-0.270,-0.200
2533,-0.285,-0.205
2534,-0.290,-0.195
2535,-0.285,-0.185
2536,-0.275,-0.175
2537,-0.285,-0.175
2538,-0.280,-0.170
2539,-0.280,-0.175
2540,-0.280,-0.175
2541,-0.275,-0.165
2542,-0.270,-0.145
2543,-0.275,-0.145
2544,-0.285,-0.140
2545,-0.295,-0.155
2546,-0.290,-0.155
2547,-0.280,-0.135
2548,-0.275,-0.140
2549,-0.275,-0.165
2550,-0.280,-0.180
2551,-0.285,-0.185
2552,-0.280,-0.205
2553,-0.275,-0.200
2554,-0.265,-0.210
2555,-0.255,-0.235
2556,-0.265,-0.250
2557,-0.255,-0.255
2558,-0.235,-0.265
2559,-0.210,-0.245
2560,-0.195,-0.245
2561,-0.190,-0.265
2562,-0.180,-0.285
2563,-0.185,-0.300
2564,-0.185,-0.290
2565,-0.165,-0.270
2566,-0.155,-0.275
2567,-0.160,-0.270
2568,-0.170,-0.285
2569,-0.175,-0.295
2570,-0.165,-0.285
2571,-0.155,-0.275
2572,-0.145,-0.265
2573,-0.145,-0.255
2574,-0.140,-0.260
2575,-0.140,-0.250
2576,-0.140,-0.225
2577,-0.135,-0.235
2578,-0.125,-0.230
2579,-0.130,-0.230
2580,-0.140,-0.235
2581,-0.165,-0.235
2582,-0.175,-0.225
2583,-0.175,-0.215
2584,-0.180,-0.210
2585,-0.200,-0.210
2586,-0.215,-0.210
2587,-0.230,-0.215
2588,-0.240,-0.185
2589,-0.235,-0.175
2590,-0.235,-0.165
2591,-0.250,-0.160
2592,-0.270,-0.160
2593,-0.270,-0.155
2594,-0.265,-0.145
2595,-0.270,-0.145
2596,-0.275,-0.145
2597,-0.290,-0.155
2598,-0.295,-0.155
2599,-0.290,-0.165
2600,-0.295,-0.160
2601,-0.285,-0.135
2602,-0.275,-0.135
2603,-0.285,-0.130
2604,-0.285,-0.135
2605,-0.295,-0.145
2606,-0.290,-0.145
2607,-0.280,-0.135
2608,-0.280,-0.145
2609,-0.285,-0.150
2610,-0.290,-0.150
2611,-0.290,-0.170
2612,-0.295,-0.160
2613,-0.295,-0.160
2614,-0.290,-0.175
2615,-0.285,-0.180
2616,-0.275,-0.195
2617,-0.275,-0.185
2618,-0.260,-0.195
2619,-0.250,-0.195
2620,-0.235,-0.210
2621,-0.235,-0.215
2622,-0.240,-0.215
2623,-0.240,-0.230
2624,-0.255,-0.225
2625,-0.245,-0.215
2626,-0.245,-0.210
2627,-0.250,-0.210
2628,-0.250,-0.215
2629,-0.245,-0.225
2630,-0.245,-0.210
2631,-0.240,-0.200
2632,-0.235,-0.200
2633,-0.250,-0.205
2634,-0.245,-0.205
2635,-0.255,-0.215
2636,-0.255,-0.215
2637,-0.255,-0.215
2638,-0.250,-0.205
2639,-0.260,-0.210
2640,-0.265,-0.230
2641,-0.270,-0.230
2642,-0.270,-0.220
2643,-0.270,-0.210
2644,-0.270,-0.195
2645,-0.270,-0.185
2646,-0.270,-0.205
2647,-0.270,-0.195
2648,-0.290,-0.175
2649,-0.290,-0.165
2650,-0.270,-0.165
2651,-0.270,-0.155
2652,-0.290,-0.165
2653,-0.285,-0.160
2654,-0.285,-0.150
2655,-0.285,-0.145
2656,-0.280,-0.150
2657,-0.285,-0.165
2658,-0.285,-0.165
2659,-0.295,-0.170
2660,-0.290,-0.160
2661,-0.290,-0.135
2662,-0.285,-0.140
2663,-0.295,-0.130
2664,-0.295,-0.140
2665,-0.305,-0.145
2666,-0.300,-0.145
2667,-0.305,-0.130
2668,-0.295,-0.135
2669,-0.295,-0.150
2670,-0.300,-0.160
2671,-0.315,-0.170
2672,-0.315,-0.170
2673,-0.320,-0.165
2674,-0.310,-0.175
2675,-0.300,-0.170
2676,-0.310,-0.160
2677,-0.305,-0.165
2678,-0.290,-0.160
2679,-0.275,-0.170
2680,-0.265,-0.170
2681,-0.270,-0.190
2682,-0.275,-0.200
2683,-0.280,-0.200
2684,-0.285,-0.215
2685,-0.280,-0.205
2686,-0.275,-0.225
2687,-0.285,-0.235
2688,-0.285,-0.245
2689,-0.290,-0.260
2690,-0.290,-0.240
2691,-0.290,-0.225
2692,-0.280,-0.225
2693,-0.280,-0.225
2694,-0.290,-0.230
2695,-0.305,-0.235
2696,-0.310,-0.240
2697,-0.295,-0.235
2698,-0.280,-0.240
2699,-0.285,-0.240
2700,-0.295,-0.245
2701,-0.300,-0.240
2702,-0.300,-0.220
2703,-0.305,-0.200
2704,-0.290,-0.170
2705,-0.295,-0.155
2706,-0.270,-0.145
2707,-0.265,-0.165
2708,-0.235,-0.190
2709,-0.200,-0.260
2710,-0.180,-0.355
2711,-0.165,-0.430
2712,-0.135,-0.520
2713,-0.070,-0.580
2714,0.020,-0.665
2715,0.130,-0.765
2716,0.235,-0.885
2717,0.350,-0.980
2718,0.485,-0.990
2719,0.585,-0.930
2720,0.680,-0.830
2721,0.760,-0.715
2722,0.815,-0.540
2723,0.760,-0.365
2724,0.605,-0.255
2725,0.400,-0.165
2726,0.160,-0.120
2727,-0.040,-0.130
2728,-0.165,-0.175
2729,-0.235,-0.185
2730,-0.285,-0.195
2731,-0.295,-0.190
2732,-0.285,-0.180
2733,-0.250,-0.160
2734,-0.235,-0.160
2735,-0.240,-0.150
2736,-0.265,-0.170
2737,-0.295,-0.180
2738,-0.300,-0.170
2739,-0.295,-0.175
2740,-0.270,-0.180
2741,-0.265,-0.190
2742,-0.265,-0.205
2743,-0.275,-0.220
2744,-0.280,-0.205
2745,-0.270,-0.205
2746,-0.270,-0.215
2747,-0.275,-0.225
2748,-0.280,-0.235
2749,-0.300,-0.245
2750,-0.300,-0.245
2751,-0.310,-0.245
2752,-0.300,-0.250
2753,-0.310,-0.260
2754,-0.320,-0.275
2755,-0.340,-0.280
2756,-0.340,-0.275
2757,-0.325,-0.255
2758,-0.315,-0.255
2759,-0.320,-0.265
2760,-0.320,-0.275
2761,-0.315,-0.275
2762,-0.310,-0.275
2763,-0.295,-0.255
2764,-0.285,-0.245
2765,-0.290,-0.255
2766,-0.295,-0.265
2767,-0.300,-0.255
2768,-0.295,-0.260
2769,-0.290,-0.240
2770,-0.280,-0.240
2771,-0.290,-0.245
2772,-0.290,-0.250
2773,-0.300,-0.265
2774,-0.280,-0.255
2775,-0.275,-0.240
2776,-0.265,-0.240
2777,-0.265,-0.240
2778,-0.265,-0.255
2779,-0.265,-0.265
2780,-0.260,-0.245
2781,-0.250,-0.240
2782,-0.240,-0.225
2783,-0.255,-0.245
2784,-0.255,-0.250
2785,-0.245,-0.265
2786,-0.240,-0.265
2787,-0.230,-0.245
2788,-0.220,-0.260
2789,-0.215,-0.255
2790,-0.215,-0.255
2791,-0.205,-0.260
2792,-0.200,-0.245
2793,-0.195,-0.245
2794,-0.180,-0.250
2795,-0.165,-0.250
2796,-0.150,-0.245
2797,-0.145,-0.265
2798,-0.130,-0.270
2799,-0.110,-0.250
2800,-0.105,-0.250
2801,-0.100,-0.260
2802,-0.110,-0.280
2803,-0.125,-0.280
2804,-0.140,-0.270
2805,-0.125,-0.260
2806,-0.130,-0.265
2807,-0.130,-0.265
2808,-0.145,-0.260
2809,-0.160,-0.265
2810,-0.175,-0.250
2811,-0.175,-0.245
2812,-0.170,-0.245
2813,-0.190,-0.245
2814,-0.220,-0.250
2815,-0.240,-0.250
2816,-0.245,-0.245
2817,-0.245,-0.235
2818,-0.250,-0.230
2819,-0.255,-0.225
2820,-0.270,-0.230
2821,-0.295,-0.255
2822,-0.295,-0.245
2823,-0.285,-0.235
2824,-0.270,-0.220
2825,-0.275,-0.220
2826,-0.280,-0.225
2827,-0.290,-0.235
2828,-0.300,-0.230
2829,-0.280,-0.210
2830,-0.280,-0.205
2831,-0.280,-0.210
2832,-0.290,-0.210
2833,-0.305,-0.220
2834,-0.305,-0.220
2835,-0.300,-0.190
2836,-0.290,-0.195
2837,-0.295,-0.195
2838,-0.300,-0.210
2839,-0.305,-0.225
2840,-0.310,-0.200
2841,-0.310,-0.195
2842,-0.300,-0.190
2843,-0.305,-0.195
2844,-0.310,-0.200
2845,-0.330,-0.205
2846,-0.335,-0.195
2847,-0.325,-0.190
2848,-0.315,-0.195
2849,-0.315,-0.200
2850,-0.310,-0.225
2851,-0.315,-0.240
2852,-0.315,-0.240
2853,-0.320,-0.225
2854,-0.310,-0.220
2855,-0.320,-0.220
2856,-0.330,-0.230
2857,-0.345,-0.230
2858,-0.345,-0.200
2859,-0.345,-0.175
2860,-0.315,-0.160
2861,-0.315,-0.165
2862,-0.305,-0.160
2863,-0.300,-0.190
2864,-0.285,-0.170
2865,-0.260,-0.180
2866,-0.245,-0.175
2867,-0.250,-0.180
2868,-0.255,-0.195
2869,-0.270,-0.200
2870,-0.270,-0.210
2871,-0.270,-0.205
2872,-0.265,-0.195
2873,-0.270,-0.195
2874,-0.280,-0.205
2875,-0.275,-0.210
2876,-0.270,-0.195
2877,-0.260,-0.185
2878,-0.255,-0.180
2879,-0.265,-0.170
2880,-0.270,-0.190
2881,-0.285,-0.205
2882,-0.285,-0.205
2883,-0.270,-0.195
2884,-0.255,-0.200
2885,-0.255,-0.200
2886,-0.270,-0.200
2887,-0.275,-0.215
2888,-0.275,-0.210
2889,-0.265,-0.190
2890,-0.255,-0.200
2891,-0.260,-0.205
2892,-0.265,-0.230
2893,-0.275,-0.235
2894,-0.275,-0.220
2895,-0.280,-0.205
2896,-0.265,-0.200
2897,-0.270,-0.210
2898,-0.270,-0.220
2899,-0.290,-0.225
2900,-0.290,-0.210
2901,-0.285,-0.200
2902,-0.280,-0.210
2903,-0.285,-0.230
2904,-0.300,-0.220
2905,-0.305,-0.235
2906,-0.315,-0.230
2907,-0.305,-0.220
2908,-0.290,-0.215
2909,-0.290,-0.210
2910,-0.305,-0.215
2911,-0.315,-0.220
2912,-0.305,-0.210
2913,-0.285,-0.190
2914,-0.275,-0.185
2915,-0.280,-0.185
2916,-0.300,-0.210
2917,-0.310,-0.215
2918,-0.305,-0.210
2919,-0.300,-0.195
2920,-0.285,-0.195
2921,-0.295,-0.195
2922,-0.300,-0.210
2923,-0.305,-0.215
2924,-0.310,-0.225
2925,-0.310,-0.225
2926,-0.290,-0.210
2927,-0.280,-0.220
2928,-0.295,-0.225
2929,-0.285,-0.225
2930,-0.275,-0.215
2931,-0.255,-0.215
2932,-0.225,-0.210
2933,-0.230,-0.220
2934,-0.235,-0.240
2935,-0.245,-0.250
2936,-0.245,-0.230
2937,-0.240,-0.210
2938,-0.220,-0.180
2939,-0.220,-0.160
2940,-0.215,-0.175
2941,-0.215,-0.180
2942,-0.205,-0.220
2943,-0.170,-0.300
2944,-0.135,-0.395
2945,-0.105,-0.490
2946,-0.065,-0.580
2947,0.030,-0.660
2948,0.130,-0.740
2949,0.255,-0.825
2950,0.385,-0.905
2951,0.520,-0.940
2952,0.640,-0.925
2953,0.740,-0.865
2954,0.825,-0.780
2955,0.915,-0.700
2956,0.990,-0.590
2957,0.965,-0.445
2958,0.850,-0.340
2959,0.655,-0.240
2960,0.425,-0.150
2961,0.190,-0.115
2962,-0.005,-0.120
2963,-0.145,-0.170
2964,-0.235,-0.230
2965,-0.305,-0.255
2966,-0.335,-0.240
2967,-0.325,-0.220
2968,-0.280,-0.210
2969,-0.260,-0.200
2970,-0.245,-0.205
2971,-0.250,-0.215
2972,-0.265,-0.225
2973,-0.260,-0.205
2974,-0.250,-0.215
2975,-0.265,-0.210
2976,-0.275,-0.205
2977,-0.285,-0.210
2978,-0.305,-0.200
2979,-0.295,-0.185
2980,-0.295,-0.185
2981,-0.310,-0.195
2982,-0.305,-0.195
2983,-0.310,-0.195
2984,-0.325,-0.190
2985,-0.325,-0.175
2986,-0.315,-0.175
2987,-0.320,-0.165
2988,-0.320,-0.170
2989,-0.320,-0.170
2990,-0.320,-0.155
2991,-0.320,-0.155
2992,-0.310,-0.160
2993,-0.315,-0.160
2994,-0.310,-0.180
2995,-0.300,-0.195
2996,-0.305,-0.200
2997,-0.290,-0.195
2998,-0.265,-0.215
2999,-0.280,-0.215
3000,-0.285,-0.235
3001,-0.295,-0.250
3002,-0.295,-0.250
3003,-0.275,-0.255
3004,-0.270,-0.265
3005,-0.270,-0.280
3006,-0.265,-0.280
3007,-0.270,-0.285
3008,-0.265,-0.280
3009,-0.260,-0.260
3010,-0.260,-0.275
3011,-0.255,-0.280
3012,-0.265,-0.300
3013,-0.260,-0.320
3014,-0.255,-0.310
3015,-0.250,-0.290
3016,-0.255,-0.300
3017,-0.235,-0.305
3018,-0.240,-0.315
3019,-0.245,-0.320
3020,-0.240,-0.325
3021,-0.235,-0.320
3022,-0.215,-0.325
3023,-0.215,-0.330
3024,-0.215,-0.335
3025,-0.220,-0.335
3026,-0.210,-0.330
3027,-0.195,-0.330
3028,-0.175,-0.325
3029,-0.175,-0.320
3030,-0.175,-0.320
3031,-0.175,-0.315
3032,-0.180,-0.325
3033,-0.165,-0.310
3034,-0.155,-0.300
3035,-0.155,-0.300
3036,-0.150,-0.315
3037,-0.155,-0.315
3038,-0.155,-0.310
3039,-0.155,-0.290
3040,-0.150,-0.300
3041,-0.145,-0.300
3042,-0.145,-0.295
3043,-0.155,-0.300
3044,-0.155,-0.290
3045,-0.155,-0.270
3046,-0.155,-0.270
3047,-0.160,-0.280
3048,-0.170,-0.280
3049,-0.185,-0.280
3050,-0.195,-0.250
3051,-0.200,-0.230
3052,-0.215,-0.225
3053,-0.225,-0.225
3054,-0.230,-0.215
3055,-0.255,-0.205
3056,-0.265,-0.190
3057,-0.270,-0.180
3058,-0.260,-0.165
3059,-0.270,-0.155
3060,-0.275,-0.160
3061,-0.275,-0.175
3062,-0.275,-0.160
3063,-0.255,-0.170
3064,-0.245,-0.175
3065,-0.245,-0.180
3066,-0.245,-0.195
3067,-0.255,-0.210
3068,-0.240,-0.210
3069,-0.235,-0.200
3070,-0.225,-0.215
3071,-0.230,-0.230
3072,-0.245,-0.240
3073,-0.255,-0.255
3074,-0.250,-0.250
3075,-0.250,-0.260
3076,-0.245,-0.265
3077,-0.250,-0.270
3078,-0.250,-0.270
3079,-0.255,-0.270
3080,-0.255,-0.240
3081,-0.255,-0.250
3082,-0.240,-0.240
3083,-0.225,-0.245
3084,-0.235,-0.240
3085,-0.240,-0.240
3086,-0.235,-0.235
3087,-0.220,-0.220
3088,-0.220,-0.225
3089,-0.230,-0.220
3090,-0.240,-0.230
3091,-0.250,-0.230
3092,-0.240,-0.225
3093,-0.230,-0.215
3094,-0.225,-0.225
3095,-0.225,-0.220
3096,-0.240,-0.230
3097,-0.245,-0.225
3098,-0.255,-0.220
3099,-0.240,-0.210
3100,-0.245,-0.205
3101,-0.240,-0.200
3102,-0.250,-0.210
3103,-0.255,-0.215
3104,-0.255,-0.205
3105,-0.240,-0.210
3106,-0.230,-0.205
3107,-0.235,-0.200
3108,-0.245,-0.205
3109,-0.260,-0.215
3110,-0.260,-0.215
3111,-0.250,-0.190
3112,-0.245,-0.190
3113,-0.250,-0.205
3114,-0.265,-0.210
3115,-0.270,-0.220
3116,-0.275,-0.205
3117,-0.275,-0.220
3118,-0.290,-0.210
3119,-0.275,-0.210
3120,-0.300,-0.225
3121,-0.320,-0.235
3122,-0.325,-0.225
3123,-0.320,-0.215
3124,-0.305,-0.210
3125,-0.315,-0.200
3126,-0.335,-0.215
3127,-0.345,-0.205
3128,-0.345,-0.190
3129,-0.320,-0.190
3130,-0.290,-0.190
3131,-0.285,-0.190
3132,-0.285,-0.210
3133,-0.275,-0.215
3134,-0.270,-0.230
3135,-0.250,-0.220
3136,-0.240,-0.230
3137,-0.210,-0.245
3138,-0.200,-0.245
3139,-0.205,-0.235
3140,-0.200,-0.225
3141,-0.190,-0.205
3142,-0.180,-0.200
3143,-0.195,-0.220
3144,-0.210,-0.220
3145,-0.210,-0.230
3146,-0.220,-0.220
3147,-0.220,-0.220
3148,-0.200,-0.215
3149,-0.205,-0.225
3150,-0.230,-0.230
3151,-0.250,-0.245
3152,-0.250,-0.220
3153,-0.240,-0.210
3154,-0.235,-0.210
3155,-0.235,-0.205
3156,-0.245,-0.215
3157,-0.270,-0.240
3158,-0.275,-0.230
3159,-0.270,-0.220
3160,-0.265,-0.215
3161,-0.260,-0.230
3162,-0.270,-0.235
3163,-0.275,-0.235
3164,-0.275,-0.220
3165,-0.265,-0.225
3166,-0.245,-0.230
3167,-0.255,-0.215
3168,-0.265,-0.230
3169,-0.280,-0.245
3170,-0.275,-0.230
3171,-0.270,-0.230
3172,-0.260,-0.220
3173,-0.260,-0.235
3174,-0.265,-0.235
3175,-0.285,-0.250
3176,-0.285,-0.245
3177,-0.275,-0.235
3178,-0.260,-0.230
3179,-0.260,-0.215
3180,-0.265,-0.220
3181,-0.270,-0.205
3182,-0.260,-0.210
3183,-0.230,-0.240
3184,-0.195,-0.325
3185,-0.175,-0.410
3186,-0.155,-0.485
3187,-0.120,-0.545
3188,-0.040,-0.620
3189,0.065,-0.675
3190,0.160,-0.785
3191,0.255,-0.915
3192,0.345,-1.025
3193,0.450,-1.070
3194,0.545,-1.050
3195,0.610,-1.005
3196,0.675,-0.930
3197,0.730,-0.830
3198,0.745,-0.710
3199,0.680,-0.555
3200,0.585,-0.405
3201,0.460,-0.305
3202,0.320,-0.250
3203,0.155,-0.230
3204,0.015,-0.255
3205,-0.055,-0.285
3206,-0.105,-0.275
3207,-0.135,-0.265
3208,-0.130,-0.255
3209,-0.135,-0.235
3210,-0.140,-0.245
3211,-0.155,-0.245
3212,-0.175,-0.235
3213,-0.185,-0.230
3214,-0.185,-0.225
3215,-0.200,-0.235
3216,-0.215,-0.260
3217,-0.235,-0.255
3218,-0.245,-0.240
3219,-0.245,-0.235
3220,-0.240,-0.230
3221,-0.250,-0.230
3222,-0.250,-0.245
3223,-0.280,-0.245
3224,-0.285,-0.250
3225,-0.275,-0.240
3226,-0.275,-0.230
3227,-0.275,-0.230
3228,-0.275,-0.240
3229,-0.285,-0.245
3230,-0.290,-0.240
3231,-0.280,-0.235
3232,-0.275,-0.235
3233,-0.285,-0.260
3234,-0.285,-0.265
3235,-0.295,-0.275
3236,-0.290,-0.270
3237,-0.280,-0.255
3238,-0.285,-0.250
3239,-0.290,-0.260
3240,-0.295,-0.265
3241,-0.295,-0.270
3242,-0.310,-0.260
3243,-0.300,-0.255
3244,-0.280,-0.245
3245,-0.285,-0.245
3246,-0.285,-0.255
3247,-0.290,-0.255
3248,-0.290,-0.260
3249,-0.290,-0.250
3250,-0.275,-0.265
3251,-0.285,-0.260
3252,-0.265,-0.270
3253,-0.275,-0.265
3254,-0.270,-0.260
3255,-0.255,-0.245
3256,-0.240,-0.255
3257,-0.245,-0.250
3258,-0.230,-0.245
3259,-0.235,-0.230
3260,-0.235,-0.235
3261,-0.215,-0.225
3262,-0.205,-0.220
3263,-0.205,-0.225
3264,-0.220,-0.235
3265,-0.245,-0.245
3266,-0.230,-0.230
3267,-0.210,-0.215
3268,-0.205,-0.225
3269,-0.205,-0.230
3270,-0.215,-0.240
3271,-0.210,-0.250
3272,-0.195,-0.240
3273,-0.180,-0.245
3274,-0.165,-0.270
3275,-0.155,-0.275
3276,-0.155,-0.305
3277,-0.140,-0.300
3278,-0.125,-0.295
3279,-0.105,-0.285
3280,-0.105,-0.290
3281,-0.100,-0.295
3282,-0.115,-0.315
3283,-0.135,-0.305
3284,-0.125,-0.290
3285,-0.110,-0.290
3286,-0.100,-0.285
3287,-0.110,-0.275
3288,-0.115,-0.295
3289,-0.125,-0.285
3290,-0.130,-0.275
3291,-0.125,-0.265
3292,-0.115,-0.270
3293,-0.130,-0.265
3294,-0.145,-0.290
3295,-0.160,-0.285
3296,-0.165,-0.275
3297,-0.170,-0.265
3298,-0.165,-0.250
3299,-0.170,-0.255
3300,-0.195,-0.260
3301,-0.215,-0.265
3302,-0.215,-0.250
3303,-0.215,-0.235
3304,-0.220,-0.240
3305,-0.215,-0.235
3306,-0.230,-0.250
3307,-0.240,-0.255
3308,-0.255,-0.245
3309,-0.245,-0.230
3310,-0.245,-0.225
3311,-0.240,-0.225
3312,-0.250,-0.240
3313,-0.265,-0.240
3314,-0.260,-0.230
3315,-0.235,-0.210
3316,-0.225,-0.210
3317,-0.225,-0.200
3318,-0.235,-0.230
3319,-0.260,-0.245
3320,-0.265,-0.230
3321,-0.250,-0.210
3322,-0.240,-0.210
3323,-0.260,-0.210
3324,-0.260,-0.230
3325,-0.270,-0.215
3326,-0.270,-0.230
3327,-0.265,-0.205
3328,-0.250,-0.215
3329,-0.250,-0.230
3330,-0.255,-0.250
3331,-0.270,-0.255
3332,-0.285,-0.260
3333,-0.275,-0.240
3334,-0.265,-0.240
3335,-0.280,-0.240
3336,-0.280,-0.255
3337,-0.285,-0.255
3338,-0.285,-0.250
3339,-0.280,-0.235
3340,-0.270,-0.235
3341,-0.270,-0.240
3342,-0.260,-0.245
3343,-0.255,-0.240
3344,-0.250,-0.230
3345,-0.235,-0.220
3346,-0.220,-0.215
3347,-0.215,-0.215
3348,-0.225,-0.220
3349,-0.240,-0.215
3350,-0.235,-0.210
3351,-0.230,-0.215
3352,-0.220,-0.210
3353,-0.220,-0.215
3354,-0.225,-0.230
3355,-0.240,-0.230
3356,-0.235,-0.235
3357,-0.235,-0.235
3358,-0.220,-0.235
3359,-0.235,-0.245
3360,-0.245,-0.250
3361,-0.245,-0.250
3362,-0.255,-0.220
3363,-0.245,-0.215
3364,-0.230,-0.200
3365,-0.245,-0.205
3366,-0.245,-0.210
3367,-0.255,-0.220
3368,-0.240,-0.205
3369,-0.235,-0.200
3370,-0.230,-0.205
3371,-0.235,-0.205
3372,-0.250,-0.210
3373,-0.255,-0.215
3374,-0.255,-0.215
3375,-0.250,-0.210
3376,-0.245,-0.215
3377,-0.240,-0.225
3378,-0.260,-0.245
3379,-0.265,-0.250
3380,-0.280,-0.250
3381,-0.270,-0.240
3382,-0.270,-0.235
3383,-0.275,-0.245
3384,-0.280,-0.255
3385,-0.280,-0.255
3386,-0.280,-0.255
3387,-0.280,-0.245
3388,-0.270,-0.240
3389,-0.280,-0.250
3390,-0.285,-0.275
3391,-0.290,-0.275
3392,-0.285,-0.270
3393,-0.285,-0.265
3394,-0.280,-0.250
3395,-0.280,-0.275
3396,-0.285,-0.280
3397,-0.295,-0.290
3398,-0.295,-0.295
3399,-0.280,-0.275
3400,-0.270,-0.290
3401,-0.270,-0.285
3402,-0.280,-0.290
3403,-0.285,-0.300
3404,-0.270,-0.280
3405,-0.270,-0.260
3406,-0.260,-0.250
3407,-0.265,-0.240
3408,-0.265,-0.250
3409,-0.265,-0.245
3410,-0.270,-0.240
3411,-0.265,-0.240
3412,-0.255,-0.240
3413,-0.255,-0.240
3414,-0.265,-0.250
3415,-0.275,-0.250
3416,-0.265,-0.245
3417,-0.270,-0.230
3418,-0.260,-0.225
3419,-0.260,-0.225
3420,-0.270,-0.230
3421,-0.275,-0.230
3422,-0.265,-0.220
3423,-0.250,-0.205
3424,-0.225,-0.200
3425,-0.235,-0.195
3426,-0.245,-0.205
3427,-0.270,-0.210
3428,-0.260,-0.200
3429,-0.260,-0.205
3430,-0.245,-0.200
3431,-0.250,-0.205
3432,-0.255,-0.215
3433,-0.280,-0.225
3434,-0.275,-0.215
3435,-0.275,-0.210
3436,-0.265,-0.210
3437,-0.280,-0.210
3438,-0.285,-0.225
3439,-0.290,-0.215
3440,-0.285,-0.215
3441,-0.275,-0.195
3442,-0.270,-0.200
3443,-0.265,-0.220
3444,-0.290,-0.230
3445,-0.295,-0.245
3446,-0.300,-0.240
3447,-0.290,-0.225
3448,-0.270,-0.230
3449,-0.275,-0.230
3450,-0.290,-0.235
3451,-0.295,-0.250
3452,-0.290,-0.235
3453,-0.270,-0.195
3454,-0.255,-0.195
3455,-0.250,-0.220
3456,-0.230,-0.295
3457,-0.220,-0.375
3458,-0.200,-0.465
3459,-0.160,-0.520
3460,-0.130,-0.590
3461,-0.060,-0.670
3462,0.025,-0.750
3463,0.105,-0.850
3464,0.195,-0.950
3465,0.295,-1.035
3466,0.420,-1.090
3467,0.550,-1.095
3468,0.635,-1.065
3469,0.675,-1.020
3470,0.745,-0.935
3471,0.795,-0.810
3472,0.785,-0.640
3473,0.695,-0.490
3474,0.560,-0.380
3475,0.390,-0.330
3476,0.190,-0.300
3477,0.040,-0.300
3478,-0.055,-0.305
3479,-0.100,-0.305
3480,-0.135,-0.310
3481,-0.180,-0.300
3482,-0.195,-0.270
3483,-0.185,-0.250
3484,-0.165,-0.250
3485,-0.165,-0.245
3486,-0.185,-0.265
3487,-0.210,-0.255
3488,-0.220,-0.240
3489,-0.220,-0.215
3490,-0.225,-0.220
3491,-0.235,-0.225
3492,-0.235,-0.225
3493,-0.255,-0.245
3494,-0.265,-0.225
3495,-0.260,-0.220
3496,-0.260,-0.210
3497,-0.260,-0.210
3498,-0.270,-0.220
3499,-0.290,-0.215
3500,-0.285,-0.220
3501,-0.285,-0.210
3502,-0.280,-0.215
3503,-0.295,-0.215
3504,-0.295,-0.220
3505,-0.315,-0.235
3506,-0.310,-0.210
3507,-0.305,-0.220
3508,-0.300,-0.230
3509,-0.295,-0.230
3510,-0.305,-0.240
3511,-0.315,-0.245
3512,-0.310,-0.230
3513,-0.310,-0.240
3514,-0.300,-0.230
3515,-0.300,-0.245
3516,-0.290,-0.250
3517,-0.310,-0.270
3518,-0.310,-0.270
3519,-0.300,-0.270
3520,-0.290,-0.280
3521,-0.280,-0.285
3522,-0.285,-0.285
3523,-0.295,-0.295
3524,-0.275,-0.290
3525,-0.265,-0.290
3526,-0.250,-0.295
3527,-0.245,-0.305
3528,-0.250,-0.320
3529,-0.245,-0.330
3530,-0.245,-0.315
3531,-0.240,-0.315
3532,-0.225,-0.315
3533,-0.215,-0.310
3534,-0.200,-0.310
3535,-0.200,-0.300
3536,-0.170,-0.285
3537,-0.170,-0.270
3538,-0.160,-0.270
3539,-0.160,-0.270
3540,-0.155,-0.275
3541,-0.160,-0.290
3542,-0.150,-0.290
3543,-0.140,-0.285
3544,-0.135,-0.295
3545,-0.130,-0.290
3546,-0.145,-0.300
3547,-0.140,-0.295
3548,-0.135,-0.285
3549,-0.125,-0.270
3550,-0.120,-0.280
3551,-0.125,-0.285
3552,-0.130,-0.285
3553,-0.140,-0.285
3554,-0.120,-0.270
3555,-0.120,-0.260
3556,-0.115,-0.265
3557,-0.110,-0.275
3558,-0.125,-0.285
3559,-0.130,-0.285
3560,-0.125,-0.270
3561,-0.120,-0.260
3562,-0.115,-0.260
3563,-0.110,-0.265
3564,-0.130,-0.265
3565,-0.150,-0.270
3566,-0.145,-0.265
3567,-0.145,-0.250
3568,-0.140,-0.240
3569,-0.150,-0.245
3570,-0.165,-0.260
3571,-0.190,-0.255
3572,-0.195,-0.250
3573,-0.200,-0.250
3574,-0.195,-0.240
3575,-0.200,-0.235
3576,-0.215,-0.240
3577,-0.220,-0.245
3578,-0.225,-0.235
3579,-0.215,-0.235
3580,-0.220,-0.230
3581,-0.220,-0.245
3582,-0.225,-0.265
3583,-0.230,-0.270
3584,-0.235,-0.270
3585,-0.230,-0.255
3586,-0.225,-0.250
3587,-0.220,-0.260
3588,-0.230,-0.255
3589,-0.245,-0.270
3590,-0.240,-0.265
3591,-0.230,-0.265
3592,-0.225,-0.265
3593,-0.225,-0.275
3594,-0.240,-0.285
3595,-0.250,-0.270
3596,-0.250,-0.270
3597,-0.250,-0.260
3598,-0.245,-0.265
3599,-0.245,-0.260
3600,-0.260,-0.265
3601,-0.270,-0.260
3602,-0.260,-0.245
3603,-0.255,-0.230
3604,-0.245,-0.240
3605,-0.250,-0.235
3606,-0.255,-0.235
3607,-0.270,-0.230
3608,-0.260,-0.220
3609,-0.250,-0.205
3610,-0.245,-0.220
3611,-0.245,-0.220
3612,-0.255,-0.220
3613,-0.265,-0.220
3614,-0.255,-0.205
3615,-0.260,-0.190
3616,-0.250,-0.190
3617,-0.260,-0.190
3618,-0.250,-0.190
3619,-0.265,-0.180
3620,-0.260,-0.180
3621,-0.265,-0.190
3622,-0.260,-0.200
3623,-0.260,-0.200
3624,-0.265,-0.215
3625,-0.285,-0.225
3626,-0.275,-0.210
3627,-0.265,-0.210
3628,-0.260,-0.215
3629,-0.255,-0.215
3630,-0.255,-0.230
3631,-0.255,-0.235
3632,-0.255,-0.215
3633,-0.235,-0.205
3634,-0.220,-0.200
3635,-0.225,-0.215
3636,-0.230,-0.225
3637,-0.245,-0.220
3638,-0.230,-0.220
3639,-0.225,-0.210
3640,-0.220,-0.215
3641,-0.220,-0.225
3642,-0.230,-0.245
3643,-0.245,-0.250
3644,-0.240,-0.250
3645,-0.230,-0.240
3646,-0.230,-0.245
3647,-0.230,-0.255
3648,-0.230,-0.265
3649,-0.245,-0.270
3650,-0.245,-0.255
3651,-0.240,-0.245
3652,-0.235,-0.250
3653,-0.235,-0.260
3654,-0.245,-0.265
3655,-0.260,-0.260
3656,-0.275,-0.265
3657,-0.270,-0.255
3658,-0.250,-0.250
3659,-0.250,-0.250
3660,-0.260,-0.265
3661,-0.270,-0.245
3662,-0.275,-0.240
3663,-0.265,-0.235
3664,-0.265,-0.225
3665,-0.260,-0.225
3666,-0.280,-0.240
3667,-0.300,-0.235
3668,-0.290,-0.230
3669,-0.270,-0.210
3670,-0.260,-0.210
3671,-0.265,-0.205
3672,-0.280,-0.220
3673,-0.300,-0.235
3674,-0.285,-0.220
3675,-0.285,-0.220
3676,-0.265,-0.215
3677,-0.270,-0.210
3678,-0.270,-0.215
3679,-0.280,-0.215
3680,-0.280,-0.215
3681,-0.280,-0.205
3682,-0.275,-0.205
3683,-0.275,-0.215
3684,-0.280,-0.230
3685,-0.295,-0.220
3686,-0.290,-0.205
3687,-0.275,-0.195
3688,-0.260,-0.185
3689,-0.265,-0.175
3690,-0.265,-0.180
3691,-0.265,-0.185
3692,-0.260,-0.180
3693,-0.250,-0.180
3694,-0.240,-0.185
3695,-0.250,-0.190
3696,-0.255,-0.220
3697,-0.255,-0.220
3698,-0.250,-0.210
3699,-0.240,-0.210
3700,-0.235,-0.205
3701,-0.230,-0.205
3702,-0.235,-0.225
3703,-0.245,-0.230
3704,-0.245,-0.235
3705,-0.240,-0.220
3706,-0.235,-0.225
3707,-0.245,-0.230
3708,-0.255,-0.250
3709,-0.270,-0.255
3710,-0.270,-0.260
3711,-0.275,-0.245
3712,-0.265,-0.250
3713,-0.270,-0.255
3714,-0.285,-0.270
3715,-0.290,-0.270
3716,-0.280,-0.260
3717,-0.270,-0.235
3718,-0.265,-0.235
3719,-0.270,-0.235
3720,-0.270,-0.245
3721,-0.275,-0.250
3722,-0.265,-0.230
3723,-0.240,-0.230
3724,-0.240,-0.235
3725,-0.255,-0.230
3726,-0.260,-0.250
3727,-0.270,-0.245
3728,-0.265,-0.245
3729,-0.255,-0.235
3730,-0.255,-0.235
3731,-0.255,-0.245
3732,-0.265,-0.250
3733,-0.275,-0.260
3734,-0.280,-0.255
3735,-0.280,-0.250
3736,-0.275,-0.245
3737,-0.275,-0.245
3738,-0.280,-0.265
3739,-0.295,-0.250
3740,-0.295,-0.245
3741,-0.285,-0.240
3742,-0.280,-0.240
3743,-0.280,-0.230
3744,-0.285,-0.230
3745,-0.300,-0.220
3746,-0.285,-0.210
3747,-0.280,-0.195
3748,-0.260,-0.200
3749,-0.260,-0.190
3750,-0.265,-0.200
3751,-0.280,-0.185
3752,-0.260,-0.180
3753,-0.250,-0.170
3754,-0.240,-0.185
3755,-0.245,-0.210
3756,-0.240,-0.225
3757,-0.260,-0.235
3758,-0.255,-0.220
3759,-0.245,-0.210
3760,-0.235,-0.205
3761,-0.240,-0.225
3762,-0.245,-0.230
3763,-0.240,-0.245
3764,-0.235,-0.230
3765,-0.225,-0.245
3766,-0.230,-0.240
3767,-0.235,-0.245
3768,-0.255,-0.265
3769,-0.255,-0.265
3770,-0.245,-0.275
3771,-0.230,-0.270
3772,-0.225,-0.275
3773,-0.235,-0.290
3774,-0.235,-0.300
3775,-0.260,-0.300
3776,-0.245,-0.280
3777,-0.235,-0.265
3778,-0.220,-0.270
3779,-0.225,-0.270
3780,-0.230,-0.265
3781,-0.240,-0.240
3782,-0.245,-0.215
3783,-0.225,-0.215
3784,-0.190,-0.195
3785,-0.175,-0.260
3786,-0.140,-0.345
3787,-0.140,-0.450
3788,-0.110,-0.535
3789,-0.065,-0.600
3790,0.025,-0.670
3791,0.135,-0.750
3792,0.235,-0.850
3793,0.325,-0.940
3794,0.445,-0.995
3795,0.580,-0.980
3796,0.685,-0.940
3797,0.780,-0.855
3798,0.855,-0.795
3799,0.925,-0.695
3800,0.925,-0.540
3801,0.845,-0.395
3802,0.690,-0.285
3803,0.470,-0.195
3804,0.245,-0.160
3805,0.040,-0.150
3806,-0.105,-0.180
3807,-0.200,-0.225
3808,-0.245,-0.260
3809,-0.295,-0.275
3810,-0.315,-0.270
3811,-0.290,-0.270
3812,-0.255,-0.250
3813,-0.230,-0.230
3814,-0.235,-0.220
3815,-0.230,-0.225
3816,-0.255,-0.235
3817,-0.275,-0.230
3818,-0.270,-0.220
3819,-0.270,-0.210
3820,-0.280,-0.200
3821,-0.280,-0.195
3822,-0.270,-0.210
3823,-0.280,-0.195
3824,-0.280,-0.175
3825,-0.265,-0.170
3826,-0.250,-0.165
3827,-0.250,-0.165
3828,-0.245,-0.200
3829,-0.260,-0.220
3830,-0.255,-0.230
3831,-0.245,-0.220
3832,-0.240,-0.225
3833,-0.240,-0.240
3834,-0.245,-0.265
3835,-0.260,-0.265
3836,-0.255,-0.265
3837,-0.250,-0.250
3838,-0.240,-0.260
3839,-0.250,-0.275
3840,-0.260,-0.305
3841,-0.265,-0.310
3842,-0.260,-0.315
3843,-0.260,-0.310
3844,-0.245,-0.305
3845,-0.250,-0.305
3846,-0.255,-0.320
3847,-0.270,-0.310
3848,-0.265,-0.315
3849,-0.255,-0.305
3850,-0.250,-0.305
3851,-0.240,-0.310
3852,-0.255,-0.315
3853,-0.265,-0.325
3854,-0.255,-0.325
3855,-0.250,-0.315
3856,-0.245,-0.325
3857,-0.255,-0.340
3858,-0.245,-0.350
3859,-0.250,-0.350
3860,-0.250,-0.335
3861,-0.240,-0.335
3862,-0.225,-0.320
3863,-0.215,-0.335
3864,-0.220,-0.340
3865,-0.225,-0.350
3866,-0.205,-0.335
3867,-0.195,-0.320
3868,-0.180,-0.320
3869,-0.185,-0.315
3870,-0.190,-0.335
3871,-0.190,-0.335
3872,-0.185,-0.330
3873,-0.175,-0.330
3874,-0.160,-0.340
3875,-0.165,-0.340
3876,-0.170,-0.350
3877,-0.170,-0.365
3878,-0.155,-0.340
3879,-0.150,-0.330
3880,-0.140,-0.305
3881,-0.145,-0.310
3882,-0.150,-0.320
3883,-0.150,-0.310
3884,-0.145,-0.295
3885,-0.130,-0.290
3886,-0.125,-0.295
3887,-0.125,-0.300
3888,-0.130,-0.305
3889,-0.145,-0.290
3890,-0.150,-0.270
3891,-0.125,-0.250
3892,-0.105,-0.240
3893,-0.100,-0.235
3894,-0.105,-0.245
3895,-0.120,-0.250
3896,-0.110,-0.235
3897,-0.110,-0.245
3898,-0.110,-0.250
3899,-0.125,-0.265
3900,-0.140,-0.280
3901,-0.165,-0.275
3902,-0.175,-0.270
3903,-0.180,-0.265
3904,-0.170,-0.280
3905,-0.190,-0.265
3906,-0.200,-0.290
3907,-0.220,-0.280
3908,-0.220,-0.275
3909,-0.210,-0.270
3910,-0.210,-0.280
3911,-0.230,-0.275
3912,-0.235,-0.295
3913,-0.245,-0.290
3914,-0.245,-0.270
3915,-0.240,-0.260
3916,-0.250,-0.280
3917,-0.255,-0.285
3918,-0.265,-0.300
3919,-0.280,-0.305
3920,-0.270,-0.290
3921,-0.265,-0.275
3922,-0.260,-0.270
3923,-0.245,-0.265
3924,-0.265,-0.270
3925,-0.260,-0.265
3926,-0.255,-0.250
3927,-0.250,-0.240
3928,-0.250,-0.245
3929,-0.250,-0.245
3930,-0.255,-0.260
3931,-0.270,-0.255
3932,-0.280,-0.250
3933,-0.265,-0.235
3934,-0.255,-0.240
3935,-0.270,-0.235
3936,-0.265,-0.250
3937,-0.285,-0.245
3938,-0.270,-0.235
3939,-0.265,-0.220
3940,-0.255,-0.230
3941,-0.265,-0.240
3942,-0.260,-0.250
3943,-0.285,-0.245
3944,-0.285,-0.240
3945,-0.285,-0.235
3946,-0.275,-0.235
3947,-0.275,-0.235
3948,-0.275,-0.220
3949,-0.300,-0.190
3950,-0.275,-0.180
3951,-0.255,-0.145
3952,-0.235,-0.155
3953,-0.235,-0.175
3954,-0.230,-0.195
3955,-0.235,-0.200
3956,-0.220,-0.190
3957,-0.215,-0.175
3958,-0.210,-0.185
3959,-0.205,-0.195
3960,-0.220,-0.210
3961,-0.220,-0.215
3962,-0.210,-0.200
3963,-0.205,-0.190
3964,-0.200,-0.205
3965,-0.205,-0.205
3966,-0.215,-0.215
3967,-0.230,-0.220
3968,-0.220,-0.215
3969,-0.210,-0.200
3970,-0.210,-0.200
3971,-0.230,-0.205
3972,-0.235,-0.225
3973,-0.250,-0.235
3974,-0.235,-0.230
3975,-0.235,-0.230
3976,-0.225,-0.240
3977,-0.230,-0.240
3978,-0.245,-0.255
3979,-0.255,-0.245
3980,-0.250,-0.230
3981,-0.255,-0.210
3982,-0.250,-0.215
3983,-0.230,-0.225
3984,-0.230,-0.220
3985,-0.235,-0.225
3986,-0.225,-0.210
3987,-0.220,-0.195
3988,-0.215,-0.200
3989,-0.230,-0.205
3990,-0.245,-0.220
3991,-0.255,-0.230
3992,-0.250,-0.225
3993,-0.255,-0.215
3994,-0.250,-0.215
3995,-0.255,-0.225
3996,-0.275,-0.235
3997,-0.285,-0.230
3998,-0.280,-0.230
3999,-0.275,-0.225
4000,-0.275,-0.235
4001,-0.285,-0.245
4002,-0.300,-0.255
4003,-0.310,-0.250
4004,-0.310,-0.255
4005,-0.305,-0.230
4006,-0.305,-0.230
4007,-0.310,-0.225
4008,-0.330,-0.235
4009,-0.330,-0.225
4010,-0.325,-0.210
4011,-0.315,-0.215
4012,-0.290,-0.215
4013,-0.265,-0.210
4014,-0.260,-0.230
4015,-0.265,-0.230
4016,-0.255,-0.225
4017,-0.255,-0.215
4018,-0.240,-0.210
4019,-0.240,-0.205
4020,-0.245,-0.215
4021,-0.275,-0.210
4022,-0.255,-0.205
4023,-0.245,-0.200
4024,-0.245,-0.195
4025,-0.250,-0.220
4026,-0.260,-0.230
4027,-0.275,-0.235
4028,-0.275,-0.230
4029,-0.260,-0.220
4030,-0.260,-0.225
4031,-0.255,-0.215
4032,-0.275,-0.230
4033,-0.295,-0.240
4034,-0.285,-0.235
4035,-0.280,-0.225
4036,-0.275,-0.230
4037,-0.285,-0.220
4038,-0.290,-0.220
4039,-0.295,-0.205
4040,-0.280,-0.185
4041,-0.280,-0.170
4042,-0.255,-0.170
4043,-0.260,-0.195
4044,-0.260,-0.195
4045,-0.275,-0.215
4046,-0.280,-0.185
4047,-0.270,-0.175
4048,-0.265,-0.185
4049,-0.280,-0.185
4050,-0.285,-0.200
4051,-0.290,-0.205
4052,-0.285,-0.190
4053,-0.275,-0.180
4054,-0.270,-0.180
4055,-0.265,-0.200
4056,-0.280,-0.200
4057,-0.290,-0.210
4058,-0.285,-0.195
4059,-0.275,-0.185
4060,-0.270,-0.175
4061,-0.275,-0.195
4062,-0.280,-0.205
4063,-0.290,-0.200
4064,-0.285,-0.195
4065,-0.280,-0.175
4066,-0.280,-0.200
4067,-0.285,-0.215
4068,-0.290,-0.210
4069,-0.285,-0.220
4070,-0.285,-0.200
4071,-0.280,-0.200
4072,-0.270,-0.220
4073,-0.275,-0.235
4074,-0.285,-0.255
4075,-0.285,-0.275
4076,-0.280,-0.260
4077,-0.280,-0.240
4078,-0.270,-0.235
4079,-0.270,-0.235
4080,-0.285,-0.250
4081,-0.275,-0.255
4082,-0.270,-0.240
4083,-0.260,-0.230
4084,-0.250,-0.235
4085,-0.260,-0.245
4086,-0.265,-0.255
4087,-0.275,-0.255
4088,-0.275,-0.250
4089,-0.250,-0.255
4090,-0.255,-0.255
4091,-0.260,-0.255
4092,-0.265,-0.250
4093,-0.255,-0.220
4094,-0.240,-0.195
4095,-0.210,-0.190
4096,-0.185,-0.230
4097,-0.155,-0.330
4098,-0.140,-0.420
4099,-0.125,-0.490
4100,-0.075,-0.560
4101,0.010,-0.615
4102,0.115,-0.695
4103,0.210,-0.795
4104,0.280,-0.915
4105,0.375,-0.990
4106,0.485,-1.005
4107,0.600,-0.985
4108,0.690,-0.935
4109,0.760,-0.875
4110,0.810,-0.780
4111,0.830,-0.625
4112,0.765,-0.445
4113,0.610,-0.295
4114,0.430,-0.230
4115,0.195,-0.210
4116,0.000,-0.250
4117,-0.125,-0.280
4118,-0.175,-0.275
4119,-0.225,-0.265
4120,-0.220,-0.250
4121,-0.215,-0.235
4122,-0.205,-0.225
4123,-0.225,-0.225
4124,-0.215,-0.220
4125,-0.225,-0.215
4126,-0.230,-0.210
4127,-0.240,-0.210
4128,-0.250,-0.200
4129,-0.260,-0.210
4130,-0.260,-0.195
4131,-0.260,-0.190
4132,-0.250,-0.180
4133,-0.260,-0.175
4134,-0.255,-0.195
4135,-0.260,-0.185
4136,-0.250,-0.175
4137,-0.260,-0.185
4138,-0.255,-0.195
4139,-0.255,-0.200
4140,-0.260,-0.215
4141,-0.285,-0.220
4142,-0.275,-0.215
4143,-0.280,-0.215
4144,-0.270,-0.220
4145,-0.270,-0.205
4146,-0.270,-0.215
4147,-0.280,-0.210
4148,-0.275,-0.195
4149,-0.275,-0.200
4150,-0.260,-0.205
4151,-0.265,-0.205
4152,-0.275,-0.205
4153,-0.285,-0.210
4154,-0.285,-0.205
4155,-0.285,-0.205
4156,-0.275,-0.220
4157,-0.280,-0.220
4158,-0.275,-0.250
4159,-0.285,-0.250
4160,-0.280,-0.240
4161,-0.270,-0.245
4162,-0.255,-0.240
4163,-0.260,-0.250
4164,-0.265,-0.250
4165,-0.275,-0.250
4166,-0.270,-0.240
4167,-0.255,-0.215
4168,-0.255,-0.225
4169,-0.240,-0.230
4170,-0.245,-0.240
4171,-0.260,-0.250
4172,-0.250,-0.250
4173,-0.245,-0.230
4174,-0.235,-0.235
4175,-0.225,-0.245
4176,-0.230,-0.260
4177,-0.235,-0.260
4178,-0.240,-0.250
4179,-0.225,-0.245
4180,-0.215,-0.235
4181,-0.210,-0.240
4182,-0.220,-0.245
4183,-0.220,-0.250
4184,-0.215,-0.235
4185,-0.190,-0.220
4186,-0.185,-0.210
4187,-0.180,-0.225
4188,-0.175,-0.230
4189,-0.185,-0.225
4190,-0.175,-0.195
4191,-0.160,-0.175
4192,-0.135,-0.180
4193,-0.125,-0.160
4194,-0.105,-0.180
4195,-0.100,-0.175
4196,-0.095,-0.165
4197,-0.085,-0.145
4198,-0.080,-0.155
4199,-0.080,-0.155
4200,-0.095,-0.165
4201,-0.120,-0.160
4202,-0.115,-0.165
4203,-0.125,-0.165
4204,-0.140,-0.190
4205,-0.150,-0.210
4206,-0.170,-0.240
4207,-0.195,-0.245
4208,-0.195,-0.235
4209,-0.215,-0.230
4210,-0.210,-0.235
4211,-0.230,-0.235
4212,-0.265,-0.245
4213,-0.275,-0.245
4214,-0.270,-0.255
4215,-0.260,-0.245
4216,-0.260,-0.245
4217,-0.265,-0.255
4218,-0.290,-0.265
4219,-0.295,-0.265
4220,-0.295,-0.260
4221,-0.280,-0.235
4222,-0.290,-0.245
4223,-0.295,-0.245
4224,-0.295,-0.265
4225,-0.310,-0.265
4226,-0.295,-0.250
4227,-0.300,-0.240
4228,-0.290,-0.245
4229,-0.300,-0.240
4230,-0.310,-0.255
4231,-0.315,-0.240
4232,-0.310,-0.230
4233,-0.305,-0.225
4234,-0.300,-0.230
4235,-0.300,-0.240
4236,-0.310,-0.250
4237,-0.310,-0.240
4238,-0.290,-0.215
4239,-0.290,-0.210
4240,-0.285,-0.205
4241,-0.285,-0.200
4242,-0.285,-0.195
4243,-0.285,-0.190
4244,-0.275,-0.175
4245,-0.265,-0.165
4246,-0.250,-0.160
4247,-0.245,-0.150
4248,-0.250,-0.155
4249,-0.245,-0.150
4250,-0.250,-0.140
4251,-0.250,-0.135
4252,-0.255,-0.140
4253,-0.255,-0.135
4254,-0.275,-0.155
4255,-0.285,-0.155
4256,-0.290,-0.155
4257,-0.290,-0.140
4258,-0.295,-0.135
4259,-0.305,-0.125
4260,-0.310,-0.140
4261,-0.315,-0.140
4262,-0.305,-0.125
4263,-0.290,-0.115
4264,-0.260,-0.120
4265,-0.245,-0.140
4266,-0.235,-0.165
4267,-0.240,-0.185
4268,-0.240,-0.195
4269,-0.225,-0.180
4270,-0.215,-0.195
4271,-0.215,-0.210
4272,-0.225,-0.205
4273,-0.240,-0.225
4274,-0.245,-0.220
4275,-0.250,-0.210
4276,-0.240,-0.220
4277,-0.250,-0.225
4278,-0.260,-0.250
4279,-0.270,-0.245
4280,-0.265,-0.245
4281,-0.265,-0.235
4282,-0.265,-0.235
4283,-0.265,-0.245
4284,-0.280,-0.270
4285,-0.295,-0.260
4286,-0.285,-0.245
4287,-0.290,-0.220
4288,-0.275,-0.220
4289,-0.285,-0.210
4290,-0.285,-0.220
4291,-0.285,-0.205
4292,-0.265,-0.190
4293,-0.255,-0.180
4294,-0.250,-0.180
4295,-0.270,-0.185
4296,-0.280,-0.195
4297,-0.270,-0.190
4298,-0.250,-0.170
4299,-0.255,-0.145
4300,-0.250,-0.155
4301,-0.255,-0.160
4302,-0.265,-0.165
4303,-0.275,-0.180
4304,-0.265,-0.165
4305,-0.265,-0.160
4306,-0.260,-0.170
4307,-0.275,-0.170
4308,-0.290,-0.175
4309,-0.295,-0.170
4310,-0.295,-0.170
4311,-0.290,-0.160
4312,-0.295,-0.165
4313,-0.300,-0.175
4314,-0.320,-0.180
4315,-0.320,-0.175
4316,-0.315,-0.160
4317,-0.320,-0.170
4318,-0.315,-0.195
4319,-0.330,-0.190
4320,-0.335,-0.200
4321,-0.345,-0.200
4322,-0.345,-0.200
4323,-0.340,-0.195
4324,-0.345,-0.190
4325,-0.340,-0.190
4326,-0.345,-0.210
4327,-0.355,-0.220
4328,-0.335,-0.205
4329,-0.310,-0.200
4330,-0.280,-0.195
4331,-0.265,-0.195
4332,-0.255,-0.195
4333,-0.255,-0.205
4334,-0.245,-0.200
4335,-0.245,-0.180
4336,-0.235,-0.165
4337,-0.230,-0.165
4338,-0.235,-0.170
4339,-0.210,-0.205
4340,-0.185,-0.280
4341,-0.145,-0.350
4342,-0.130,-0.430
4343,-0.090,-0.510
4344,-0.025,-0.585
4345,0.060,-0.670
4346,0.160,-0.780
4347,0.265,-0.900
4348,0.365,-1.005
4349,0.500,-1.055
4350,0.610,-1.035
4351,0.655,-0.975
4352,0.730,-0.885
4353,0.795,-0.770
4354,0.815,-0.625
4355,0.730,-0.465
4356,0.590,-0.360
4357,0.400,-0.285
4358,0.195,-0.245
4359,0.020,-0.240
4360,-0.080,-0.250
4361,-0.130,-0.245
4362,-0.175,-0.230
4363,-0.215,-0.220
4364,-0.225,-0.210
4365,-0.225,-0.190
4366,-0.215,-0.185
4367,-0.220,-0.185
4368,-0.250,-0.195
4369,-0.275,-0.190
4370,-0.295,-0.175
4371,-0.295,-0.155
4372,-0.295,-0.165
4373,-0.300,-0.185
4374,-0.310,-0.205
4375,-0.325,-0.210
4376,-0.325,-0.210
4377,-0.310,-0.200
4378,-0.300,-0.195
4379,-0.305,-0.210
4380,-0.325,-0.210
4381,-0.330,-0.225
4382,-0.330,-0.225
4383,-0.320,-0.225
4384,-0.310,-0.220
4385,-0.315,-0.215
4386,-0.325,-0.230
4387,-0.325,-0.235
4388,-0.310,-0.220
4389,-0.285,-0.215
4390,-0.275,-0.220
4391,-0.270,-0.240
4392,-0.290,-0.250
4393,-0.295,-0.230
4394,-0.290,-0.205
4395,-0.260,-0.180
4396,-0.255,-0.175
4397,-0.250,-0.180
4398,-0.260,-0.180
4399,-0.270,-0.180
4400,-0.255,-0.180
4401,-0.255,-0.180
4402,-0.260,-0.185
4403,-0.260,-0.200
4404,-0.275,-0.215
4405,-0.295,-0.215
4406,-0.275,-0.205
4407,-0.265,-0.195
4408,-0.260,-0.210
4409,-0.255,-0.230
4410,-0.270,-0.235
4411,-0.265,-0.245
4412,-0.255,-0.240
4413,-0.255,-0.225
4414,-0.250,-0.240
4415,-0.240,-0.245
4416,-0.250,-0.250
4417,-0.260,-0.260
4418,-0.240,-0.240
4419,-0.230,-0.240
4420,-0.230,-0.245
4421,-0.210,-0.250
4422,-0.225,-0.255
4423,-0.230,-0.275
4424,-0.215,-0.265
4425,-0.205,-0.250
4426,-0.200,-0.260
4427,-0.190,-0.275
4428,-0.195,-0.275
4429,-0.200,-0.275
4430,-0.190,-0.265
4431,-0.175,-0.250
4432,-0.165,-0.265
4433,-0.160,-0.270
4434,-0.165,-0.285
4435,-0.160,-0.270
4436,-0.150,-0.255
4437,-0.135,-0.250
4438,-0.135,-0.260
4439,-0.140,-0.260
4440,-0.160,-0.265
4441,-0.175,-0.255
4442,-0.170,-0.240
4443,-0.175,-0.225
4444,-0.180,-0.230
4445,-0.195,-0.220
4446,-0.200,-0.210
4447,-0.220,-0.200
4448,-0.210,-0.175
4449,-0.215,-0.155
4450,-0.215,-0.160
4451,-0.215,-0.170
4452,-0.220,-0.190
4453,-0.235,-0.195
4454,-0.250,-0.175
4455,-0.250,-0.175
4456,-0.255,-0.160
4457,-0.270,-0.160
4458,-0.290,-0.165
4459,-0.295,-0.160
4460,-0.295,-0.160
4461,-0.290,-0.155
4462,-0.300,-0.165
4463,-0.300,-0.185
4464,-0.305,-0.190
4465,-0.330,-0.200
4466,-0.330,-0.190
4467,-0.320,-0.180
4468,-0.320,-0.180
4469,-0.315,-0.190
4470,-0.325,-0.200
4471,-0.325,-0.200
4472,-0.320,-0.185
4473,-0.305,-0.195
4474,-0.300,-0.190
4475,-0.305,-0.200
4476,-0.315,-0.195
4477,-0.320,-0.200
4478,-0.310,-0.190
4479,-0.310,-0.190
4480,-0.295,-0.210
4481,-0.300,-0.220
4482,-0.310,-0.225
4483,-0.315,-0.220
4484,-0.310,-0.220
4485,-0.305,-0.215
4486,-0.295,-0.225
4487,-0.300,-0.225
4488,-0.300,-0.240
4489,-0.310,-0.245
4490,-0.305,-0.245
4491,-0.300,-0.240
4492,-0.290,-0.235
4493,-0.300,-0.240
4494,-0.300,-0.235
4495,-0.305,-0.225
4496,-0.295,-0.215
4497,-0.285,-0.205
4498,-0.290,-0.200
4499,-0.285,-0.200
4500,-0.285,-0.200
4501,-0.305,-0.205
4502,-0.300,-0.195
4503,-0.290,-0.190
4504,-0.285,-0.190
4505,-0.285,-0.190
4506,-0.290,-0.185
4507,-0.295,-0.180
4508,-0.295,-0.165
4509,-0.290,-0.150
4510,-0.280,-0.140
4511,-0.280,-0.150
4512,-0.280,-0.155
4513,-0.295,-0.145
4514,-0.295,-0.135
4515,-0.290,-0.125
4516,-0.285,-0.130
4517,-0.285,-0.140
4518,-0.295,-0.150
4519,-0.300,-0.150
4520,-0.290,-0.145
4521,-0.290,-0.130
4522,-0.275,-0.130
4523,-0.285,-0.140
4524,-0.290,-0.140
4525,-0.305,-0.160
4526,-0.300,-0.160
4527,-0.285,-0.150
4528,-0.290,-0.165
4529,-0.290,-0.175
4530,-0.300,-0.195
4531,-0.305,-0.200
4532,-0.300,-0.190
4533,-0.305,-0.180
4534,-0.295,-0.185
4535,-0.290,-0.185
4536,-0.300,-0.210
4537,-0.320,-0.205
4538,-0.310,-0.205
4539,-0.305,-0.195
4540,-0.300,-0.200
4541,-0.285,-0.205
4542,-0.305,-0.200
4543,-0.310,-0.205
4544,-0.305,-0.205
4545,-0.290,-0.210
4546,-0.285,-0.220
4547,-0.290,-0.225
4548,-0.295,-0.230
4549,-0.310,-0.235
4550,-0.300,-0.225
4551,-0.300,-0.215
4552,-0.285,-0.220
4553,-0.280,-0.230
4554,-0.305,-0.225
4555,-0.305,-0.220
4556,-0.305,-0.200
4557,-0.295,-0.195
4558,-0.290,-0.195
4559,-0.295,-0.195
4560,-0.300,-0.200
4561,-0.305,-0.195
4562,-0.300,-0.165
4563,-0.300,-0.145
4564,-0.295,-0.140
4565,-0.290,-0.150
4566,-0.290,-0.170
4567,-0.285,-0.160
4568,-0.270,-0.155
4569,-0.275,-0.150
4570,-0.270,-0.145
4571,-0.260,-0.140
4572,-0.275,-0.145
4573,-0.285,-0.130
4574,-0.290,-0.110
4575,-0.275,-0.085
4576,-0.255,-0.100
4577,-0.240,-0.155
4578,-0.225,-0.235
4579,-0.215,-0.355
4580,-0.195,-0.460
4581,-0.145,-0.535
4582,-0.065,-0.610
4583,0.025,-0.700
4584,0.110,-0.810
4585,0.200,-0.925
4586,0.325,-1.000
4587,0.465,-1.010
4588,0.590,-0.950
4589,0.700,-0.880
4590,0.785,-0.800
4591,0.850,-0.695
4592,0.870,-0.530
4593,0.795,-0.350
4594,0.625,-0.230
4595,0.405,-0.155
4596,0.180,-0.130
4597,-0.035,-0.160
4598,-0.165,-0.185
4599,-0.260,-0.230
4600,-0.300,-0.260
4601,-0.330,-0.270
4602,-0.340,-0.270
4603,-0.320,-0.250
4604,-0.285,-0.235
4605,-0.270,-0.220
4606,-0.275,-0.220
4607,-0.285,-0.225
4608,-0.290,-0.235
4609,-0.295,-0.235
4610,-0.305,-0.230
4611,-0.305,-0.200
4612,-0.305,-0.195
4613,-0.310,-0.195
4614,-0.325,-0.190
4615,-0.335,-0.185
4616,-0.330,-0.170
4617,-0.320,-0.150
4618,-0.315,-0.160
4619,-0.320,-0.165
4620,-0.320,-0.180
4621,-0.340,-0.190
4622,-0.335,-0.185
4623,-0.340,-0.180
4624,-0.330,-0.180
4625,-0.335,-0.195
4626,-0.350,-0.210
4627,-0.370,-0.200
4628,-0.360,-0.205
4629,-0.350,-0.195
4630,-0.350,-0.210
4631,-0.350,-0.225
4632,-0.340,-0.230
4633,-0.350,-0.225
4634,-0.350,-0.205
4635,-0.345,-0.200
4636,-0.330,-0.210
4637,-0.330,-0.240
4638,-0.320,-0.255
4639,-0.345,-0.275
4640,-0.340,-0.270
4641,-0.320,-0.260
4642,-0.300,-0.270
4643,-0.310,-0.285
4644,-0.315,-0.305
4645,-0.325,-0.310
4646,-0.300,-0.310
4647,-0.295,-0.305
4648,-0.270,-0.300
4649,-0.275,-0.310
4650,-0.285,-0.320
4651,-0.280,-0.325
4652,-0.255,-0.310
4653,-0.255,-0.295
4654,-0.230,-0.300
4655,-0.220,-0.305
4656,-0.235,-0.325
4657,-0.235,-0.320
4658,-0.225,-0.315
4659,-0.215,-0.300
4660,-0.190,-0.310
4661,-0.185,-0.320
4662,-0.180,-0.330
4663,-0.195,-0.325
4664,-0.180,-0.310
4665,-0.170,-0.295
4666,-0.150,-0.285
4667,-0.150,-0.285
4668,-0.150,-0.280
4669,-0.140,-0.275
4670,-0.140,-0.270
4671,-0.115,-0.275
4672,-0.115,-0.280
4673,-0.125,-0.280
4674,-0.145,-0.285
4675,-0.150,-0.290
4676,-0.145,-0.275
4677,-0.145,-0.260
4678,-0.150,-0.260
4679,-0.155,-0.250
4680,-0.170,-0.250
4681,-0.185,-0.250
4682,-0.190,-0.240
4683,-0.185,-0.220
4684,-0.200,-0.215
4685,-0.215,-0.215
4686,-0.230,-0.230
4687,-0.255,-0.225
4688,-0.255,-0.210
4689,-0.265,-0.195
4690,-0.260,-0.200
4691,-0.260,-0.205
4692,-0.275,-0.220
4693,-0.295,-0.230
4694,-0.300,-0.230
4695,-0.305,-0.230
4696,-0.305,-0.250
4697,-0.315,-0.240
4698,-0.315,-0.265
4699,-0.330,-0.265
4700,-0.330,-0.260
4701,-0.325,-0.250
4702,-0.315,-0.250
4703,-0.320,-0.250
4704,-0.320,-0.265
4705,-0.335,-0.260
4706,-0.335,-0.240
4707,-0.325,-0.230
4708,-0.315,-0.225
4709,-0.315,-0.235
4710,-0.315,-0.235
4711,-0.330,-0.230
4712,-0.320,-0.220
4713,-0.320,-0.205
4714,-0.315,-0.215
4715,-0.320,-0.225
4716,-0.325,-0.245
4717,-0.330,-0.240
4718,-0.325,-0.235
4719,-0.320,-0.200
4720,-0.305,-0.185
4721,-0.305,-0.185
4722,-0.310,-0.195
4723,-0.325,-0.185
4724,-0.315,-0.185
4725,-0.300,-0.170
4726,-0.290,-0.160
4727,-0.300,-0.160
4728,-0.305,-0.170
4729,-0.320,-0.160
4730,-0.315,-0.160
4731,-0.305,-0.155
4732,-0.300,-0.155
4733,-0.305,-0.155
4734,-0.320,-0.165
4735,-0.325,-0.170
4736,-0.320,-0.150
4737,-0.315,-0.140
4738,-0.315,-0.155
4739,-0.330,-0.155
4740,-0.325,-0.170
4741,-0.330,-0.155
4742,-0.330,-0.150
4743,-0.325,-0.130
4744,-0.300,-0.125
4745,-0.305,-0.120
4746,-0.310,-0.130
4747,-0.310,-0.125
4748,-0.310,-0.115
4749,-0.305,-0.110
4750,-0.290,-0.110
4751,-0.300,-0.130
4752,-0.305,-0.140
4753,-0.325,-0.150
4754,-0.320,-0.155
4755,-0.305,-0.145
4756,-0.290,-0.150
4757,-0.290,-0.165
4758,-0.295,-0.175
4759,-0.300,-0.180
4760,-0.290,-0.165
4761,-0.285,-0.165
4762,-0.280,-0.170
4763,-0.275,-0.180
4764,-0.290,-0.200
4765,-0.290,-0.210
4766,-0.290,-0.205
4767,-0.290,-0.200
4768,-0.290,-0.215
4769,-0.290,-0.230
4770,-0.310,-0.245
4771,-0.315,-0.245
4772,-0.330,-0.240
4773,-0.320,-0.245
4774,-0.315,-0.245
4775,-0.310,-0.240
4776,-0.320,-0.235
4777,-0.330,-0.230
4778,-0.325,-0.210
4779,-0.315,-0.195
4780,-0.305,-0.190
4781,-0.315,-0.190
4782,-0.315,-0.210
4783,-0.325,-0.220
4784,-0.335,-0.210
4785,-0.325,-0.205
4786,-0.315,-0.205
4787,-0.325,-0.225
4788,-0.335,-0.230
4789,-0.350,-0.240
4790,-0.350,-0.220
4791,-0.340,-0.215
4792,-0.340,-0.215
4793,-0.350,-0.220
4794,-0.365,-0.225
4795,-0.365,-0.230
4796,-0.365,-0.220
4797,-0.355,-0.190
4798,-0.340,-0.190
4799,-0.345,-0.205
4800,-0.355,-0.215
4801,-0.370,-0.215
4802,-0.365,-0.205
4803,-0.350,-0.195
4804,-0.345,-0.195
4805,-0.350,-0.200
4806,-0.360,-0.220
4807,-0.365,-0.210
4808,-0.365,-0.215
4809,-0.350,-0.200
4810,-0.345,-0.210
4811,-0.340,-0.205
4812,-0.360,-0.215
4813,-0.360,-0.215
4814,-0.345,-0.195
4815,-0.335,-0.175
4816,-0.335,-0.185
4817,-0.340,-0.160
4818,-0.350,-0.165
4819,-0.345,-0.150
4820,-0.345,-0.145
4821,-0.325,-0.135
4822,-0.315,-0.145
4823,-0.300,-0.150
4824,-0.305,-0.155
4825,-0.295,-0.160
4826,-0.270,-0.160
4827,-0.265,-0.165
4828,-0.250,-0.170
4829,-0.255,-0.160
4830,-0.275,-0.150
4831,-0.270,-0.115
4832,-0.230,-0.095
4833,-0.200,-0.090
4834,-0.170,-0.140
4835,-0.145,-0.235
4836,-0.135,-0.345
4837,-0.130,-0.465
4838,-0.085,-0.555
4839,0.005,-0.635
4840,0.100,-0.730
4841,0.205,-0.855
4842,0.295,-0.975
4843,0.410,-1.035
4844,0.545,-1.005
4845,0.665,-0.920
4846,0.760,-0.855
4847,0.845,-0.760
4848,0.885,-0.635
4849,0.825,-0.460
4850,0.670,-0.305
4851,0.470,-0.210
4852,0.260,-0.160
4853,0.030,-0.165
4854,-0.135,-0.220
4855,-0.245,-0.265
4856,-0.320,-0.275
4857,-0.350,-0.265
4858,-0.330,-0.255
4859,-0.300,-0.260
4860,-0.280,-0.260
4861,-0.295,-0.255
4862,-0.290,-0.245
4863,-0.300,-0.230
4864,-0.300,-0.225
4865,-0.310,-0.235
4866,-0.330,-0.245
4867,-0.335,-0.245
4868,-0.340,-0.245
4869,-0.345,-0.230
4870,-0.350,-0.230
4871,-0.355,-0.220
4872,-0.355,-0.220
4873,-0.360,-0.225
4874,-0.360,-0.200
4875,-0.350,-0.195
4876,-0.340,-0.195
4877,-0.335,-0.170
4878,-0.340,-0.170
4879,-0.350,-0.160
4880,-0.340,-0.140
4881,-0.325,-0.130
4882,-0.315,-0.130
4883,-0.310,-0.125
4884,-0.310,-0.135
4885,-0.325,-0.130
4886,-0.320,-0.115
4887,-0.315,-0.100
4888,-0.310,-0.100
4889,-0.300,-0.100
4890,-0.305,-0.110
4891,-0.300,-0.130
4892,-0.285,-0.125
4893,-0.275,-0.125
4894,-0.260,-0.140
4895,-0.260,-0.160
4896,-0.270,-0.165
4897,-0.280,-0.170
4898,-0.275,-0.175
4899,-0.255,-0.200
4900,-0.245,-0.220
4901,-0.245,-0.245
4902,-0.245,-0.260
4903,-0.255,-0.270
4904,-0.250,-0.260
4905,-0.245,-0.255
4906,-0.230,-0.265
4907,-0.230,-0.280
4908,-0.235,-0.285
4909,-0.235,-0.290
4910,-0.235,-0.285
4911,-0.235,-0.280
4912,-0.220,-0.285
4913,-0.230,-0.290
4914,-0.225,-0.305
4915,-0.235,-0.320
4916,-0.220,-0.310
4917,-0.220,-0.305
4918,-0.215,-0.300
4919,-0.210,-0.305
4920,-0.200,-0.320
4921,-0.220,-0.315
4922,-0.200,-0.310
4923,-0.195,-0.305
4924,-0.180,-0.285
4925,-0.175,-0.285
4926,-0.180,-0.295
4927,-0.180,-0.290
4928,-0.175,-0.275
4929,-0.145,-0.260
4930,-0.140,-0.245
4931,-0.145,-0.245
4932,-0.155,-0.240
4933,-0.170,-0.225
4934,-0.175,-0.190
4935,-0.180,-0.180
4936,-0.200,-0.175
4937,-0.200,-0.185
4938,-0.210,-0.190
4939,-0.230,-0.185
4940,-0.235,-0.170
4941,-0.235,-0.160
4942,-0.240,-0.150
4943,-0.250,-0.155
4944,-0.275,-0.165
4945,-0.290,-0.155
4946,-0.285,-0.135
4947,-0.265,-0.125
4948,-0.260,-0.135
4949,-0.275,-0.140
4950,-0.270,-0.145
4951,-0.275,-0.135
4952,-0.275,-0.130
4953,-0.255,-0.125
4954,-0.255,-0.140
4955,-0.265,-0.155
4956,-0.270,-0.165
4957,-0.275,-0.185
4958,-0.270,-0.170
4959,-0.260,-0.180
4960,-0.255,-0.210
4961,-0.265,-0.225
4962,-0.270,-0.240
4963,-0.270,-0.240
4964,-0.265,-0.240
4965,-0.270,-0.240
4966,-0.265,-0.250
4967,-0.265,-0.245
4968,-0.275,-0.255
4969,-0.280,-0.255
4970,-0.270,-0.250
4971,-0.265,-0.235
4972,-0.255,-0.255
4973,-0.260,-0.265
4974,-0.245,-0.270
4975,-0.240,-0.280
4976,-0.215,-0.300
4977,-0.180,-0.360
4978,-0.160,-0.465
4979,-0.130,-0.555
4980,-0.095,-0.625
4981,-0.025,-0.660
4982,0.105,-0.685
4983,0.230,-0.725
4984,0.340,-0.790
4985,0.420,-0.860
4986,0.530,-0.925
4987,0.645,-0.925
4988,0.755,-0.895
4989,0.820,-0.825
4990,0.820,-0.745
4991,0.760,-0.645
4992,0.645,-0.525
4993,0.510,-0.365
4994,0.355,-0.270
4995,0.165,-0.245
4996,-0.005,-0.240
4997,-0.120,-0.210
4998,-0.150,-0.185
4999,-0.175,-0.185
5000,-0.215,-0.165
5001,-0.250,-0.160
5002,-0.255,-0.165
5003,-0.270,-0.140
5004,-0.275,-0.145
5005,-0.285,-0.145
5006,-0.285,-0.145
5007,-0.285,-0.130
5008,-0.285,-0.130
5009,-0.295,-0.145
5010,-0.315,-0.150
5011,-0.315,-0.150
5012,-0.320,-0.150
5013,-0.315,-0.140
5014,-0.310,-0.160
5015,-0.315,-0.165
5016,-0.315,-0.180
5017,-0.325,-0.180
5018,-0.310,-0.160
5019,-0.305,-0.165
5020,-0.300,-0.180
5021,-0.300,-0.185
5022,-0.305,-0.205
5023,-0.315,-0.200
5024,-0.305,-0.205
5025,-0.305,-0.200
5026,-0.300,-0.205
5027,-0.305,-0.195
5028,-0.315,-0.205
5029,-0.315,-0.205
5030,-0.310,-0.185
5031,-0.300,-0.185
5032,-0.295,-0.185
5033,-0.295,-0.195
5034,-0.310,-0.195
5035,-0.310,-0.200
5036,-0.310,-0.170
5037,-0.300,-0.170
5038,-0.290,-0.175
5039,-0.290,-0.175
5040,-0.305,-0.200
5041,-0.310,-0.190
5042,-0.295,-0.185
5043,-0.280,-0.165
5044,-0.280,-0.175
5045,-0.285,-0.175
5046,-0.280,-0.185
5047,-0.305,-0.180
5048,-0.295,-0.160
5049,-0.295,-0.170
5050,-0.280,-0.175
5051,-0.275,-0.185
5052,-0.275,-0.190
5053,-0.280,-0.185
5054,-0.265,-0.175
5055,-0.250,-0.160
5056,-0.250,-0.170
5057,-0.240,-0.170
5058,-0.255,-0.190
5059,-0.255,-0.195
5060,-0.240,-0.195
5061,-0.235,-0.180
5062,-0.225,-0.200
5063,-0.225,-0.205
5064,-0.230,-0.225
5065,-0.230,-0.220
5066,-0.225,-0.215
5067,-0.220,-0.195
5068,-0.210,-0.190
5069,-0.220,-0.185
5070,-0.220,-0.195
5071,-0.220,-0.190
5072,-0.205,-0.160
5073,-0.185,-0.150
5074,-0.170,-0.160
5075,-0.160,-0.160
5076,-0.155,-0.170
5077,-0.175,-0.175
5078,-0.165,-0.170
5079,-0.155,-0.165
5080,-0.155,-0.160
5081,-0.155,-0.160
5082,-0.165,-0.170
5083,-0.180,-0.185
5084,-0.190,-0.180
5085,-0.170,-0.185
5086,-0.170,-0.190
5087,-0.180,-0.205
5088,-0.210,-0.225
5089,-0.225,-0.215
5090,-0.225,-0.215
5091,-0.230,-0.190
5092,-0.235,-0.200
5093,-0.240,-0.200
5094,-0.250,-0.210
5095,-0.255,-0.220
5096,-0.255,-0.220
5097,-0.255,-0.195
5098,-0.255,-0.190
5099,-0.255,-0.195
5100,-0.270,-0.215
5101,-0.275,-0.210
5102,-0.280,-0.200
5103,-0.280,-0.195
5104,-0.275,-0.190
5105,-0.265,-0.195
5106,-0.280,-0.205
5107,-0.290,-0.200
5108,-0.290,-0.190
5109,-0.290,-0.185
5110,-0.280,-0.185
5111,-0.285,-0.200
5112,-0.290,-0.205
5113,-0.300,-0.200
5114,-0.300,-0.180
5115,-0.285,-0.190
5116,-0.290,-0.180
5117,-0.280,-0.185
5118,-0.290,-0.195
5119,-0.300,-0.200
5120,-0.300,-0.190
5121,-0.280,-0.160
5122,-0.290,-0.165
5123,-0.285,-0.160
5124,-0.290,-0.165
5125,-0.305,-0.155
5126,-0.290,-0.150
5127,-0.285,-0.150
5128,-0.280,-0.155
5129,-0.285,-0.170
5130,-0.290,-0.175
5131,-0.310,-0.190
5132,-0.315,-0.175
5133,-0.310,-0.155
5134,-0.305,-0.165
5135,-0.325,-0.160
5136,-0.335,-0.170
5137,-0.350,-0.160
5138,-0.345,-0.125
5139,-0.335,-0.100
5140,-0.310,-0.115
5141,-0.280,-0.105
5142,-0.275,-0.125
5143,-0.285,-0.135
5144,-0.270,-0.140
5145,-0.265,-0.130
5146,-0.260,-0.140
5147,-0.260,-0.155
5148,-0.280,-0.155
5149,-0.285,-0.175
5150,-0.285,-0.160
5151,-0.275,-0.155
5152,-0.280,-0.170
5153,-0.265,-0.185
5154,-0.285,-0.190
5155,-0.295,-0.205
5156,-0.280,-0.190
5157,-0.285,-0.185
5158,-0.280,-0.190
5159,-0.300,-0.200
5160,-0.310,-0.235
5161,-0.325,-0.235
5162,-0.320,-0.225
5163,-0.320,-0.205
5164,-0.315,-0.215
5165,-0.325,-0.220
5166,-0.340,-0.225
5167,-0.345,-0.225
5168,-0.345,-0.220
5169,-0.340,-0.205
5170,-0.330,-0.210
5171,-0.330,-0.215
5172,-0.345,-0.240
5173,-0.345,-0.240
5174,-0.340,-0.230
5175,-0.330,-0.205
5176,-0.315,-0.210
5177,-0.320,-0.210
5178,-0.330,-0.215
5179,-0.350,-0.210
5180,-0.350,-0.195
5181,-0.345,-0.170
5182,-0.345,-0.185
5183,-0.345,-0.190
5184,-0.355,-0.190
5185,-0.370,-0.195
5186,-0.370,-0.170
5187,-0.365,-0.150
5188,-0.350,-0.160
5189,-0.360,-0.160
5190,-0.370,-0.180
5191,-0.390,-0.175
5192,-0.395,-0.160
5193,-0.395,-0.150
5194,-0.385,-0.140
5195,-0.375,-0.150
5196,-0.400,-0.150
5197,-0.400,-0.155
5198,-0.390,-0.125
5199,-0.355,-0.095
5200,-0.325,-0.080
5201,-0.320,-0.075
5202,-0.320,-0.090
5203,-0.310,-0.090
5204,-0.295,-0.070
5205,-0.275,-0.065
5206,-0.250,-0.060
5207,-0.230,-0.100
5208,-0.215,-0.175
5209,-0.200,-0.275
5210,-0.170,-0.370
5211,-0.125,-0.435
5212,-0.050,-0.540
5213,0.055,-0.645
5214,0.155,-0.765
5215,0.250,-0.895
5216,0.370,-1.005
5217,0.505,-1.050
5218,0.630,-1.030
5219,0.705,-0.970
5220,0.760,-0.915
5221,0.815,-0.790
5222,0.820,-0.615
5223,0.745,-0.455
5224,0.615,-0.360
5225,0.445,-0.305
5226,0.240,-0.285
5227,0.060,-0.295
5228,-0.055,-0.295
5229,-0.120,-0.290
5230,-0.165,-0.265
5231,-0.205,-0.250
5232,-0.230,-0.250
5233,-0.235,-0.255
5234,-0.225,-0.225
5235,-0.225,-0.205
5236,-0.225,-0.225
5237,-0.255,-0.215
5238,-0.275,-0.215
5239,-0.290,-0.215
5240,-0.290,-0.215
5241,-0.305,-0.205
5242,-0.305,-0.215
5243,-0.310,-0.230
5244,-0.330,-0.230
5245,-0.345,-0.235
5246,-0.340,-0.205
5247,-0.345,-0.195
5248,-0.350,-0.195
5249,-0.365,-0.195
5250,-0.375,-0.205
5251,-0.385,-0.200
5252,-0.370,-0.200
5253,-0.360,-0.180
5254,-0.350,-0.180
5255,-0.360,-0.175
5256,-0.375,-0.175
5257,-0.370,-0.180
5258,-0.365,-0.160
5259,-0.365,-0.150
5260,-0.360,-0.155
5261,-0.370,-0.155
5262,-0.385,-0.150
5263,-0.390,-0.140
5264,-0.385,-0.115
5265,-0.385,-0.115
5266,-0.370,-0.115
5267,-0.375,-0.115
5268,-0.355,-0.115
5269,-0.350,-0.105
5270,-0.315,-0.105
5271,-0.290,-0.110
5272,-0.280,-0.125
5273,-0.280,-0.150
5274,-0.280,-0.165
5275,-0.290,-0.160
5276,-0.270,-0.155
5277,-0.260,-0.155
5278,-0.245,-0.165
5279,-0.245,-0.185
5280,-0.260,-0.195
5281,-0.255,-0.195
5282,-0.245,-0.190
5283,-0.240,-0.210
5284,-0.235,-0.225
5285,-0.240,-0.260
5286,-0.245,-0.275
5287,-0.260,-0.285
5288,-0.255,-0.280
5289,-0.245,-0.270
5290,-0.250,-0.285
5291,-0.245,-0.285
5292,-0.255,-0.300
5293,-0.260,-0.300
5294,-0.250,-0.285
5295,-0.245,-0.285
5296,-0.245,-0.290
5297,-0.245,-0.300
5298,-0.255,-0.295
5299,-0.255,-0.295
5300,-0.230,-0.290
5301,-0.235,-0.285
5302,-0.230,-0.295
5303,-0.225,-0.310
5304,-0.220,-0.320
5305,-0.215,-0.305
5306,-0.215,-0.295
5307,-0.215,-0.265
5308,-0.210,-0.270
5309,-0.220,-0.265
5310,-0.225,-0.270
5311,-0.230,-0.270
5312,-0.235,-0.270
5313,-0.230,-0.245
5314,-0.230,-0.240
5315,-0.245,-0.230
5316,-0.240,-0.240
5317,-0.250,-0.230
5318,-0.250,-0.205
5319,-0.250,-0.195
5320,-0.250,-0.195
5321,-0.270,-0.195
5322,-0.280,-0.195
5323,-0.285,-0.190
5324,-0.290,-0.160
5325,-0.275,-0.150
5326,-0.275,-0.165
5327,-0.275,-0.170
5328,-0.290,-0.180
5329,-0.295,-0.170
5330,-0.290,-0.165
5331,-0.290,-0.160
5332,-0.285,-0.170
5333,-0.275,-0.185
5334,-0.275,-0.185
5335,-0.280,-0.185
5336,-0.255,-0.180
5337,-0.240,-0.175
5338,-0.225,-0.175
5339,-0.230,-0.195
5340,-0.230,-0.205
5341,-0.235,-0.225
5342,-0.230,-0.220
5343,-0.220,-0.200
5344,-0.225,-0.225
5345,-0.225,-0.235
5346,-0.235,-0.255
5347,-0.240,-0.270
5348,-0.235,-0.255
5349,-0.225,-0.250
5350,-0.230,-0.265
5351,-0.225,-0.265
5352,-0.245,-0.265
5353,-0.260,-0.290
5354,-0.255,-0.270
5355,-0.250,-0.275
5356,-0.245,-0.290
5357,-0.255,-0.295
5358,-0.265,-0.305
5359,-0.285,-0.290
5360,-0.270,-0.270
5361,-0.260,-0.245
5362,-0.265,-0.255
5363,-0.270,-0.260
5364,-0.280,-0.270
5365,-0.280,-0.250
5366,-0.285,-0.240
5367,-0.280,-0.240
5368,-0.280,-0.235
5369,-0.290,-0.235
5370,-0.300,-0.235
5371,-0.305,-0.230
5372,-0.310,-0.220
5373,-0.310,-0.205
5374,-0.295,-0.205
5375,-0.300,-0.195
5376,-0.310,-0.205
5377,-0.325,-0.195
5378,-0.310,-0.185
5379,-0.310,-0.170
5380,-0.290,-0.165
5381,-0.295,-0.165
5382,-0.305,-0.175
5383,-0.310,-0.180
5384,-0.305,-0.165
5385,-0.300,-0.145
5386,-0.290,-0.150
5387,-0.295,-0.150
5388,-0.305,-0.160
5389,-0.295,-0.165
5390,-0.290,-0.145
5391,-0.280,-0.145
5392,-0.275,-0.145
5393,-0.280,-0.165
5394,-0.290,-0.170
5395,-0.300,-0.170
5396,-0.295,-0.145
5397,-0.280,-0.130
5398,-0.260,-0.120
5399,-0.260,-0.130
5400,-0.255,-0.140
5401,-0.255,-0.150
5402,-0.245,-0.145
5403,-0.235,-0.155
5404,-0.230,-0.165
5405,-0.230,-0.180
5406,-0.245,-0.195
5407,-0.255,-0.205
5408,-0.260,-0.205
5409,-0.260,-0.215
5410,-0.260,-0.235
5411,-0.265,-0.255
5412,-0.270,-0.265
5413,-0.290,-0.280
5414,-0.285,-0.280
5415,-0.290,-0.275
5416,-0.295,-0.270
5417,-0.295,-0.270
5418,-0.305,-0.280
5419,-0.310,-0.275
5420,-0.315,-0.265
5421,-0.315,-0.255
5422,-0.305,-0.260
5423,-0.300,-0.260
5424,-0.310,-0.265
5425,-0.315,-0.260
5426,-0.305,-0.260
5427,-0.310,-0.240
5428,-0.300,-0.240
5429,-0.315,-0.250
5430,-0.315,-0.250
5431,-0.310,-0.250
5432,-0.315,-0.240
5433,-0.315,-0.235
5434,-0.305,-0.245
5435,-0.310,-0.245
5436,-0.315,-0.250
5437,-0.320,-0.240
5438,-0.320,-0.235
5439,-0.325,-0.220
5440,-0.310,-0.210
5441,-0.310,-0.215
5442,-0.315,-0.220
5443,-0.315,-0.230
5444,-0.305,-0.215
5445,-0.305,-0.210
5446,-0.290,-0.210
5447,-0.290,-0.210
5448,-0.295,-0.215
5449,-0.295,-0.200
5450,-0.300,-0.190
5451,-0.290,-0.180
5452,-0.290,-0.200
5453,-0.290,-0.205
5454,-0.295,-0.200
5455,-0.305,-0.205
5456,-0.295,-0.195
5457,-0.290,-0.190
5458,-0.280,-0.195
5459,-0.290,-0.180
5460,-0.290,-0.170
5461,-0.295,-0.150
5462,-0.280,-0.145
5463,-0.255,-0.145
5464,-0.235,-0.200
5465,-0.225,-0.280
5466,-0.215,-0.390
5467,-0.195,-0.500
5468,-0.135,-0.580
5469,-0.045,-0.665
5470,0.070,-0.760
5471,0.195,-0.895
5472,0.310,-1.010
5473,0.420,-1.065
5474,0.550,-1.055
5475,0.680,-0.985
5476,0.760,-0.925
5477,0.840,-0.840
5478,0.895,-0.750
5479,0.890,-0.595
5480,0.815,-0.430
5481,0.665,-0.305
5482,0.475,-0.220
5483,0.250,-0.165
5484,0.030,-0.170
5485,-0.135,-0.225
5486,-0.230,-0.270
5487,-0.285,-0.270
5488,-0.315,-0.275
5489,-0.325,-0.270
5490,-0.315,-0.255
5491,-0.285,-0.245
5492,-0.260,-0.225
5493,-0.260,-0.220
5494,-0.275,-0.225
5495,-0.280,-0.225
5496,-0.290,-0.225
5497,-0.315,-0.215
5498,-0.305,-0.190
5499,-0.300,-0.175
5500,-0.295,-0.175
5501,-0.300,-0.170
5502,-0.300,-0.190
5503,-0.305,-0.195
5504,-0.310,-0.190
5505,-0.305,-0.185
5506,-0.300,-0.195
5507,-0.310,-0.195
5508,-0.315,-0.205
5509,-0.315,-0.205
5510,-0.315,-0.210
5511,-0.315,-0.200
5512,-0.310,-0.225
5513,-0.320,-0.240
5514,-0.325,-0.260
5515,-0.325,-0.245
5516,-0.330,-0.260
5517,-0.320,-0.255
5518,-0.325,-0.260
5519,-0.325,-0.260
5520,-0.325,-0.275
5521,-0.330,-0.270
5522,-0.320,-0.265
5523,-0.320,-0.265
5524,-0.320,-0.280
5525,-0.320,-0.290
5526,-0.320,-0.300
5527,-0.315,-0.300
5528,-0.305,-0.300
5529,-0.305,-0.295
5530,-0.300,-0.310
5531,-0.300,-0.300
5532,-0.300,-0.305
5533,-0.305,-0.290
5534,-0.290,-0.290
5535,-0.280,-0.270
5536,-0.265,-0.265
5537,-0.255,-0.280
5538,-0.250,-0.270
5539,-0.250,-0.275
5540,-0.250,-0.280
5541,-0.230,-0.270
5542,-0.220,-0.280
5543,-0.225,-0.290
5544,-0.240,-0.305
5545,-0.250,-0.295
5546,-0.240,-0.285
5547,-0.240,-0.280
5548,-0.230,-0.275
5549,-0.225,-0.285
5550,-0.250,-0.275
5551,-0.235,-0.270
5552,-0.215,-0.265
5553,-0.210,-0.240
5554,-0.195,-0.265
5555,-0.200,-0.275
5556,-0.200,-0.285
5557,-0.205,-0.290
5558,-0.190,-0.280
5559,-0.180,-0.265
5560,-0.170,-0.270
5561,-0.160,-0.280
5562,-0.170,-0.290
5563,-0.165,-0.290
5564,-0.160,-0.275
5565,-0.165,-0.275
5566,-0.150,-0.280
5567,-0.160,-0.285
5568,-0.170,-0.285
5569,-0.170,-0.295
5570,-0.175,-0.300
5571,-0.170,-0.300
5572,-0.175,-0.295
5573,-0.185,-0.295
5574,-0.220,-0.300
5575,-0.225,-0.315
5576,-0.225,-0.300
5577,-0.230,-0.290
5578,-0.225,-0.285
5579,-0.235,-0.295
5580,-0.250,-0.295
5581,-0.250,-0.280
5582,-0.255,-0.275
5583,-0.250,-0.265
5584,-0.255,-0.280
5585,-0.260,-0.280
5586,-0.270,-0.300
5587,-0.295,-0.285
5588,-0.285,-0.265
5589,-0.285,-0.240
5590,-0.280,-0.255
5591,-0.285,-0.260
5592,-0.290,-0.275
5593,-0.280,-0.250
5594,-0.275,-0.230
5595,-0.270,-0.210
5596,-0.265,-0.215
5597,-0.275,-0.215
5598,-0.275,-0.215
5599,-0.280,-0.210
5600,-0.280,-0.190
5601,-0.275,-0.200
5602,-0.255,-0.215
5603,-0.270,-0.205
5604,-0.285,-0.215
5605,-0.295,-0.200
5606,-0.290,-0.195
5607,-0.290,-0.170
5608,-0.280,-0.180
5609,-0.280,-0.180
5610,-0.280,-0.185
5611,-0.290,-0.175
5612,-0.270,-0.180
5613,-0.265,-0.175
5614,-0.255,-0.175
5615,-0.260,-0.190
5616,-0.265,-0.200
5617,-0.270,-0.200
5618,-0.265,-0.195
5619,-0.260,-0.185
5620,-0.260,-0.205
5621,-0.275,-0.200
5622,-0.275,-0.210
5623,-0.280,-0.205
5624,-0.265,-0.200
5625,-0.265,-0.180
5626,-0.260,-0.190
5627,-0.265,-0.205
5628,-0.275,-0.230
5629,-0.280,-0.230
5630,-0.270,-0.230
5631,-0.265,-0.230
5632,-0.255,-0.230
5633,-0.265,-0.230
5634,-0.285,-0.250
5635,-0.295,-0.255
5636,-0.290,-0.240
5637,-0.285,-0.250
5638,-0.280,-0.250
5639,-0.285,-0.270
5640,-0.290,-0.280
5641,-0.290,-0.270
5642,-0.285,-0.255
5643,-0.260,-0.240
5644,-0.255,-0.245
5645,-0.250,-0.250
5646,-0.265,-0.275
5647,-0.275,-0.275
5648,-0.275,-0.270
5649,-0.275,-0.255
5650,-0.265,-0.250
5651,-0.265,-0.260
5652,-0.280,-0.280
5653,-0.285,-0.265
5654,-0.285,-0.250
5655,-0.275,-0.225
5656,-0.265,-0.215
5657,-0.270,-0.220
5658,-0.280,-0.225
5659,-0.290,-0.215
5660,-0.280,-0.210
5661,-0.265,-0.190
5662,-0.260,-0.175
5663,-0.270,-0.190
5664,-0.280,-0.190
5665,-0.285,-0.175
5666,-0.265,-0.170
5667,-0.255,-0.150
5668,-0.245,-0.150
5669,-0.245,-0.125
5670,-0.255,-0.120
5671,-0.255,-0.110
5672,-0.235,-0.100
5673,-0.220,-0.120
5674,-0.200,-0.205
5675,-0.215,-0.315
5676,-0.195,-0.420
5677,-0.180,-0.500
5678,-0.125,-0.560
5679,-0.040,-0.615
5680,0.050,-0.695
5681,0.135,-0.795
5682,0.220,-0.895
5683,0.325,-0.935
5684,0.460,-0.925
5685,0.575,-0.850
5686,0.675,-0.775
5687,0.780,-0.685
5688,0.845,-0.595
5689,0.855,-0.455
5690,0.790,-0.305
5691,0.660,-0.190
5692,0.480,-0.125
5693,0.265,-0.100
5694,0.050,-0.125
5695,-0.115,-0.170
5696,-0.230,-0.225
5697,-0.295,-0.265
5698,-0.340,-0.275
5699,-0.345,-0.275
5700,-0.310,-0.280
5701,-0.280,-0.285
5702,-0.245,-0.270
5703,-0.235,-0.255
5704,-0.255,-0.255
5705,-0.265,-0.255
5706,-0.285,-0.260
5707,-0.295,-0.265
5708,-0.300,-0.260
5709,-0.305,-0.255
5710,-0.295,-0.250
5711,-0.310,-0.260
5712,-0.315,-0.260
5713,-0.315,-0.260
5714,-0.310,-0.240
5715,-0.310,-0.235
5716,-0.310,-0.225
5717,-0.310,-0.230
5718,-0.315,-0.240
5719,-0.320,-0.240
5720,-0.320,-0.240
5721,-0.320,-0.215
5722,-0.315,-0.225
5723,-0.325,-0.220
5724,-0.335,-0.225
5725,-0.345,-0.220
5726,-0.320,-0.220
5727,-0.320,-0.200
5728,-0.310,-0.205
5729,-0.310,-0.205
5730,-0.320,-0.200
5731,-0.320,-0.180
5732,-0.315,-0.175
5733,-0.310,-0.160
5734,-0.295,-0.175
5735,-0.295,-0.185
5736,-0.300,-0.185
5737,-0.300,-0.180
5738,-0.290,-0.180
5739,-0.285,-0.160
5740,-0.280,-0.170
5741,-0.280,-0.170
5742,-0.285,-0.175
5743,-0.290,-0.190
5744,-0.285,-0.185
5745,-0.275,-0.175
5746,-0.275,-0.185
5747,-0.270,-0.200
5748,-0.275,-0.205
5749,-0.285,-0.200
5750,-0.265,-0.185
5751,-0.255,-0.160
5752,-0.245,-0.185
5753,-0.240,-0.185
5754,-0.250,-0.200
5755,-0.255,-0.215
5756,-0.245,-0.205
5757,-0.235,-0.205
5758,-0.235,-0.200
5759,-0.230,-0.205
5760,-0.235,-0.215
5761,-0.225,-0.210
5762,-0.215,-0.200
5763,-0.200,-0.190
5764,-0.195,-0.195
5765,-0.205,-0.185
5766,-0.215,-0.200
5767,-0.235,-0.195
5768,-0.225,-0.190
5769,-0.215,-0.195
5770,-0.210,-0.205
5771,-0.210,-0.210
5772,-0.215,-0.225
5773,-0.220,-0.235
5774,-0.215,-0.215
5775,-0.210,-0.205
5776,-0.200,-0.225
5777,-0.210,-0.230
5778,-0.230,-0.240
5779,-0.240,-0.250
5780,-0.230,-0.235
5781,-0.230,-0.225
5782,-0.225,-0.235
5783,-0.240,-0.255
5784,-0.245,-0.250
5785,-0.255,-0.250
5786,-0.245,-0.240
5787,-0.245,-0.240
5788,-0.245,-0.250
5789,-0.250,-0.275
5790,-0.265,-0.275
5791,-0.285,-0.285
5792,-0.275,-0.255
5793,-0.275,-0.245
5794,-0.265,-0.270
5795,-0.275,-0.280
5796,-0.295,-0.300
5797,-0.310,-0.295
5798,-0.305,-0.290
5799,-0.295,-0.265
5800,-0.300,-0.245
5801,-0.295,-0.255
5802,-0.285,-0.255
5803,-0.285,-0.245
5804,-0.285,-0.240
5805,-0.270,-0.215
5806,-0.250,-0.225
5807,-0.255,-0.225
5808,-0.260,-0.220
5809,-0.275,-0.225
5810,-0.280,-0.225
5811,-0.260,-0.210
5812,-0.270,-0.230
5813,-0.270,-0.235
5814,-0.280,-0.240
5815,-0.280,-0.235
5816,-0.275,-0.225
5817,-0.270,-0.200
5818,-0.270,-0.200
5819,-0.260,-0.210
5820,-0.270,-0.225
5821,-0.275,-0.225
5822,-0.265,-0.210
5823,-0.255,-0.205
5824,-0.240,-0.205
5825,-0.260,-0.210
5826,-0.270,-0.225
5827,-0.275,-0.210
5828,-0.275,-0.210
5829,-0.270,-0.190
5830,-0.275,-0.200
5831,-0.270,-0.205
5832,-0.270,-0.220
5833,-0.270,-0.215
5834,-0.260,-0.195
5835,-0.255,-0.180
5836,-0.255,-0.185
5837,-0.260,-0.195
5838,-0.265,-0.200
5839,-0.280,-0.220
5840,-0.280,-0.210
5841,-0.280,-0.185
5842,-0.265,-0.195
5843,-0.265,-0.200
5844,-0.275,-0.220
5845,-0.295,-0.225
5846,-0.290,-0.210
5847,-0.280,-0.200
5848,-0.285,-0.200
5849,-0.280,-0.215
5850,-0.295,-0.215
5851,-0.300,-0.205
5852,-0.300,-0.200
5853,-0.285,-0.195
5854,-0.285,-0.205
5855,-0.275,-0.215
5856,-0.290,-0.230
5857,-0.295,-0.220
5858,-0.295,-0.215
5859,-0.295,-0.200
5860,-0.290,-0.215
5861,-0.290,-0.230
5862,-0.300,-0.230
5863,-0.310,-0.240
5864,-0.300,-0.245
5865,-0.295,-0.235
5866,-0.285,-0.255
5867,-0.285,-0.275
5868,-0.285,-0.290
5869,-0.290,-0.290
5870,-0.285,-0.285
5871,-0.280,-0.250
5872,-0.275,-0.250
5873,-0.270,-0.240
5874,-0.275,-0.235
5875,-0.275,-0.230
5876,-0.245,-0.215
5877,-0.225,-0.195
5878,-0.230,-0.195
5879,-0.245,-0.205
5880,-0.255,-0.210
5881,-0.280,-0.205
5882,-0.260,-0.210
5883,-0.260,-0.190
5884,-0.260,-0.200
5885,-0.265,-0.215
5886,-0.265,-0.220
5887,-0.265,-0.220
5888,-0.265,-0.205
5889,-0.255,-0.195
5890,-0.250,-0.195
5891,-0.245,-0.205
5892,-0.260,-0.220
5893,-0.260,-0.215
5894,-0.250,-0.200
5895,-0.235,-0.200
5896,-0.235,-0.210
5897,-0.240,-0.210
5898,-0.250,-0.220
5899,-0.255,-0.225
5900,-0.260,-0.205
5901,-0.245,-0.190
5902,-0.245,-0.180
5903,-0.250,-0.180
5904,-0.255,-0.215
5905,-0.245,-0.260
5906,-0.215,-0.340
5907,-0.190,-0.405
5908,-0.165,-0.470
5909,-0.130,-0.540
5910,-0.045,-0.620
5911,0.055,-0.690
5912,0.140,-0.800
5913,0.240,-0.905
5914,0.350,-1.015
5915,0.465,-1.060
5916,0.570,-1.040
5917,0.630,-1.000
5918,0.705,-0.925
5919,0.775,-0.815
5920,0.800,-0.675
5921,0.750,-0.550
5922,0.640,-0.455
5923,0.515,-0.385
5924,0.340,-0.345
5925,0.155,-0.330
5926,0.010,-0.355
5927,-0.080,-0.360
5928,-0.150,-0.350
5929,-0.180,-0.315
5930,-0.210,-0.300
5931,-0.220,-0.280
5932,-0.210,-0.265
5933,-0.210,-0.255
5934,-0.225,-0.245
5935,-0.235,-0.220
5936,-0.235,-0.205
5937,-0.245,-0.195
5938,-0.245,-0.195
5939,-0.245,-0.195
5940,-0.255,-0.195
5941,-0.260,-0.185
5942,-0.250,-0.160
5943,-0.250,-0.155
5944,-0.240,-0.165
5945,-0.245,-0.190
5946,-0.255,-0.190
5947,-0.265,-0.200
5948,-0.245,-0.175
5949,-0.235,-0.170
5950,-0.230,-0.175
5951,-0.240,-0.200
5952,-0.260,-0.225
5953,-0.265,-0.220
5954,-0.250,-0.210
5955,-0.245,-0.200
5956,-0.255,-0.195
5957,-0.255,-0.205
5958,-0.265,-0.215
5959,-0.260,-0.210
5960,-0.255,-0.205
5961,-0.245,-0.185
5962,-0.245,-0.200
5963,-0.260,-0.200
5964,-0.270,-0.220
5965,-0.280,-0.220
5966,-0.270,-0.215
5967,-0.265,-0.195
5968,-0.260,-0.195
5969,-0.270,-0.210
5970,-0.275,-0.215
5971,-0.290,-0.220
5972,-0.280,-0.205
5973,-0.280,-0.190
5974,-0.270,-0.200
5975,-0.285,-0.215
5976,-0.290,-0.230
5977,-0.305,-0.230
5978,-0.300,-0.225
5979,-0.290,-0.210
5980,-0.300,-0.230
5981,-0.310,-0.245
5982,-0.305,-0.255
5983,-0.310,-0.270
5984,-0.290,-0.270
5985,-0.285,-0.265
5986,-0.280,-0.275
5987,-0.285,-0.285
5988,-0.295,-0.295
5989,-0.285,-0.310
5990,-0.285,-0.290
5991,-0.265,-0.285
5992,-0.245,-0.290
5993,-0.245,-0.295
5994,-0.240,-0.320
5995,-0.240,-0.310
5996,-0.235,-0.310
5997,-0.225,-0.305
5998,-0.210,-0.305
5999,-0.205,-0.295
6000,-0.215,-0.305
6001,-0.220,-0.305
6002,-0.185,-0.285
6003,-0.170,-0.260
6004,-0.145,-0.255
6005,-0.140,-0.245
6006,-0.135,-0.245
6007,-0.145,-0.255
6008,-0.135,-0.235
6009,-0.110,-0.225
6010,-0.105,-0.230
6011,-0.110,-0.225
6012,-0.130,-0.225
6013,-0.130,-0.225
6014,-0.135,-0.205
6015,-0.130,-0.200
6016,-0.125,-0.220
6017,-0.135,-0.220
6018,-0.145,-0.225
6019,-0.160,-0.235
6020,-0.165,-0.225
6021,-0.165,-0.200
6022,-0.160,-0.210
6023,-0.180,-0.210
6024,-0.195,-0.225
6025,-0.200,-0.225
6026,-0.210,-0.215
6027,-0.210,-0.210
6028,-0.215,-0.205
6029,-0.230,-0.200
6030,-0.245,-0.200
6031,-0.260,-0.210
6032,-0.260,-0.185
6033,-0.265,-0.180
6034,-0.270,-0.180
6035,-0.275,-0.185
6036,-0.285,-0.190
6037,-0.290,-0.185
6038,-0.290,-0.190
6039,-0.285,-0.185
6040,-0.285,-0.195
6041,-0.285,-0.210
6042,-0.295,-0.225
6043,-0.305,-0.205
6044,-0.300,-0.200
6045,-0.295,-0.185
6046,-0.290,-0.190
6047,-0.295,-0.200
6048,-0.290,-0.195
6049,-0.285,-0.190
6050,-0.280,-0.185
6051,-0.265,-0.180
6052,-0.265,-0.185
6053,-0.265,-0.195
6054,-0.270,-0.205
6055,-0.275,-0.205
6056,-0.255,-0.190
6057,-0.250,-0.200
6058,-0.240,-0.215
6059,-0.245,-0.235
6060,-0.245,-0.250
6061,-0.235,-0.275
6062,-0.235,-0.275
6063,-0.215,-0.270
6064,-0.200,-0.270
6065,-0.205,-0.275
6066,-0.215,-0.290
6067,-0.215,-0.260
6068,-0.215,-0.265
6069,-0.200,-0.260
6070,-0.195,-0.255
6071,-0.210,-0.250
6072,-0.215,-0.250
6073,-0.210,-0.235
6074,-0.200,-0.210
6075,-0.195,-0.195
6076,-0.185,-0.200
6077,-0.190,-0.210
6078,-0.195,-0.225
6079,-0.195,-0.215
6080,-0.190,-0.210
6081,-0.185,-0.210
6082,-0.175,-0.220
6083,-0.180,-0.230
6084,-0.195,-0.240
6085,-0.200,-0.235
6086,-0.190,-0.225
6087,-0.190,-0.230
6088,-0.175,-0.260
6089,-0.165,-0.325
6090,-0.165,-0.420
6091,-0.130,-0.495
6092,-0.090,-0.555
6093,-0.030,-0.620
6094,0.065,-0.690
6095,0.140,-0.765
6096,0.215,-0.845
6097,0.280,-0.945
6098,0.370,-1.015
6099,0.465,-1.050
6100,0.560,-1.050
6101,0.635,-1.015
6102,0.680,-0.960
6103,0.710,-0.850
6104,0.710,-0.710
6105,0.660,-0.550
6106,0.550,-0.415
6107,0.385,-0.305
6108,0.200,-0.260
6109,0.025,-0.250
6110,-0.095,-0.250
6111,-0.140,-0.250
6112,-0.145,-0.240
6113,-0.160,-0.220
6114,-0.185,-0.220
6115,-0.210,-0.190
6116,-0.210,-0.175
6117,-0.200,-0.175
6118,-0.200,-0.165
6119,-0.215,-0.180
6120,-0.230,-0.185
6121,-0.250,-0.190
6122,-0.260,-0.180
6123,-0.265,-0.185
6124,-0.260,-0.200
6125,-0.270,-0.210
6126,-0.280,-0.235
6127,-0.275,-0.240
6128,-0.275,-0.240
6129,-0.250,-0.235
6130,-0.250,-0.225
6131,-0.250,-0.225
6132,-0.275,-0.215
6133,-0.285,-0.210
6134,-0.270,-0.185
6135,-0.265,-0.180
6136,-0.255,-0.195
6137,-0.270,-0.205
6138,-0.275,-0.210
6139,-0.295,-0.215
6140,-0.290,-0.200
6141,-0.280,-0.205
6142,-0.295,-0.205
6143,-0.295,-0.210
6144,-0.310,-0.215
6145,-0.320,-0.205
6146,-0.310,-0.190
6147,-0.295,-0.180
6148,-0.295,-0.190
6149,-0.300,-0.190
6150,-0.305,-0.205
6151,-0.320,-0.200
6152,-0.300,-0.185
6153,-0.290,-0.180
6154,-0.290,-0.185
6155,-0.290,-0.205
6156,-0.300,-0.235
6157,-0.310,-0.255
6158,-0.285,-0.245
6159,-0.290,-0.250
6160,-0.285,-0.245
6161,-0.285,-0.255
6162,-0.300,-0.260
6163,-0.295,-0.255
6164,-0.275,-0.245
6165,-0.260,-0.245
6166,-0.245,-0.250
6167,-0.245,-0.260
6168,-0.240,-0.260
6169,-0.240,-0.255
6170,-0.225,-0.245
6171,-0.215,-0.235
6172,-0.205,-0.230
6173,-0.205,-0.250
6174,-0.215,-0.265
6175,-0.215,-0.275
6176,-0.205,-0.275
6177,-0.190,-0.290
6178,-0.170,-0.295
6179,-0.165,-0.315
6180,-0.165,-0.315
6181,-0.160,-0.305
6182,-0.155,-0.290
6183,-0.135,-0.275
6184,-0.130,-0.280
6185,-0.125,-0.290
6186,-0.140,-0.285
6187,-0.135,-0.270
6188,-0.125,-0.230
6189,-0.110,-0.220
6190,-0.105,-0.215
6191,-0.110,-0.215
6192,-0.115,-0.225
6193,-0.125,-0.215
6194,-0.130,-0.195
6195,-0.130,-0.180
6196,-0.140,-0.180
6197,-0.145,-0.195
6198,-0.165,-0.190
6199,-0.175,-0.185
6200,-0.180,-0.185
6201,-0.185,-0.175
6202,-0.185,-0.185
6203,-0.200,-0.195
6204,-0.220,-0.200
6205,-0.230,-0.180
6206,-0.230,-0.170
6207,-0.225,-0.170
6208,-0.230,-0.175
6209,-0.245,-0.190
6210,-0.255,-0.200
6211,-0.265,-0.200
6212,-0.260,-0.195
6213,-0.260,-0.185
6214,-0.260,-0.200
6215,-0.265,-0.205
6216,-0.275,-0.215
6217,-0.270,-0.205
6218,-0.265,-0.190
6219,-0.260,-0.185
6220,-0.250,-0.195
6221,-0.265,-0.210
6222,-0.265,-0.230
6223,-0.275,-0.225
6224,-0.260,-0.200
6225,-0.255,-0.175
6226,-0.255,-0.185
6227,-0.255,-0.195
6228,-0.255,-0.215
6229,-0.275,-0.215
6230,-0.255,-0.210
6231,-0.250,-0.200
6232,-0.250,-0.200
6233,-0.260,-0.230
6234,-0.265,-0.240
6235,-0.265,-0.240
6236,-0.255,-0.240
6237,-0.235,-0.235
6238,-0.235,-0.240
6239,-0.225,-0.245
6240,-0.245,-0.250
6241,-0.250,-0.220
6242,-0.235,-0.205
6243,-0.225,-0.205
6244,-0.225,-0.205
6245,-0.235,-0.210
6246,-0.245,-0.205
6247,-0.255,-0.190
6248,-0.245,-0.175
6249,-0.250,-0.170
6250,-0.245,-0.175
6251,-0.245,-0.160
6252,-0.250,-0.180
6253,-0.255,-0.165
6254,-0.245,-0.160
6255,-0.245,-0.170
6256,-0.245,-0.175
6257,-0.255,-0.195
6258,-0.255,-0.210
6259,-0.270,-0.200
6260,-0.255,-0.200
6261,-0.240,-0.190
6262,-0.255,-0.190
6263,-0.265,-0.205
6264,-0.265,-0.215
6265,-0.285,-0.210
6266,-0.265,-0.195
6267,-0.270,-0.190
6268,-0.270,-0.185
6269,-0.290,-0.210
6270,-0.295,-0.215
6271,-0.300,-0.195
6272,-0.290,-0.185
6273,-0.285,-0.175
6274,-0.280,-0.170
6275,-0.285,-0.190
6276,-0.295,-0.210
6277,-0.305,-0.205
6278,-0.300,-0.200
6279,-0.290,-0.195
6280,-0.290,-0.195
6281,-0.300,-0.210
6282,-0.305,-0.225
6283,-0.310,-0.205
6284,-0.290,-0.190
6285,-0.285,-0.185
6286,-0.285,-0.185
6287,-0.300,-0.175
6288,-0.300,-0.190
6289,-0.300,-0.180
6290,-0.295,-0.190
6291,-0.280,-0.185
6292,-0.280,-0.190
6293,-0.290,-0.200
6294,-0.285,-0.210
6295,-0.300,-0.210
6296,-0.295,-0.205
6297,-0.280,-0.195
6298,-0.280,-0.200
6299,-0.290,-0.210
6300,-0.290,-0.225
6301,-0.280,-0.230
6302,-0.270,-0.220
6303,-0.255,-0.215
6304,-0.250,-0.215
6305,-0.250,-0.225
6306,-0.230,-0.220
6307,-0.235,-0.205
6308,-0.225,-0.195
6309,-0.215,-0.195
6310,-0.220,-0.195
6311,-0.240,-0.195
6312,-0.245,-0.210
6313,-0.245,-0.190
6314,-0.245,-0.180
6315,-0.240,-0.160
6316,-0.240,-0.150
6317,-0.245,-0.170
6318,-0.250,-0.185
6319,-0.250,-0.185
6320,-0.235,-0.165
6321,-0.240,-0.155
6322,-0.240,-0.160
6323,-0.240,-0.170
6324,-0.250,-0.190
6325,-0.240,-0.170
6326,-0.225,-0.165
6327,-0.220,-0.160
6328,-0.230,-0.165
6329,-0.245,-0.185
6330,-0.250,-0.185
6331,-0.250,-0.195
6332,-0.260,-0.170
6333,-0.240,-0.180
6334,-0.235,-0.210
6335,-0.260,-0.215
6336,-0.265,-0.240
6337,-0.280,-0.225
6338,-0.285,-0.220
6339,-0.265,-0.220
6340,-0.265,-0.220
6341,-0.275,-0.245
6342,-0.290,-0.245
6343,-0.295,-0.240
6344,-0.290,-0.225
6345,-0.280,-0.220
6346,-0.280,-0.215
6347,-0.285,-0.220
6348,-0.280,-0.240
6349,-0.280,-0.240
6350,-0.265,-0.235
6351,-0.260,-0.220
6352,-0.250,-0.230
6353,-0.250,-0.240
6354,-0.260,-0.245
6355,-0.270,-0.245
6356,-0.260,-0.240
6357,-0.260,-0.230
6358,-0.255,-0.240
6359,-0.270,-0.245
6360,-0.280,-0.260
6361,-0.285,-0.255
6362,-0.265,-0.245
6363,-0.255,-0.240
6364,-0.245,-0.245
6365,-0.250,-0.260
6366,-0.235,-0.275
6367,-0.240,-0.255
6368,-0.230,-0.240
6369,-0.215,-0.220
6370,-0.205,-0.220
6371,-0.210,-0.230
6372,-0.205,-0.235
6373,-0.205,-0.200
6374,-0.180,-0.165
6375,-0.175,-0.130
6376,-0.170,-0.125
6377,-0.160,-0.150
6378,-0.150,-0.195
6379,-0.125,-0.265
6380,-0.095,-0.390
6381,-0.070,-0.495
6382,-0.010,-0.590
6383,0.065,-0.685
6384,0.165,-0.800
6385,0.270,-0.900
6386,0.405,-0.965
6387,0.540,-0.990
6388,0.665,-0.935
6389,0.770,-0.855
6390,0.860,-0.795
6391,0.940,-0.680
