'sample interval','MLII','V1'
'0.00277778 sec','mV','mV'
0,-0.310,0.195
1,-0.310,0.195
2,-0.310,0.195
3,-0.310,0.195
4,-0.310,0.195
5,-0.310,0.195
6,-0.310,0.195
7,-0.310,0.195
8,-0.290,0.195
9,-0.285,0.175
10,-0.295,0.175
11,-0.315,0.170
12,-0.305,0.170
13,-0.300,0.185
14,-0.280,0.185
15,-0.275,0.175
16,-0.275,0.170
17,-0.270,0.170
18,-0.260,0.195
19,-0.240,0.210
20,-0.225,0.205
21,-0.215,0.205
22,-0.205,0.160
23,-0.220,0.120
24,-0.205,0.115
25,-0.170,0.120
26,-0.150,0.145
27,-0.155,0.145
28,-0.140,0.145
29,-0.130,0.125
30,-0.115,0.120
31,-0.075,0.140
32,-0.050,0.135
33,-0.060,0.130
34,-0.050,0.130
35,-0.040,0.125
36,-0.015,0.145
37,0.005,0.145
38,0.030,0.150
39,0.045,0.125
40,0.070,0.110
41,0.080,0.120
42,0.105,0.145
43,0.130,0.170
44,0.185,0.170
45,0.225,0.165
46,0.255,0.155
47,0.270,0.130
48,0.305,0.120
49,0.345,0.120
50,0.400,0.115
51,0.430,0.105
52,0.460,0.080
53,0.460,0.065
54,0.475,0.085
55,0.520,0.090
56,0.555,0.110
57,0.585,0.100
58,0.575,0.095
59,0.575,0.095
60,0.565,0.105
61,0.570,0.125
62,0.560,0.115
63,0.550,0.120
64,0.530,0.115
65,0.485,0.125
66,0.480,0.140
67,0.465,0.155
68,0.460,0.150
69,0.420,0.110
70,0.385,0.105
71,0.355,0.085
72,0.305,0.080
73,0.285,0.100
74,0.255,0.100
75,0.210,0.115
76,0.165,0.115
77,0.120,0.130
78,0.105,0.150
79,0.085,0.170
80,0.075,0.160
81,0.040,0.135
82,0.005,0.115
83,-0.040,0.100
84,-0.045,0.090
85,-0.055,0.100
86,-0.040,0.105
87,-0.070,0.105
88,-0.100,0.105
89,-0.125,0.115
90,-0.135,0.150
91,-0.140,0.175
92,-0.155,0.145
93,-0.190,0.120
94,-0.190,0.095
95,-0.195,0.100
96,-0.205,0.135
97,-0.200,0.145
98,-0.215,0.165
99,-0.250,0.150
100,-0.285,0.120
101,-0.295,0.105
102,-0.290,0.115
103,-0.285,0.140
104,-0.265,0.145
105,-0.270,0.135
106,-0.285,0.120
107,-0.330,0.130
108,-0.350,0.135
109,-0.350,0.165
110,-0.310,0.170
111,-0.300,0.170
112,-0.305,0.165
113,-0.330,0.150
114,-0.350,0.145
115,-0.340,0.140
116,-0.335,0.130
117,-0.335,0.110
118,-0.330,0.100
119,-0.340,0.115
120,-0.345,0.120
121,-0.335,0.150
122,-0.335,0.170
123,-0.330,0.200
124,-0.325,0.190
125,-0.340,0.175
126,-0.340,0.165
127,-0.335,0.170
128,-0.315,0.165
129,-0.310,0.150
130,-0.315,0.105
131,-0.330,0.110
132,-0.320,0.110
133,-0.315,0.125
134,-0.280,0.120
135,-0.275,0.110
136,-0.280,0.095
137,-0.280,0.115
138,-0.275,0.155
139,-0.250,0.195
140,-0.230,0.180
141,-0.230,0.150
142,-0.245,0.115
143,-0.260,0.085
144,-0.250,0.095
145,-0.235,0.105
146,-0.215,0.125
147,-0.210,0.100
148,-0.250,0.105
149,-0.285,0.110
150,-0.280,0.135
151,-0.245,0.160
152,-0.235,0.145
153,-0.235,0.125
154,-0.260,0.080
155,-0.255,0.075
156,-0.260,0.100
157,-0.245,0.125
158,-0.215,0.125
159,-0.230,0.130
160,-0.245,0.125
161,-0.275,0.130
162,-0.295,0.145
163,-0.280,0.160
164,-0.255,0.145
165,-0.250,0.135
166,-0.265,0.110
167,-0.300,0.100
168,-0.290,0.115
169,-0.290,0.135
170,-0.260,0.145
171,-0.265,0.110
172,-0.275,0.100
173,-0.280,0.095
174,-0.285,0.090
175,-0.265,0.115
176,-0.240,0.125
177,-0.265,0.140
178,-0.295,0.140
179,-0.330,0.130
180,-0.340,0.130
181,-0.295,0.115
182,-0.285,0.105
183,-0.295,0.120
184,-0.330,0.095
185,-0.345,0.105
186,-0.345,0.120
187,-0.320,0.120
188,-0.310,0.105
189,-0.335,0.085
190,-0.340,0.075
191,-0.350,0.080
192,-0.340,0.115
193,-0.350,0.155
194,-0.315,0.160
195,-0.335,0.160
196,-0.345,0.130
197,-0.325,0.095
198,-0.320,0.070
199,-0.300,0.095
200,-0.305,0.105
201,-0.305,0.105
202,-0.325,0.090
203,-0.355,0.080
204,-0.370,0.100
205,-0.350,0.105
206,-0.345,0.120
207,-0.325,0.115
208,-0.355,0.100
209,-0.365,0.090
210,-0.355,0.105
211,-0.365,0.120
212,-0.350,0.140
213,-0.345,0.130
214,-0.340,0.120
215,-0.355,0.110
216,-0.350,0.100
217,-0.340,0.085
218,-0.345,0.095
219,-0.345,0.090
220,-0.360,0.090
221,-0.360,0.090
222,-0.355,0.090
223,-0.340,0.095
224,-0.330,0.100
225,-0.340,0.090
226,-0.350,0.085
227,-0.370,0.065
228,-0.360,0.100
229,-0.345,0.105
230,-0.360,0.110
231,-0.370,0.115
232,-0.370,0.110
233,-0.370,0.105
234,-0.375,0.110
235,-0.360,0.125
236,-0.355,0.115
237,-0.355,0.110
238,-0.365,0.090
239,-0.390,0.095
240,-0.390,0.095
241,-0.380,0.120
242,-0.365,0.125
243,-0.385,0.110
244,-0.380,0.105
245,-0.375,0.100
246,-0.375,0.090
247,-0.355,0.090
248,-0.340,0.100
249,-0.335,0.080
250,-0.335,0.060
251,-0.350,0.050
252,-0.365,0.060
253,-0.375,0.090
254,-0.365,0.095
255,-0.370,0.100
256,-0.375,0.095
257,-0.395,0.105
258,-0.400,0.120
259,-0.380,0.135
260,-0.350,0.125
261,-0.345,0.105
262,-0.345,0.075
263,-0.350,0.065
264,-0.360,0.085
265,-0.355,0.110
266,-0.345,0.115
267,-0.365,0.110
268,-0.395,0.075
269,-0.400,0.050
270,-0.395,0.050
271,-0.350,0.065
272,-0.325,0.070
273,-0.335,0.075
274,-0.350,0.075
275,-0.385,0.090
276,-0.370,0.110
277,-0.360,0.135
278,-0.345,0.145
279,-0.330,0.120
280,-0.335,0.090
281,-0.340,0.055
282,-0.360,0.065
283,-0.340,0.065
284,-0.335,0.060
285,-0.345,0.075
286,-0.390,0.090
287,-0.400,0.075
288,-0.395,0.080
289,-0.360,0.075
290,-0.345,0.095
291,-0.345,0.090
292,-0.345,0.090
293,-0.340,0.100
294,-0.350,0.120
295,-0.315,0.120
296,-0.290,0.090
297,-0.300,0.070
298,-0.320,0.055
299,-0.325,0.060
300,-0.305,0.070
301,-0.310,0.100
302,-0.280,0.110
303,-0.265,0.140
304,-0.245,0.175
305,-0.235,0.175
306,-0.185,0.160
307,-0.100,0.125
308,-0.005,0.060
309,0.035,0.010
310,0.010,-0.015
311,-0.030,0.000
312,-0.070,0.040
313,-0.090,0.075
314,-0.100,0.095
315,-0.115,0.090
316,-0.135,0.065
317,-0.160,0.060
318,-0.185,0.065
319,-0.180,0.065
320,-0.185,0.075
321,-0.225,0.070
322,-0.235,0.040
323,-0.260,0.035
324,-0.290,0.040
325,-0.305,0.060
326,-0.315,0.085
327,-0.360,0.085
328,-0.385,0.090
329,-0.385,0.080
330,-0.380,0.095
331,-0.355,0.110
332,-0.335,0.105
333,-0.320,0.090
334,-0.320,0.065
335,-0.335,0.045
336,-0.330,0.040
337,-0.335,0.070
338,-0.330,0.075
339,-0.340,0.045
340,-0.370,0.040
341,-0.425,0.005
342,-0.465,0.025
343,-0.460,0.055
344,-0.320,0.090
345,-0.035,0.075
346,0.400,0.035
347,0.895,0.015
348,1.335,0.035
349,1.685,0.100
350,1.900,0.165
351,2.010,0.200
352,1.980,0.215
353,1.815,0.195
354,1.470,0.160
355,0.940,0.100
356,0.300,0.080
357,-0.340,0.050
358,-0.765,-0.010
359,-0.725,-0.075
360,-0.550,-0.115
361,-0.450,-0.145
362,-0.445,-0.140
363,-0.460,-0.105
364,-0.455,-0.075
365,-0.435,-0.040
366,-0.415,0.000
367,-0.390,0.030
368,-0.395,0.050
369,-0.415,0.045
370,-0.435,0.050
371,-0.450,0.060
372,-0.440,0.075
373,-0.415,0.080
374,-0.405,0.070
375,-0.415,0.050
376,-0.425,0.035
377,-0.430,0.045
378,-0.430,0.055
379,-0.435,0.070
380,-0.425,0.080
381,-0.420,0.080
382,-0.420,0.065
383,-0.415,0.085
384,-0.410,0.085
385,-0.410,0.090
386,-0.390,0.090
387,-0.390,0.080
388,-0.415,0.075
389,-0.430,0.080
390,-0.455,0.095
391,-0.410,0.120
392,-0.385,0.145
393,-0.380,0.160
394,-0.390,0.150
395,-0.385,0.120
396,-0.380,0.075
397,-0.385,0.035
398,-0.355,0.040
399,-0.355,0.050
400,-0.350,0.035
401,-0.350,0.050
402,-0.360,0.055
403,-0.345,0.070
404,-0.315,0.075
405,-0.290,0.065
406,-0.290,0.050
407,-0.320,0.050
408,-0.300,0.085
409,-0.275,0.110
410,-0.255,0.110
411,-0.245,0.110
412,-0.255,0.090
413,-0.250,0.075
414,-0.225,0.085
415,-0.215,0.100
416,-0.220,0.095
417,-0.190,0.085
418,-0.160,0.050
419,-0.115,0.035
420,-0.075,0.030
421,-0.070,0.055
422,-0.085,0.065
423,-0.095,0.075
424,-0.095,0.070
425,-0.070,0.055
426,-0.020,0.065
427,0.010,0.070
428,0.035,0.060
429,0.015,0.055
430,0.015,0.050
431,0.040,0.060
432,0.100,0.065
433,0.145,0.070
434,0.195,0.070
435,0.235,0.060
436,0.250,0.025
437,0.270,0.045
438,0.300,0.055
439,0.355,0.070
440,0.420,0.070
441,0.465,0.035
442,0.495,0.000
443,0.515,-0.015
444,0.525,0.015
445,0.555,0.035
446,0.600,0.035
447,0.640,0.040
448,0.650,0.005
449,0.625,0.005
450,0.615,0.020
451,0.605,0.045
452,0.645,0.050
453,0.640,0.065
454,0.600,0.080
455,0.535,0.120
456,0.525,0.165
457,0.550,0.175
458,0.565,0.135
459,0.540,0.080
460,0.520,0.000
461,0.490,-0.055
462,0.450,-0.060
463,0.415,-0.030
464,0.365,0.000
465,0.295,0.030
466,0.260,0.030
467,0.245,0.030
468,0.215,0.035
469,0.165,0.075
470,0.150,0.075
471,0.115,0.080
472,0.085,0.050
473,0.060,0.050
474,0.025,0.070
475,0.030,0.125
476,0.030,0.125
477,0.000,0.115
478,-0.040,0.100
479,-0.060,0.065
480,-0.095,0.055
481,-0.075,0.050
482,-0.070,0.030
483,-0.075,0.005
484,-0.105,-0.015
485,-0.130,-0.030
486,-0.140,0.005
487,-0.150,0.040
488,-0.135,0.070
489,-0.170,0.055
490,-0.195,0.040
491,-0.210,0.050
492,-0.210,0.055
493,-0.195,0.055
494,-0.210,0.055
495,-0.210,0.055
496,-0.225,0.065
497,-0.245,0.095
498,-0.260,0.125
499,-0.250,0.120
500,-0.240,0.105
501,-0.240,0.055
502,-0.245,0.035
503,-0.250,0.050
504,-0.255,0.075
505,-0.250,0.095
506,-0.230,0.095
507,-0.225,0.060
508,-0.225,0.030
509,-0.205,0.010
510,-0.200,0.010
511,-0.215,0.030
512,-0.250,0.060
513,-0.285,0.070
514,-0.275,0.065
515,-0.255,0.045
516,-0.245,0.045
517,-0.220,0.065
518,-0.210,0.090
519,-0.235,0.085
520,-0.260,0.070
521,-0.265,0.070
522,-0.260,0.080
523,-0.230,0.105
524,-0.185,0.100
525,-0.160,0.065
526,-0.190,0.065
527,-0.190,0.060
528,-0.175,0.065
529,-0.160,0.065
530,-0.145,0.070
531,-0.145,0.075
532,-0.155,0.085
533,-0.160,0.070
534,-0.150,0.070
535,-0.140,0.075
536,-0.135,0.080
537,-0.130,0.065
538,-0.140,0.040
539,-0.155,0.035
540,-0.170,0.035
541,-0.160,0.050
542,-0.155,0.055
543,-0.165,0.050
544,-0.170,0.035
545,-0.170,0.015
546,-0.165,0.025
547,-0.155,0.035
548,-0.125,0.045
549,-0.130,0.030
550,-0.170,0.030
551,-0.205,0.050
552,-0.220,0.055
553,-0.210,0.070
554,-0.195,0.075
555,-0.205,0.075
556,-0.210,0.050
557,-0.210,0.045
558,-0.185,0.070
559,-0.175,0.070
560,-0.180,0.095
561,-0.195,0.090
562,-0.200,0.080
563,-0.215,0.070
564,-0.235,0.075
565,-0.225,0.075
566,-0.210,0.080
567,-0.225,0.080
568,-0.245,0.075
569,-0.245,0.060
570,-0.250,0.050
571,-0.255,0.075
572,-0.245,0.100
573,-0.270,0.125
574,-0.270,0.125
575,-0.250,0.120
576,-0.255,0.105
577,-0.245,0.075
578,-0.215,0.035
579,-0.215,0.010
580,-0.245,0.005
581,-0.270,0.005
582,-0.290,0.025
583,-0.285,0.030
584,-0.240,0.030
585,-0.235,0.010
586,-0.255,0.015
587,-0.275,0.035
588,-0.320,0.030
589,-0.305,0.045
590,-0.265,0.045
591,-0.255,0.040
592,-0.260,0.025
593,-0.290,0.045
594,-0.335,0.055
595,-0.310,0.070
596,-0.265,0.075
597,-0.270,0.075
598,-0.305,0.090
599,-0.335,0.080
600,-0.335,0.075
601,-0.315,0.070
602,-0.295,0.055
603,-0.290,0.035
604,-0.300,0.030
605,-0.310,0.020
606,-0.310,0.050
607,-0.300,0.065
608,-0.295,0.070
609,-0.285,0.070
610,-0.290,0.070
611,-0.310,0.070
612,-0.320,0.095
613,-0.300,0.115
614,-0.285,0.110
615,-0.295,0.095
616,-0.300,0.075
617,-0.320,0.070
618,-0.345,0.070
619,-0.300,0.070
620,-0.295,0.070
621,-0.300,0.065
622,-0.305,0.055
623,-0.305,0.045
624,-0.315,0.055
625,-0.310,0.085
626,-0.295,0.095
627,-0.290,0.085
628,-0.320,0.065
629,-0.310,0.045
630,-0.315,0.050
631,-0.285,0.065
632,-0.270,0.070
633,-0.265,0.050
634,-0.275,0.030
635,-0.280,0.035
636,-0.300,0.065
637,-0.335,0.095
638,-0.325,0.115
639,-0.325,0.100
640,-0.325,0.070
641,-0.330,0.075
642,-0.340,0.105
643,-0.310,0.120
644,-0.295,0.110
645,-0.290,0.090
646,-0.290,0.055
647,-0.280,0.050
648,-0.275,0.065
649,-0.270,0.085
650,-0.260,0.105
651,-0.270,0.090
652,-0.295,0.070
653,-0.310,0.075
654,-0.310,0.090
655,-0.295,0.105
656,-0.275,0.110
657,-0.285,0.100
658,-0.315,0.085
659,-0.315,0.080
660,-0.310,0.085
661,-0.295,0.085
662,-0.280,0.075
663,-0.280,0.055
664,-0.285,0.045
665,-0.290,0.025
666,-0.295,0.040
667,-0.285,0.060
668,-0.285,0.085
669,-0.260,0.080
670,-0.275,0.085
671,-0.290,0.090
672,-0.280,0.115
673,-0.285,0.165
674,-0.235,0.165
675,-0.210,0.150
676,-0.185,0.130
677,-0.175,0.120
678,-0.150,0.130
679,-0.110,0.140
680,-0.085,0.150
681,-0.025,0.125
682,0.025,0.070
683,0.060,0.040
684,0.050,0.030
685,0.030,0.035
686,-0.005,0.060
687,-0.045,0.085
688,-0.095,0.090
689,-0.115,0.085
690,-0.110,0.065
691,-0.110,0.050
692,-0.090,0.040
693,-0.100,0.030
694,-0.135,0.035
695,-0.180,0.050
696,-0.225,0.065
697,-0.240,0.085
698,-0.230,0.075
699,-0.255,0.070
700,-0.285,0.055
701,-0.310,0.055
702,-0.310,0.050
703,-0.280,0.065
704,-0.260,0.065
705,-0.270,0.070
706,-0.285,0.070
707,-0.320,0.085
708,-0.320,0.085
709,-0.300,0.090
710,-0.260,0.100
711,-0.265,0.085
712,-0.300,0.080
713,-0.370,0.065
714,-0.415,0.055
715,-0.450,0.055
716,-0.435,0.060
717,-0.345,0.070
718,-0.130,0.055
719,0.280,0.030
720,0.790,0.010
721,1.290,0.030
722,1.650,0.090
723,1.865,0.145
724,1.995,0.185
725,2.030,0.225
726,1.970,0.250
727,1.805,0.240
728,1.440,0.185
729,0.800,0.115
730,0.160,0.035
731,-0.480,-0.040
732,-0.740,-0.085
733,-0.535,-0.130
734,-0.355,-0.160
735,-0.330,-0.170
736,-0.360,-0.130
737,-0.390,-0.080
738,-0.365,-0.015
739,-0.340,0.025
740,-0.295,0.060
741,-0.320,0.065
742,-0.365,0.060
743,-0.420,0.085
744,-0.425,0.100
745,-0.410,0.115
746,-0.395,0.110
747,-0.395,0.100
748,-0.405,0.095
749,-0.415,0.105
750,-0.420,0.105
751,-0.410,0.125
752,-0.395,0.130
753,-0.405,0.120
754,-0.405,0.105
755,-0.415,0.120
756,-0.400,0.135
757,-0.370,0.145
758,-0.360,0.145
759,-0.355,0.125
760,-0.365,0.120
761,-0.390,0.125
762,-0.390,0.150
763,-0.375,0.165
764,-0.335,0.175
765,-0.325,0.140
766,-0.340,0.105
767,-0.365,0.080
768,-0.370,0.095
769,-0.340,0.115
770,-0.315,0.125
771,-0.300,0.125
772,-0.310,0.110
773,-0.305,0.090
774,-0.300,0.095
775,-0.290,0.125
776,-0.265,0.145
777,-0.255,0.125
778,-0.260,0.110
779,-0.260,0.115
780,-0.255,0.130
781,-0.275,0.165
782,-0.255,0.170
783,-0.240,0.170
784,-0.245,0.140
785,-0.220,0.125
786,-0.200,0.115
787,-0.160,0.120
788,-0.150,0.120
789,-0.150,0.115
790,-0.145,0.145
791,-0.135,0.140
792,-0.115,0.135
793,-0.100,0.135
794,-0.080,0.110
795,-0.045,0.095
796,-0.025,0.075
797,-0.010,0.075
798,0.015,0.075
799,0.050,0.095
800,0.095,0.085
801,0.120,0.075
802,0.125,0.055
803,0.130,0.060
804,0.165,0.075
805,0.220,0.100
806,0.275,0.115
807,0.310,0.105
808,0.350,0.085
809,0.375,0.080
810,0.395,0.080
811,0.425,0.095
812,0.480,0.105
813,0.545,0.095
814,0.575,0.070
815,0.570,0.070
816,0.575,0.070
817,0.600,0.075
818,0.640,0.075
819,0.635,0.075
820,0.615,0.060
821,0.615,0.045
822,0.605,0.030
823,0.610,0.020
824,0.600,0.040
825,0.575,0.055
826,0.515,0.040
827,0.495,0.035
828,0.440,0.055
829,0.440,0.080
830,0.445,0.080
831,0.410,0.095
832,0.340,0.090
833,0.265,0.065
834,0.245,0.065
835,0.230,0.090
836,0.215,0.105
837,0.175,0.100
838,0.125,0.110
839,0.055,0.105
840,0.035,0.085
841,0.015,0.110
842,0.010,0.130
843,-0.015,0.100
844,-0.040,0.085
845,-0.045,0.055
846,-0.070,0.060
847,-0.055,0.095
848,-0.060,0.100
849,-0.090,0.110
850,-0.125,0.095
851,-0.165,0.095
852,-0.210,0.095
853,-0.200,0.105
854,-0.200,0.115
855,-0.205,0.115
856,-0.220,0.100
857,-0.255,0.105
858,-0.255,0.095
859,-0.270,0.100
860,-0.265,0.105
861,-0.255,0.095
862,-0.250,0.100
863,-0.275,0.105
864,-0.285,0.130
865,-0.295,0.140
866,-0.290,0.130
867,-0.275,0.095
868,-0.280,0.065
869,-0.300,0.060
870,-0.310,0.070
871,-0.315,0.100
872,-0.320,0.110
873,-0.285,0.110
874,-0.325,0.100
875,-0.340,0.105
876,-0.355,0.115
877,-0.350,0.150
878,-0.340,0.160
879,-0.335,0.150
880,-0.335,0.125
881,-0.345,0.115
882,-0.325,0.115
883,-0.330,0.115
884,-0.345,0.135
885,-0.345,0.120
886,-0.360,0.130
887,-0.330,0.140
888,-0.320,0.140
889,-0.330,0.160
890,-0.325,0.145
891,-0.330,0.105
892,-0.335,0.080
893,-0.315,0.095
894,-0.310,0.120
895,-0.300,0.115
896,-0.270,0.105
897,-0.270,0.075
898,-0.275,0.075
899,-0.290,0.070
900,-0.295,0.105
901,-0.300,0.115
902,-0.280,0.115
903,-0.295,0.105
904,-0.285,0.090
905,-0.295,0.090
906,-0.280,0.100
907,-0.260,0.110
908,-0.270,0.115
909,-0.285,0.110
910,-0.300,0.100
911,-0.290,0.105
912,-0.290,0.115
913,-0.290,0.125
914,-0.275,0.135
915,-0.300,0.120
916,-0.305,0.105
917,-0.290,0.095
918,-0.290,0.100
919,-0.280,0.120
920,-0.280,0.125
921,-0.270,0.130
922,-0.295,0.115
923,-0.305,0.120
924,-0.320,0.135
925,-0.320,0.140
926,-0.300,0.135
927,-0.290,0.120
928,-0.285,0.110
929,-0.300,0.095
930,-0.305,0.095
931,-0.305,0.110
932,-0.300,0.110
933,-0.315,0.105
934,-0.320,0.090
935,-0.315,0.095
936,-0.325,0.105
937,-0.305,0.125
938,-0.270,0.120
939,-0.275,0.115
940,-0.290,0.090
941,-0.320,0.100
942,-0.320,0.100
943,-0.285,0.110
944,-0.260,0.115
945,-0.300,0.120
946,-0.335,0.125
947,-0.355,0.140
948,-0.340,0.160
949,-0.310,0.140
950,-0.295,0.135
951,-0.295,0.120
952,-0.310,0.100
953,-0.330,0.105
954,-0.355,0.110
955,-0.330,0.105
956,-0.325,0.105
957,-0.315,0.080
958,-0.330,0.070
959,-0.340,0.080
960,-0.340,0.100
961,-0.300,0.120
962,-0.275,0.125
963,-0.295,0.100
964,-0.330,0.095
965,-0.365,0.075
966,-0.360,0.085
967,-0.330,0.105
968,-0.315,0.100
969,-0.310,0.110
970,-0.315,0.095
971,-0.335,0.090
972,-0.340,0.115
973,-0.325,0.130
974,-0.320,0.130
975,-0.310,0.120
976,-0.320,0.115
977,-0.305,0.095
978,-0.310,0.090
979,-0.310,0.090
980,-0.315,0.085
981,-0.315,0.075
982,-0.325,0.075
983,-0.330,0.075
984,-0.345,0.105
985,-0.320,0.130
986,-0.300,0.130
987,-0.300,0.135
988,-0.305,0.135
989,-0.320,0.150
990,-0.320,0.165
991,-0.305,0.165
992,-0.310,0.145
993,-0.340,0.095
994,-0.365,0.075
995,-0.365,0.085
996,-0.340,0.115
997,-0.325,0.150
998,-0.325,0.170
999,-0.310,0.095
1000,-0.315,0.040
1001,-0.305,0.015
1002,-0.290,0.025
1003,-0.285,0.025
1004,-0.285,0.025
1005,-0.310,0.030
1006,-0.320,0.035
1007,-0.300,0.065
1008,-0.290,0.090
1009,-0.285,0.105
1010,-0.330,0.100
1011,-0.350,0.095
1012,-0.355,0.095
1013,-0.340,0.115
1014,-0.320,0.115
1015,-0.320,0.120
1016,-0.315,0.115
1017,-0.330,0.115
1018,-0.330,0.090
1019,-0.325,0.080
1020,-0.295,0.055
1021,-0.290,0.045
1022,-0.295,0.040
1023,-0.280,0.045
1024,-0.330,0.060
1025,-0.330,0.100
1026,-0.330,0.115
1027,-0.300,0.110
1028,-0.290,0.085
1029,-0.290,0.060
1030,-0.295,0.050
1031,-0.315,0.070
1032,-0.325,0.085
1033,-0.285,0.095
1034,-0.280,0.085
1035,-0.260,0.095
1036,-0.265,0.105
1037,-0.250,0.120
1038,-0.205,0.135
1039,-0.165,0.155
1040,-0.140,0.165
1041,-0.135,0.155
1042,-0.140,0.130
1043,-0.105,0.125
1044,-0.075,0.130
1045,0.010,0.145
1046,0.035,0.150
1047,0.035,0.115
1048,0.025,0.075
1049,-0.010,0.040
1050,-0.030,0.045
1051,-0.070,0.050
1052,-0.105,0.055
1053,-0.115,0.055
1054,-0.125,0.050
1055,-0.160,0.065
1056,-0.165,0.085
1057,-0.170,0.105
1058,-0.185,0.105
1059,-0.210,0.105
1060,-0.250,0.110
1061,-0.265,0.095
1062,-0.275,0.090
1063,-0.275,0.085
1064,-0.305,0.070
1065,-0.285,0.065
1066,-0.275,0.075
1067,-0.250,0.075
1068,-0.245,0.075
1069,-0.260,0.075
1070,-0.295,0.075
1071,-0.305,0.080
1072,-0.325,0.075
1073,-0.340,0.090
1074,-0.345,0.100
1075,-0.360,0.115
1076,-0.390,0.095
1077,-0.435,0.060
1078,-0.430,0.025
1079,-0.285,0.020
1080,0.020,0.060
1081,0.470,0.075
1082,1.005,0.100
1083,1.470,0.110
1084,1.770,0.135
1085,1.950,0.170
1086,2.030,0.195
1087,2.010,0.215
1088,1.865,0.215
1089,1.535,0.170
1090,0.950,0.100
1091,0.310,0.050
1092,-0.330,-0.020
1093,-0.750,-0.070
1094,-0.615,-0.130
1095,-0.415,-0.170
1096,-0.355,-0.165
1097,-0.385,-0.125
1098,-0.405,-0.045
1099,-0.365,0.015
1100,-0.330,0.050
1101,-0.335,0.075
1102,-0.350,0.075
1103,-0.390,0.100
1104,-0.410,0.130
1105,-0.410,0.150
1106,-0.415,0.150
1107,-0.390,0.125
1108,-0.390,0.095
1109,-0.380,0.085
1110,-0.385,0.105
1111,-0.380,0.125
1112,-0.395,0.125
1113,-0.415,0.105
1114,-0.435,0.105
1115,-0.425,0.120
1116,-0.405,0.145
1117,-0.385,0.175
1118,-0.390,0.155
1119,-0.395,0.150
1120,-0.400,0.115
1121,-0.405,0.125
1122,-0.390,0.125
1123,-0.375,0.125
1124,-0.385,0.110
1125,-0.370,0.110
1126,-0.360,0.110
1127,-0.355,0.120
1128,-0.335,0.120
1129,-0.315,0.125
1130,-0.330,0.130
1131,-0.360,0.115
1132,-0.355,0.105
1133,-0.350,0.125
1134,-0.345,0.135
1135,-0.305,0.135
1136,-0.295,0.135
1137,-0.260,0.115
1138,-0.295,0.115
1139,-0.300,0.135
1140,-0.290,0.170
1141,-0.265,0.185
1142,-0.255,0.165
1143,-0.240,0.120
1144,-0.250,0.105
1145,-0.250,0.120
1146,-0.235,0.160
1147,-0.220,0.170
1148,-0.185,0.145
1149,-0.165,0.105
1150,-0.150,0.070
1151,-0.155,0.075
1152,-0.130,0.105
1153,-0.120,0.150
1154,-0.105,0.155
1155,-0.095,0.130
1156,-0.060,0.100
1157,-0.040,0.090
1158,0.000,0.110
1159,0.020,0.105
1160,0.030,0.090
1161,0.050,0.070
1162,0.060,0.060
1163,0.095,0.070
1164,0.125,0.085
1165,0.170,0.110
1166,0.200,0.105
1167,0.245,0.090
1168,0.255,0.085
1169,0.285,0.095
1170,0.330,0.100
1171,0.375,0.095
1172,0.400,0.085
1173,0.420,0.075
1174,0.420,0.055
1175,0.455,0.055
1176,0.500,0.070
1177,0.540,0.070
1178,0.560,0.080
1179,0.560,0.080
1180,0.580,0.085
1181,0.580,0.075
1182,0.585,0.070
1183,0.595,0.075
1184,0.585,0.070
1185,0.560,0.055
1186,0.525,0.050
1187,0.490,0.085
1188,0.475,0.120
1189,0.455,0.125
1190,0.435,0.100
1191,0.410,0.060
1192,0.355,0.035
1193,0.285,0.040
1194,0.245,0.080
1195,0.205,0.100
1196,0.175,0.085
1197,0.150,0.075
1198,0.145,0.075
1199,0.120,0.095
1200,0.060,0.125
1201,0.030,0.165
1202,-0.005,0.145
1203,-0.050,0.125
1204,-0.065,0.090
1205,-0.060,0.085
1206,-0.065,0.075
1207,-0.080,0.085
1208,-0.095,0.075
1209,-0.125,0.075
1210,-0.150,0.065
1211,-0.160,0.090
1212,-0.160,0.090
1213,-0.160,0.095
1214,-0.185,0.095
1215,-0.220,0.080
1216,-0.250,0.085
1217,-0.245,0.120
1218,-0.245,0.130
1219,-0.245,0.140
1220,-0.265,0.140
1221,-0.270,0.120
1222,-0.275,0.105
1223,-0.260,0.100
1224,-0.255,0.110
1225,-0.260,0.105
1226,-0.300,0.125
1227,-0.335,0.110
1228,-0.345,0.115
1229,-0.325,0.110
1230,-0.315,0.125
1231,-0.290,0.120
1232,-0.290,0.100
1233,-0.310,0.080
1234,-0.330,0.075
1235,-0.340,0.090
1236,-0.335,0.090
1237,-0.320,0.115
1238,-0.320,0.100
1239,-0.330,0.080
1240,-0.335,0.075
1241,-0.340,0.085
1242,-0.320,0.110
1243,-0.285,0.120
1244,-0.265,0.115
1245,-0.280,0.120
1246,-0.290,0.095
1247,-0.315,0.095
1248,-0.305,0.110
1249,-0.280,0.110
1250,-0.290,0.115
1251,-0.300,0.115
1252,-0.305,0.110
1253,-0.290,0.130
1254,-0.275,0.130
1255,-0.270,0.150
1256,-0.280,0.185
1257,-0.295,0.160
1258,-0.315,0.145
1259,-0.280,0.120
1260,-0.240,0.110
1261,-0.225,0.110
1262,-0.245,0.110
1263,-0.255,0.105
1264,-0.260,0.085
1265,-0.265,0.075
1266,-0.270,0.090
1267,-0.250,0.110
1268,-0.245,0.120
1269,-0.250,0.125
1270,-0.250,0.110
1271,-0.255,0.100
1272,-0.255,0.110
1273,-0.225,0.100
1274,-0.215,0.100
1275,-0.250,0.075
1276,-0.255,0.095
1277,-0.255,0.095
1278,-0.245,0.120
1279,-0.230,0.110
1280,-0.225,0.115
1281,-0.235,0.105
1282,-0.245,0.110
1283,-0.240,0.100
1284,-0.250,0.095
1285,-0.265,0.095
1286,-0.275,0.080
1287,-0.290,0.080
1288,-0.295,0.075
1289,-0.310,0.075
1290,-0.300,0.095
1291,-0.290,0.110
1292,-0.285,0.125
1293,-0.290,0.120
1294,-0.305,0.095
1295,-0.300,0.080
1296,-0.290,0.080
1297,-0.295,0.075
1298,-0.305,0.090
1299,-0.310,0.105
1300,-0.315,0.095
1301,-0.320,0.100
1302,-0.285,0.105
1303,-0.275,0.120
1304,-0.280,0.095
1305,-0.295,0.075
1306,-0.300,0.055
1307,-0.310,0.045
1308,-0.295,0.050
1309,-0.290,0.075
1310,-0.305,0.090
1311,-0.320,0.100
1312,-0.335,0.110
1313,-0.320,0.100
1314,-0.310,0.110
1315,-0.305,0.095
1316,-0.300,0.085
1317,-0.315,0.070
1318,-0.330,0.060
1319,-0.345,0.085
1320,-0.335,0.100
1321,-0.320,0.110
1322,-0.310,0.100
1323,-0.325,0.080
1324,-0.345,0.080
1325,-0.370,0.085
1326,-0.345,0.105
1327,-0.325,0.120
1328,-0.325,0.120
1329,-0.325,0.105
1330,-0.335,0.090
1331,-0.335,0.095
1332,-0.315,0.090
1333,-0.300,0.095
1334,-0.315,0.065
1335,-0.310,0.055
1336,-0.315,0.050
1337,-0.330,0.080
1338,-0.320,0.100
1339,-0.300,0.120
1340,-0.315,0.120
1341,-0.325,0.095
1342,-0.335,0.075
1343,-0.325,0.090
1344,-0.315,0.125
1345,-0.315,0.150
1346,-0.310,0.110
1347,-0.350,0.090
1348,-0.360,0.075
1349,-0.345,0.065
1350,-0.320,0.065
1351,-0.295,0.080
1352,-0.290,0.070
1353,-0.295,0.060
1354,-0.320,0.035
1355,-0.325,0.045
1356,-0.325,0.080
1357,-0.320,0.095
1358,-0.340,0.105
1359,-0.330,0.095
1360,-0.330,0.075
1361,-0.335,0.075
1362,-0.305,0.075
1363,-0.310,0.085
1364,-0.295,0.075
1365,-0.325,0.075
1366,-0.340,0.075
1367,-0.340,0.095
1368,-0.315,0.120
1369,-0.305,0.140
1370,-0.310,0.130
1371,-0.320,0.100
1372,-0.330,0.095
1373,-0.325,0.100
1374,-0.310,0.110
1375,-0.290,0.085
1376,-0.295,0.035
1377,-0.310,0.005
1378,-0.305,-0.010
1379,-0.305,0.015
1380,-0.295,0.050
1381,-0.285,0.075
1382,-0.290,0.070
1383,-0.285,0.070
1384,-0.295,0.060
1385,-0.310,0.060
1386,-0.315,0.060
1387,-0.315,0.080
1388,-0.330,0.055
1389,-0.325,0.065
1390,-0.335,0.050
1391,-0.320,0.060
1392,-0.300,0.075
1393,-0.275,0.095
1394,-0.260,0.080
1395,-0.265,0.070
1396,-0.295,0.075
1397,-0.300,0.095
1398,-0.290,0.130
1399,-0.235,0.170
1400,-0.225,0.165
1401,-0.190,0.150
1402,-0.190,0.140
1403,-0.155,0.130
1404,-0.085,0.115
1405,-0.020,0.100
1406,0.055,0.065
1407,0.070,0.035
1408,0.025,0.015
1409,0.005,0.010
1410,-0.020,0.015
1411,-0.060,0.035
1412,-0.080,0.045
1413,-0.085,0.040
1414,-0.115,0.040
1415,-0.135,0.040
1416,-0.140,0.060
1417,-0.175,0.065
1418,-0.210,0.080
1419,-0.235,0.075
1420,-0.265,0.065
1421,-0.285,0.055
1422,-0.295,0.055
1423,-0.305,0.075
1424,-0.330,0.080
1425,-0.325,0.065
1426,-0.325,0.080
1427,-0.330,0.065
1428,-0.310,0.040
1429,-0.310,0.040
1430,-0.315,0.040
1431,-0.345,0.060
1432,-0.350,0.065
1433,-0.335,0.050
1434,-0.315,0.055
1435,-0.310,0.050
1436,-0.325,0.050
1437,-0.390,0.030
1438,-0.480,0.020
1439,-0.500,0.015
1440,-0.445,0.020
1441,-0.265,0.035
1442,0.020,0.025
1443,0.455,0.030
1444,0.940,0.050
1445,1.420,0.100
1446,1.730,0.125
1447,1.920,0.145
1448,2.010,0.135
1449,1.990,0.150
1450,1.825,0.180
1451,1.480,0.175
1452,0.950,0.150
1453,0.310,0.100
1454,-0.330,0.010
1455,-0.755,-0.085
1456,-0.700,-0.155
1457,-0.510,-0.195
1458,-0.420,-0.185
1459,-0.410,-0.160
1460,-0.415,-0.105
1461,-0.390,-0.080
1462,-0.405,-0.055
1463,-0.405,-0.015
1464,-0.425,0.035
1465,-0.410,0.075
1466,-0.410,0.060
1467,-0.410,0.070
1468,-0.425,0.055
1469,-0.435,0.040
1470,-0.430,0.045
1471,-0.425,0.060
1472,-0.430,0.070
1473,-0.435,0.070
1474,-0.450,0.080
1475,-0.465,0.100
1476,-0.445,0.120
1477,-0.435,0.095
1478,-0.430,0.060
1479,-0.450,0.035
1480,-0.465,0.045
1481,-0.470,0.085
1482,-0.455,0.090
1483,-0.420,0.095
1484,-0.420,0.100
1485,-0.410,0.090
1486,-0.425,0.065
1487,-0.415,0.060
1488,-0.395,0.080
1489,-0.375,0.070
1490,-0.390,0.070
1491,-0.405,0.055
1492,-0.400,0.060
1493,-0.400,0.070
1494,-0.395,0.090
1495,-0.405,0.110
1496,-0.380,0.090
1497,-0.350,0.065
1498,-0.345,0.060
1499,-0.345,0.070
1500,-0.320,0.085
1501,-0.300,0.085
1502,-0.320,0.085
1503,-0.340,0.075
1504,-0.355,0.070
1505,-0.350,0.070
1506,-0.330,0.070
1507,-0.285,0.095
1508,-0.265,0.070
1509,-0.280,0.075
1510,-0.285,0.080
1511,-0.275,0.085
1512,-0.245,0.090
1513,-0.215,0.095
1514,-0.205,0.055
1515,-0.200,0.030
1516,-0.185,0.015
1517,-0.180,0.030
1518,-0.160,0.050
1519,-0.140,0.050
1520,-0.125,0.030
1521,-0.115,0.020
1522,-0.105,0.020
1523,-0.100,0.030
1524,-0.080,0.040
1525,-0.045,0.065
1526,-0.045,0.065
1527,-0.030,0.070
1528,0.005,0.055
1529,0.035,0.050
1530,0.090,0.045
1531,0.130,0.060
1532,0.175,0.065
1533,0.180,0.070
1534,0.190,0.070
1535,0.235,0.055
1536,0.265,0.060
1537,0.345,0.040
1538,0.390,0.010
1539,0.395,-0.005
1540,0.395,0.000
1541,0.415,0.025
1542,0.450,0.030
1543,0.495,0.025
1544,0.530,0.020
1545,0.535,0.000
1546,0.550,-0.025
1547,0.540,-0.015
1548,0.545,0.015
1549,0.550,0.030
1550,0.560,0.010
1551,0.545,-0.020
1552,0.535,-0.040
1553,0.515,-0.035
1554,0.490,-0.015
1555,0.475,-0.005
1556,0.430,-0.005
1557,0.395,-0.015
1558,0.355,-0.010
1559,0.310,0.010
1560,0.280,0.035
1561,0.255,0.055
1562,0.225,0.075
1563,0.175,0.050
1564,0.150,0.040
1565,0.120,0.045
1566,0.105,0.035
1567,0.100,0.055
1568,0.050,0.055
1569,0.025,0.045
1570,-0.010,0.040
1571,-0.020,0.040
1572,-0.035,0.045
1573,-0.055,0.030
1574,-0.080,0.020
1575,-0.090,0.000
1576,-0.130,-0.005
1577,-0.155,0.015
1578,-0.185,0.040
1579,-0.180,0.060
1580,-0.190,0.050
1581,-0.200,0.035
1582,-0.225,0.025
1583,-0.245,0.025
1584,-0.240,0.050
1585,-0.245,0.045
1586,-0.250,0.050
1587,-0.280,0.045
1588,-0.300,0.045
1589,-0.325,0.075
1590,-0.330,0.080
1591,-0.315,0.070
1592,-0.335,0.070
1593,-0.350,0.045
1594,-0.370,0.040
1595,-0.360,0.055
1596,-0.350,0.055
1597,-0.330,0.060
1598,-0.325,0.055
1599,-0.330,0.030
1600,-0.365,0.025
1601,-0.390,0.025
1602,-0.395,0.040
1603,-0.390,0.055
1604,-0.365,0.060
1605,-0.370,0.055
1606,-0.375,0.055
1607,-0.380,0.070
1608,-0.365,0.100
1609,-0.345,0.090
1610,-0.355,0.080
1611,-0.365,0.065
1612,-0.370,0.070
1613,-0.390,0.075
1614,-0.370,0.075
1615,-0.355,0.090
1616,-0.350,0.085
1617,-0.360,0.070
1618,-0.375,0.050
1619,-0.370,0.030
1620,-0.370,0.040
1621,-0.350,0.060
1622,-0.345,0.055
1623,-0.345,0.045
1624,-0.365,0.055
1625,-0.350,0.085
1626,-0.345,0.120
1627,-0.335,0.120
1628,-0.330,0.105
1629,-0.335,0.070
1630,-0.320,0.055
1631,-0.315,0.050
1632,-0.305,0.065
1633,-0.295,0.075
1634,-0.305,0.100
1635,-0.310,0.095
1636,-0.305,0.080
1637,-0.295,0.085
1638,-0.290,0.070
1639,-0.295,0.050
1640,-0.310,0.035
1641,-0.325,0.010
1642,-0.335,-0.010
1643,-0.320,0.020
1644,-0.290,0.035
1645,-0.295,0.040
1646,-0.300,0.040
1647,-0.310,0.035
1648,-0.320,0.040
1649,-0.315,0.060
1650,-0.285,0.080
1651,-0.260,0.075
1652,-0.275,0.060
1653,-0.300,0.025
1654,-0.315,0.005
1655,-0.310,0.020
1656,-0.300,0.040
1657,-0.290,0.050
1658,-0.300,0.045
1659,-0.315,0.025
1660,-0.315,0.010
1661,-0.315,0.025
1662,-0.315,0.055
1663,-0.310,0.065
1664,-0.315,0.055
1665,-0.315,0.015
1666,-0.340,0.010
1667,-0.355,0.020
1668,-0.345,0.040
1669,-0.330,0.040
1670,-0.325,0.035
1671,-0.315,0.030
1672,-0.350,0.020
1673,-0.345,0.015
1674,-0.340,0.025
1675,-0.335,0.015
1676,-0.340,0.015
1677,-0.355,0.000
1678,-0.375,0.015
1679,-0.365,0.050
1680,-0.350,0.070
1681,-0.335,0.095
1682,-0.350,0.085
1683,-0.360,0.075
1684,-0.370,0.045
1685,-0.370,0.040
1686,-0.370,0.030
1687,-0.355,0.015
1688,-0.355,0.005
1689,-0.370,0.000
1690,-0.385,0.005
1691,-0.375,0.015
1692,-0.365,0.035
1693,-0.340,0.020
1694,-0.345,0.015
1695,-0.360,0.015
1696,-0.370,0.010
1697,-0.365,0.025
1698,-0.360,0.020
1699,-0.365,0.025
1700,-0.350,0.020
1701,-0.355,0.025
1702,-0.380,0.005
1703,-0.390,0.020
1704,-0.390,0.045
1705,-0.365,0.055
1706,-0.350,0.055
1707,-0.360,0.035
1708,-0.400,0.025
1709,-0.415,0.030
1710,-0.395,0.025
1711,-0.385,0.025
1712,-0.385,0.015
1713,-0.370,0.010
1714,-0.385,0.015
1715,-0.375,0.005
1716,-0.375,0.020
1717,-0.365,0.040
1718,-0.350,0.040
1719,-0.380,0.025
1720,-0.390,0.015
1721,-0.385,0.010
1722,-0.400,0.030
1723,-0.365,0.045
1724,-0.375,0.035
1725,-0.390,0.010
1726,-0.410,0.000
1727,-0.395,0.005
1728,-0.400,0.015
1729,-0.400,0.045
1730,-0.405,0.050
1731,-0.400,0.025
1732,-0.385,0.020
1733,-0.380,0.005
1734,-0.365,0.005
1735,-0.390,0.015
1736,-0.395,0.025
1737,-0.415,0.025
1738,-0.430,0.035
1739,-0.420,0.050
1740,-0.405,0.055
1741,-0.390,0.040
1742,-0.370,0.035
1743,-0.380,0.010
1744,-0.380,0.005
1745,-0.395,0.005
1746,-0.400,0.015
1747,-0.395,0.040
1748,-0.385,0.035
1749,-0.395,0.030
1750,-0.405,0.015
1751,-0.395,0.020
1752,-0.400,0.035
1753,-0.385,0.025
1754,-0.370,0.030
1755,-0.390,0.020
1756,-0.395,-0.010
1757,-0.395,-0.005
1758,-0.390,0.010
1759,-0.380,0.035
1760,-0.395,0.030
1761,-0.420,0.035
1762,-0.415,0.025
1763,-0.385,0.020
1764,-0.355,0.015
1765,-0.355,0.010
1766,-0.355,0.010
1767,-0.365,0.005
1768,-0.380,0.005
1769,-0.375,0.015
1770,-0.375,0.045
1771,-0.365,0.055
1772,-0.370,0.050
1773,-0.370,0.050
1774,-0.390,0.060
1775,-0.385,0.060
1776,-0.365,0.055
1777,-0.330,0.075
1778,-0.320,0.065
1779,-0.300,0.085
1780,-0.310,0.065
1781,-0.290,0.075
1782,-0.255,0.085
1783,-0.215,0.075
1784,-0.140,0.055
1785,-0.080,0.025
1786,-0.065,-0.020
1787,-0.060,-0.030
1788,-0.085,-0.035
1789,-0.095,-0.030
1790,-0.125,-0.030
1791,-0.175,-0.020
1792,-0.190,-0.005
1793,-0.215,0.020
1794,-0.220,0.025
1795,-0.200,0.030
1796,-0.205,0.015
1797,-0.240,-0.010
1798,-0.290,-0.020
1799,-0.290,-0.015
1800,-0.305,-0.020
1801,-0.310,-0.010
1802,-0.360,0.000
1803,-0.415,0.025
1804,-0.455,0.035
1805,-0.445,0.065
1806,-0.435,0.070
1807,-0.410,0.060
1808,-0.400,0.040
1809,-0.410,0.020
1810,-0.425,0.005
1811,-0.435,0.030
1812,-0.410,0.055
1813,-0.390,0.040
1814,-0.370,0.010
1815,-0.385,-0.030
1816,-0.405,-0.035
1817,-0.430,-0.015
1818,-0.470,0.005
1819,-0.510,0.010
1820,-0.530,-0.010
1821,-0.505,-0.025
1822,-0.405,-0.030
1823,-0.150,-0.025
1824,0.285,-0.010
1825,0.830,-0.015
1826,1.330,-0.005
1827,1.675,0.035
1828,1.850,0.065
1829,1.940,0.110
1830,1.955,0.165
1831,1.860,0.210
1832,1.595,0.185
1833,1.100,0.110
1834,0.460,0.045
1835,-0.180,-0.005
1836,-0.820,-0.040
1837,-0.830,-0.080
1838,-0.650,-0.130
1839,-0.540,-0.185
1840,-0.540,-0.230
1841,-0.545,-0.210
1842,-0.530,-0.160
1843,-0.500,-0.105
1844,-0.505,-0.055
1845,-0.500,-0.035
1846,-0.530,-0.010
1847,-0.510,0.020
1848,-0.505,0.050
1849,-0.495,0.060
1850,-0.480,0.040
1851,-0.510,-0.005
1852,-0.525,-0.010
1853,-0.520,0.010
1854,-0.505,0.045
1855,-0.485,0.055
1856,-0.495,0.030
1857,-0.515,0.015
1858,-0.530,0.010
1859,-0.535,0.040
1860,-0.525,0.070
1861,-0.500,0.075
1862,-0.485,0.075
1863,-0.520,0.075
1864,-0.505,0.075
1865,-0.505,0.085
1866,-0.485,0.085
1867,-0.475,0.075
1868,-0.465,0.035
1869,-0.475,0.015
1870,-0.485,0.000
1871,-0.485,0.015
1872,-0.460,0.040
1873,-0.460,0.045
1874,-0.490,0.035
1875,-0.500,0.040
1876,-0.500,0.045
1877,-0.475,0.045
1878,-0.455,0.065
1879,-0.430,0.075
1880,-0.405,0.070
1881,-0.415,0.050
1882,-0.445,0.025
1883,-0.470,0.010
1884,-0.440,0.025
1885,-0.395,0.030
1886,-0.405,0.035
1887,-0.415,0.035
1888,-0.430,0.035
1889,-0.420,0.030
1890,-0.410,0.050
1891,-0.360,0.050
1892,-0.335,0.070
1893,-0.340,0.070
1894,-0.340,0.070
1895,-0.330,0.055
1896,-0.305,0.055
1897,-0.270,0.045
1898,-0.285,0.025
1899,-0.290,0.035
1900,-0.290,0.050
1901,-0.265,0.050
1902,-0.225,0.055
1903,-0.175,0.035
1904,-0.150,0.005
1905,-0.125,-0.015
1906,-0.135,-0.045
1907,-0.130,-0.025
1908,-0.135,0.020
1909,-0.110,0.055
1910,-0.100,0.050
1911,-0.065,0.040
1912,-0.050,0.025
1913,0.005,0.025
1914,0.035,0.040
1915,0.090,0.055
1916,0.125,0.045
1917,0.155,0.030
1918,0.170,0.000
1919,0.210,-0.005
1920,0.260,0.000
1921,0.300,0.010
1922,0.345,0.000
1923,0.375,-0.025
1924,0.405,-0.050
1925,0.410,-0.040
1926,0.435,-0.040
1927,0.470,-0.020
1928,0.495,-0.020
1929,0.495,-0.035
1930,0.490,-0.020
1931,0.485,0.000
1932,0.495,0.040
1933,0.520,0.040
1934,0.520,0.015
1935,0.500,-0.020
1936,0.465,-0.035
1937,0.415,-0.020
1938,0.410,0.020
1939,0.400,0.025
1940,0.385,0.000
1941,0.355,0.000
1942,0.290,-0.010
1943,0.250,0.010
1944,0.245,0.035
1945,0.230,0.040
1946,0.200,0.020
1947,0.150,0.010
1948,0.100,0.020
1949,0.090,0.035
1950,0.060,0.050
1951,0.050,0.045
1952,0.035,0.010
1953,0.010,-0.010
1954,-0.040,-0.015
1955,-0.080,0.025
1956,-0.080,0.055
1957,-0.095,0.075
1958,-0.105,0.090
1959,-0.115,0.070
1960,-0.150,0.050
1961,-0.175,0.035
1962,-0.160,0.025
1963,-0.155,0.015
1964,-0.165,0.010
1965,-0.195,0.005
1966,-0.210,0.010
1967,-0.230,0.030
1968,-0.225,0.035
1969,-0.240,0.065
1970,-0.255,0.055
1971,-0.265,0.040
1972,-0.310,0.030
1973,-0.320,0.045
1974,-0.310,0.080
1975,-0.295,0.100
1976,-0.300,0.100
1977,-0.310,0.090
1978,-0.320,0.075
1979,-0.330,0.055
1980,-0.345,0.075
1981,-0.360,0.065
1982,-0.345,0.060
1983,-0.345,0.050
1984,-0.355,0.060
1985,-0.350,0.080
1986,-0.350,0.100
1987,-0.355,0.105
1988,-0.340,0.090
1989,-0.355,0.085
1990,-0.355,0.065
1991,-0.360,0.090
1992,-0.330,0.115
1993,-0.310,0.135
1994,-0.320,0.105
1995,-0.325,0.065
1996,-0.335,0.055
1997,-0.350,0.060
1998,-0.355,0.080
1999,-0.355,0.105
2000,-0.330,0.110
2001,-0.355,0.095
2002,-0.330,0.075
2003,-0.335,0.065
2004,-0.330,0.060
2005,-0.305,0.075
2006,-0.280,0.060
2007,-0.275,0.030
2008,-0.265,0.005
2009,-0.270,0.010
2010,-0.260,0.025
2011,-0.255,0.050
2012,-0.255,0.045
2013,-0.270,0.035
2014,-0.275,0.030
2015,-0.265,0.035
2016,-0.290,0.040
2017,-0.260,0.075
2018,-0.245,0.060
2019,-0.240,0.050
2020,-0.250,0.045
2021,-0.255,0.060
2022,-0.265,0.095
2023,-0.265,0.110
2024,-0.275,0.095
2025,-0.270,0.090
2026,-0.275,0.080
2027,-0.270,0.065
2028,-0.260,0.070
2029,-0.235,0.055
2030,-0.245,0.020
2031,-0.260,0.005
2032,-0.280,-0.005
2033,-0.280,0.000
2034,-0.270,0.015
2035,-0.240,0.035
2036,-0.245,0.025
2037,-0.275,0.030
2038,-0.285,0.025
2039,-0.270,0.020
2040,-0.265,0.030
2041,-0.255,0.030
2042,-0.280,0.030
2043,-0.285,0.020
2044,-0.300,0.005
2045,-0.300,0.020
2046,-0.300,0.045
2047,-0.305,0.075
2048,-0.330,0.080
2049,-0.315,0.080
2050,-0.335,0.055
2051,-0.340,0.050
2052,-0.310,0.065
2053,-0.305,0.075
2054,-0.315,0.085
2055,-0.340,0.080
2056,-0.355,0.075
2057,-0.340,0.050
2058,-0.320,0.030
2059,-0.315,0.060
2060,-0.335,0.035
2061,-0.350,0.055
2062,-0.355,0.055
2063,-0.335,0.035
2064,-0.315,0.010
2065,-0.305,0.000
2066,-0.345,-0.005
2067,-0.360,0.005
2068,-0.375,0.030
2069,-0.365,0.045
2070,-0.360,0.065
2071,-0.350,0.075
2072,-0.340,0.055
2073,-0.340,0.030
2074,-0.350,0.010
2075,-0.335,0.015
2076,-0.315,0.030
2077,-0.320,0.040
2078,-0.315,0.025
2079,-0.340,0.035
2080,-0.390,0.040
2081,-0.385,0.065
2082,-0.365,0.085
2083,-0.365,0.105
2084,-0.360,0.100
2085,-0.360,0.075
2086,-0.370,0.045
2087,-0.365,0.045
2088,-0.350,0.045
2089,-0.355,0.070
2090,-0.355,0.055
2091,-0.360,0.055
2092,-0.395,0.050
2093,-0.400,0.050
2094,-0.395,0.075
2095,-0.385,0.095
2096,-0.375,0.100
2097,-0.360,0.080
2098,-0.390,0.070
2099,-0.400,0.055
2100,-0.395,0.030
2101,-0.335,0.015
2102,-0.330,-0.010
2103,-0.355,-0.010
2104,-0.380,-0.010
2105,-0.395,0.020
2106,-0.390,0.050
2107,-0.370,0.065
2108,-0.350,0.065
2109,-0.355,0.040
2110,-0.350,0.005
2111,-0.375,0.010
2112,-0.365,0.025
2113,-0.350,0.040
2114,-0.330,0.040
2115,-0.365,0.030
2116,-0.365,0.035
2117,-0.360,0.035
2118,-0.350,0.035
2119,-0.335,0.065
2120,-0.335,0.045
2121,-0.365,0.035
2122,-0.395,0.035
2123,-0.385,0.035
2124,-0.370,0.035
2125,-0.365,0.060
2126,-0.370,0.065
2127,-0.400,0.065
2128,-0.410,0.085
2129,-0.390,0.095
2130,-0.400,0.090
2131,-0.375,0.085
2132,-0.370,0.070
2133,-0.370,0.055
2134,-0.395,0.045
2135,-0.380,0.055
2136,-0.375,0.065
2137,-0.360,0.075
2138,-0.355,0.055
2139,-0.350,0.035
2140,-0.340,0.020
2141,-0.335,0.045
2142,-0.340,0.075
2143,-0.320,0.090
2144,-0.310,0.080
2145,-0.310,0.065
2146,-0.310,0.060
2147,-0.290,0.085
2148,-0.255,0.110
2149,-0.215,0.135
2150,-0.185,0.125
2151,-0.150,0.110
2152,-0.115,0.080
2153,-0.075,0.050
2154,-0.050,0.030
2155,-0.060,0.040
2156,-0.075,0.020
2157,-0.120,0.015
2158,-0.140,0.015
2159,-0.180,0.020
2160,-0.190,0.040
2161,-0.180,0.050
2162,-0.185,0.055
2163,-0.205,0.045
2164,-0.230,0.050
2165,-0.255,0.065
2166,-0.265,0.060
2167,-0.280,0.065
2168,-0.295,0.035
2169,-0.315,0.030
2170,-0.350,0.025
2171,-0.365,0.050
2172,-0.365,0.075
2173,-0.350,0.090
2174,-0.355,0.065
2175,-0.380,0.050
2176,-0.400,0.030
2177,-0.400,0.045
2178,-0.380,0.050
2179,-0.360,0.060
2180,-0.355,0.050
2181,-0.365,0.035
2182,-0.380,0.025
2183,-0.375,0.050
2184,-0.390,0.055
2185,-0.375,0.080
2186,-0.395,0.070
2187,-0.450,0.050
2188,-0.510,0.055
2189,-0.480,0.050
2190,-0.340,0.075
2191,-0.060,0.090
2192,0.310,0.055
2193,0.770,0.025
2194,1.210,0.010
2195,1.575,0.065
2196,1.810,0.155
2197,1.935,0.235
2198,1.965,0.275
2199,1.920,0.280
2200,1.710,0.235
2201,1.330,0.165
2202,0.775,0.120
2203,0.135,0.085
2204,-0.495,0.000
2205,-0.790,-0.060
2206,-0.720,-0.110
2207,-0.530,-0.145
2208,-0.440,-0.135
2209,-0.440,-0.115
2210,-0.450,-0.095
2211,-0.440,-0.080
2212,-0.420,-0.055
2213,-0.420,0.000
2214,-0.430,0.055
2215,-0.430,0.090
2216,-0.455,0.090
2217,-0.445,0.065
2218,-0.460,0.055
2219,-0.460,0.050
2220,-0.470,0.080
2221,-0.465,0.115
2222,-0.445,0.115
2223,-0.445,0.100
2224,-0.445,0.100
2225,-0.465,0.100
2226,-0.460,0.110
2227,-0.445,0.125
2228,-0.440,0.110
2229,-0.465,0.095
2230,-0.455,0.085
2231,-0.445,0.075
2232,-0.430,0.075
2233,-0.425,0.080
2234,-0.420,0.095
2235,-0.410,0.080
2236,-0.415,0.065
2237,-0.425,0.070
2238,-0.415,0.080
2239,-0.395,0.100
2240,-0.400,0.100
2241,-0.410,0.090
2242,-0.435,0.085
2243,-0.435,0.085
2244,-0.400,0.095
2245,-0.385,0.105
2246,-0.385,0.100
2247,-0.395,0.095
2248,-0.390,0.100
2249,-0.390,0.105
2250,-0.360,0.110
2251,-0.350,0.120
2252,-0.360,0.090
2253,-0.385,0.095
2254,-0.370,0.080
2255,-0.340,0.115
2256,-0.325,0.115
2257,-0.305,0.120
2258,-0.305,0.125
2259,-0.295,0.125
2260,-0.290,0.100
2261,-0.290,0.105
2262,-0.275,0.105
2263,-0.250,0.120
2264,-0.235,0.135
2265,-0.245,0.125
2266,-0.240,0.110
2267,-0.240,0.105
2268,-0.200,0.095
2269,-0.160,0.095
2270,-0.140,0.095
2271,-0.135,0.080
2272,-0.130,0.075
2273,-0.110,0.075
2274,-0.090,0.080
2275,-0.055,0.085
2276,-0.040,0.090
2277,-0.040,0.080
2278,-0.030,0.085
2279,-0.005,0.070
2280,0.050,0.070
2281,0.085,0.070
2282,0.095,0.065
2283,0.140,0.065
2284,0.140,0.065
2285,0.165,0.080
2286,0.210,0.105
2287,0.270,0.110
2288,0.315,0.095
2289,0.335,0.085
2290,0.330,0.080
2291,0.375,0.085
2292,0.410,0.105
2293,0.450,0.115
2294,0.480,0.105
2295,0.485,0.090
2296,0.510,0.095
2297,0.550,0.085
2298,0.565,0.070
2299,0.590,0.070
2300,0.595,0.040
2301,0.565,0.025
2302,0.555,0.045
2303,0.540,0.070
2304,0.540,0.090
2305,0.535,0.105
2306,0.515,0.090
2307,0.480,0.070
2308,0.445,0.060
2309,0.435,0.045
2310,0.405,0.070
2311,0.375,0.085
2312,0.330,0.085
2313,0.300,0.075
2314,0.240,0.055
2315,0.210,0.075
2316,0.170,0.080
2317,0.170,0.090
2318,0.145,0.080
2319,0.100,0.070
2320,0.040,0.055
2321,0.020,0.070
2322,0.005,0.085
2323,-0.010,0.100
2324,-0.035,0.095
2325,-0.060,0.090
2326,-0.105,0.105
2327,-0.130,0.125
2328,-0.130,0.120
2329,-0.120,0.120
2330,-0.120,0.085
2331,-0.155,0.065
2332,-0.185,0.050
2333,-0.195,0.070
2334,-0.205,0.075
2335,-0.200,0.080
2336,-0.225,0.080
2337,-0.240,0.075
2338,-0.265,0.065
2339,-0.285,0.080
2340,-0.280,0.085
2341,-0.285,0.095
2342,-0.270,0.085
2343,-0.295,0.080
2344,-0.315,0.075
2345,-0.330,0.080
2346,-0.335,0.100
2347,-0.335,0.115
2348,-0.345,0.110
2349,-0.360,0.100
2350,-0.375,0.090
2351,-0.375,0.095
2352,-0.365,0.115
2353,-0.360,0.140
2354,-0.345,0.150
2355,-0.345,0.130
2356,-0.365,0.095
2357,-0.370,0.085
2358,-0.380,0.100
2359,-0.355,0.115
2360,-0.325,0.100
2361,-0.330,0.095
2362,-0.355,0.080
2363,-0.365,0.085
2364,-0.375,0.095
2365,-0.355,0.095
2366,-0.350,0.095
2367,-0.355,0.085
2368,-0.360,0.080
2369,-0.345,0.080
2370,-0.335,0.090
2371,-0.310,0.090
2372,-0.325,0.090
2373,-0.330,0.065
2374,-0.350,0.050
2375,-0.340,0.060
2376,-0.345,0.080
2377,-0.345,0.095
2378,-0.345,0.110
2379,-0.335,0.095
2380,-0.350,0.085
2381,-0.360,0.100
2382,-0.360,0.115
2383,-0.335,0.135
2384,-0.330,0.135
2385,-0.335,0.125
2386,-0.335,0.115
2387,-0.330,0.130
2388,-0.295,0.145
2389,-0.280,0.155
2390,-0.300,0.125
2391,-0.330,0.090
2392,-0.350,0.085
2393,-0.330,0.090
2394,-0.315,0.125
2395,-0.295,0.135
2396,-0.315,0.135
2397,-0.310,0.115
2398,-0.305,0.075
2399,-0.295,0.085
2400,-0.280,0.085
2401,-0.265,0.110
2402,-0.255,0.120
2403,-0.275,0.100
2404,-0.295,0.110
2405,-0.325,0.105
2406,-0.320,0.110
2407,-0.275,0.105
2408,-0.265,0.080
2409,-0.275,0.050
2410,-0.300,0.040
2411,-0.315,0.050
2412,-0.315,0.080
2413,-0.285,0.085
2414,-0.260,0.085
2415,-0.280,0.080
2416,-0.300,0.060
2417,-0.325,0.085
2418,-0.330,0.095
2419,-0.315,0.125
2420,-0.325,0.125
2421,-0.335,0.115
2422,-0.340,0.115
2423,-0.350,0.125
2424,-0.320,0.120
2425,-0.310,0.115
2426,-0.305,0.095
2427,-0.310,0.090
2428,-0.345,0.090
2429,-0.325,0.090
2430,-0.315,0.085
2431,-0.300,0.075
2432,-0.305,0.075
2433,-0.330,0.055
2434,-0.355,0.050
2435,-0.330,0.045
2436,-0.305,0.070
2437,-0.310,0.090
2438,-0.315,0.090
2439,-0.320,0.090
2440,-0.340,0.070
2441,-0.355,0.080
2442,-0.340,0.095
2443,-0.325,0.085
2444,-0.315,0.090
2445,-0.315,0.065
2446,-0.335,0.080
2447,-0.335,0.080
2448,-0.320,0.090
2449,-0.290,0.095
2450,-0.250,0.065
2451,-0.280,0.035
2452,-0.325,0.035
2453,-0.330,0.045
2454,-0.330,0.070
2455,-0.320,0.075
2456,-0.315,0.070
2457,-0.290,0.055
2458,-0.255,0.060
2459,-0.250,0.055
2460,-0.245,0.055
2461,-0.275,0.065
2462,-0.270,0.065
2463,-0.255,0.045
2464,-0.245,0.040
2465,-0.210,0.035
2466,-0.205,0.070
2467,-0.180,0.060
2468,-0.165,0.050
2469,-0.195,0.050
2470,-0.230,0.055
2471,-0.255,0.065
2472,-0.260,0.070
2473,-0.270,0.090
2474,-0.260,0.080
2475,-0.250,0.065
2476,-0.235,0.050
2477,-0.225,0.055
2478,-0.185,0.050
2479,-0.160,0.055
2480,-0.125,0.060
2481,-0.130,0.035
2482,-0.155,0.030
2483,-0.180,0.025
2484,-0.190,0.055
2485,-0.170,0.095
2486,-0.155,0.095
2487,-0.150,0.070
2488,-0.130,0.040
2489,-0.115,0.015
2490,-0.110,0.010
2491,-0.110,0.010
2492,-0.125,0.015
2493,-0.120,0.005
2494,-0.145,0.005
2495,-0.145,0.005
2496,-0.120,0.015
2497,-0.120,0.040
2498,-0.100,0.035
2499,-0.095,0.015
2500,-0.110,0.020
2501,-0.135,0.015
2502,-0.125,0.035
2503,-0.100,0.035
2504,-0.095,0.025
2505,-0.125,0.020
2506,-0.150,0.030
2507,-0.155,0.050
2508,-0.130,0.050
2509,-0.110,0.070
2510,-0.100,0.040
2511,-0.120,0.025
2512,-0.120,0.020
2513,-0.120,0.030
2514,-0.090,0.040
2515,-0.050,0.055
2516,-0.040,0.065
2517,-0.030,0.050
2518,-0.015,0.050
2519,-0.015,0.045
2520,-0.020,0.080
2521,-0.005,0.100
2522,0.025,0.105
2523,0.050,0.090
2524,0.045,0.090
2525,0.100,0.095
2526,0.170,0.080
2527,0.210,0.075
2528,0.215,0.050
2529,0.200,0.030
2530,0.155,0.035
2531,0.165,0.045
2532,0.195,0.070
2533,0.200,0.075
2534,0.165,0.070
2535,0.115,0.075
2536,0.090,0.065
2537,0.075,0.075
2538,0.065,0.075
2539,0.050,0.085
2540,0.000,0.085
2541,-0.045,0.105
2542,-0.095,0.105
2543,-0.090,0.075
2544,-0.055,0.080
2545,-0.030,0.075
2546,-0.050,0.080
2547,-0.070,0.075
2548,-0.115,0.065
2549,-0.155,0.075
2550,-0.200,0.095
2551,-0.225,0.115
2552,-0.220,0.125
2553,-0.175,0.100
2554,-0.155,0.100
2555,-0.150,0.100
2556,-0.150,0.120
2557,-0.145,0.130
2558,-0.165,0.115
2559,-0.200,0.105
2560,-0.220,0.090
2561,-0.235,0.090
2562,-0.250,0.080
2563,-0.185,0.085
2564,-0.020,0.070
2565,0.240,0.045
2566,0.605,0.025
2567,1.090,0.015
2568,1.545,0.060
2569,1.875,0.125
2570,2.030,0.185
2571,2.075,0.230
2572,2.025,0.280
2573,1.910,0.370
2574,1.660,0.395
2575,1.200,0.365
2576,0.560,0.285
2577,-0.080,0.170
2578,-0.510,0.060
2579,-0.470,-0.010
2580,-0.260,-0.075
2581,-0.150,-0.115
2582,-0.170,-0.135
2583,-0.210,-0.120
2584,-0.190,-0.075
2585,-0.170,-0.015
2586,-0.130,0.035
2587,-0.140,0.070
2588,-0.120,0.060
2589,-0.130,0.050
2590,-0.150,0.050
2591,-0.175,0.060
2592,-0.165,0.080
2593,-0.155,0.115
2594,-0.160,0.105
2595,-0.190,0.100
2596,-0.215,0.090
2597,-0.215,0.110
2598,-0.220,0.135
2599,-0.220,0.170
2600,-0.240,0.175
2601,-0.250,0.165
2602,-0.250,0.155
2603,-0.230,0.150
2604,-0.220,0.150
2605,-0.185,0.155
2606,-0.165,0.140
2607,-0.175,0.130
2608,-0.170,0.110
2609,-0.150,0.125
2610,-0.145,0.145
2611,-0.145,0.140
2612,-0.190,0.120
2613,-0.220,0.115
2614,-0.225,0.095
2615,-0.220,0.090
2616,-0.165,0.100
2617,-0.130,0.095
2618,-0.145,0.080
2619,-0.175,0.080
2620,-0.185,0.085
2621,-0.170,0.100
2622,-0.140,0.110
2623,-0.105,0.105
2624,-0.110,0.110
2625,-0.125,0.090
2626,-0.145,0.090
2627,-0.155,0.095
2628,-0.095,0.115
2629,-0.040,0.120
2630,0.010,0.120
2631,0.040,0.105
2632,0.030,0.085
2633,0.000,0.075
2634,-0.020,0.085
2635,-0.040,0.110
2636,-0.070,0.120
2637,-0.070,0.115
2638,-0.060,0.100
2639,-0.005,0.105
2640,0.025,0.110
2641,0.030,0.115
2642,0.055,0.115
2643,0.065,0.105
2644,0.050,0.105
2645,0.070,0.110
2646,0.115,0.130
2647,0.140,0.150
2648,0.160,0.140
2649,0.185,0.125
2650,0.205,0.100
2651,0.255,0.110
2652,0.295,0.110
2653,0.325,0.100
2654,0.355,0.095
2655,0.350,0.080
2656,0.365,0.085
2657,0.410,0.095
2658,0.455,0.090
2659,0.480,0.105
2660,0.500,0.080
2661,0.515,0.080
2662,0.540,0.060
2663,0.570,0.075
2664,0.580,0.075
2665,0.625,0.105
2666,0.635,0.085
2667,0.650,0.075
2668,0.665,0.065
2669,0.690,0.060
2670,0.710,0.065
2671,0.710,0.085
2672,0.710,0.075
2673,0.690,0.070
2674,0.660,0.060
2675,0.635,0.070
2676,0.615,0.095
2677,0.590,0.105
2678,0.565,0.105
2679,0.525,0.085
2680,0.495,0.090
2681,0.465,0.090
2682,0.440,0.090
2683,0.450,0.095
2684,0.435,0.085
2685,0.380,0.085
2686,0.320,0.085
2687,0.315,0.090
2688,0.280,0.105
2689,0.250,0.110
2690,0.210,0.105
2691,0.175,0.095
2692,0.135,0.105
2693,0.125,0.110
2694,0.135,0.115
2695,0.130,0.115
2696,0.100,0.100
2697,0.060,0.100
2698,0.045,0.085
2699,0.045,0.105
2700,0.010,0.135
2701,-0.025,0.160
2702,-0.075,0.165
2703,-0.110,0.160
2704,-0.130,0.135
2705,-0.140,0.125
2706,-0.110,0.130
2707,-0.080,0.135
2708,-0.080,0.120
2709,-0.115,0.105
2710,-0.155,0.110
2711,-0.175,0.115
2712,-0.155,0.135
2713,-0.110,0.150
2714,-0.105,0.135
2715,-0.130,0.120
2716,-0.160,0.120
2717,-0.190,0.125
2718,-0.160,0.135
2719,-0.150,0.155
2720,-0.165,0.155
2721,-0.180,0.150
2722,-0.190,0.150
2723,-0.170,0.150
2724,-0.155,0.150
2725,-0.155,0.130
2726,-0.145,0.135
2727,-0.145,0.135
2728,-0.155,0.125
2729,-0.165,0.130
2730,-0.170,0.130
2731,-0.140,0.145
2732,-0.155,0.130
2733,-0.180,0.130
2734,-0.210,0.140
2735,-0.205,0.150
2736,-0.180,0.165
2737,-0.145,0.155
2738,-0.150,0.150
2739,-0.160,0.135
2740,-0.200,0.125
2741,-0.210,0.140
2742,-0.210,0.160
2743,-0.160,0.175
2744,-0.140,0.175
2745,-0.140,0.165
2746,-0.155,0.145
2747,-0.145,0.140
2748,-0.135,0.160
2749,-0.120,0.165
2750,-0.115,0.145
2751,-0.135,0.140
2752,-0.150,0.130
2753,-0.160,0.140
2754,-0.160,0.150
2755,-0.155,0.155
2756,-0.155,0.140
2757,-0.180,0.145
2758,-0.195,0.115
2759,-0.180,0.115
2760,-0.170,0.125
2761,-0.140,0.155
2762,-0.150,0.140
2763,-0.150,0.115
2764,-0.170,0.105
2765,-0.185,0.115
2766,-0.175,0.125
2767,-0.170,0.135
2768,-0.165,0.125
2769,-0.180,0.120
2770,-0.215,0.120
2771,-0.210,0.120
2772,-0.180,0.130
2773,-0.175,0.135
2774,-0.185,0.135
2775,-0.205,0.125
2776,-0.190,0.120
2777,-0.180,0.120
2778,-0.175,0.105
2779,-0.210,0.130
2780,-0.225,0.125
2781,-0.240,0.115
2782,-0.250,0.100
2783,-0.255,0.100
2784,-0.230,0.110
2785,-0.225,0.125
2786,-0.240,0.110
2787,-0.255,0.105
2788,-0.255,0.085
2789,-0.255,0.115
2790,-0.245,0.135
2791,-0.250,0.150
2792,-0.265,0.145
2793,-0.255,0.130
2794,-0.295,0.105
2795,-0.285,0.085
2796,-0.270,0.085
2797,-0.260,0.090
2798,-0.275,0.095
2799,-0.295,0.075
2800,-0.320,0.080
2801,-0.315,0.080
2802,-0.295,0.095
2803,-0.280,0.105
2804,-0.305,0.090
2805,-0.355,0.095
2806,-0.400,0.090
2807,-0.385,0.115
2808,-0.320,0.125
2809,-0.270,0.135
2810,-0.260,0.130
2811,-0.275,0.125
2812,-0.310,0.110
2813,-0.325,0.120
2814,-0.315,0.135
2815,-0.285,0.145
2816,-0.285,0.120
2817,-0.320,0.100
2818,-0.355,0.095
2819,-0.355,0.115
2820,-0.330,0.120
2821,-0.310,0.135
2822,-0.285,0.130
2823,-0.285,0.105
2824,-0.295,0.105
2825,-0.305,0.110
2826,-0.305,0.130
2827,-0.295,0.130
2828,-0.315,0.105
2829,-0.340,0.060
2830,-0.370,0.050
2831,-0.400,0.060
2832,-0.390,0.090
2833,-0.375,0.110
2834,-0.345,0.100
2835,-0.340,0.080
2836,-0.355,0.065
2837,-0.335,0.055
2838,-0.320,0.070
2839,-0.305,0.090
2840,-0.330,0.080
2841,-0.385,0.090
2842,-0.395,0.080
2843,-0.370,0.095
2844,-0.320,0.100
2845,-0.275,0.100
2846,-0.265,0.100
2847,-0.285,0.095
2848,-0.320,0.085
2849,-0.335,0.075
2850,-0.340,0.090
2851,-0.335,0.085
2852,-0.345,0.080
2853,-0.360,0.090
2854,-0.370,0.085
2855,-0.365,0.090
2856,-0.375,0.095
2857,-0.390,0.115
2858,-0.385,0.110
2859,-0.390,0.090
2860,-0.400,0.075
2861,-0.405,0.085
2862,-0.385,0.110
2863,-0.360,0.120
2864,-0.325,0.110
2865,-0.305,0.100
2866,-0.315,0.100
2867,-0.295,0.100
2868,-0.270,0.110
2869,-0.255,0.140
2870,-0.210,0.160
2871,-0.185,0.175
2872,-0.180,0.180
2873,-0.135,0.165
2874,-0.090,0.150
2875,-0.010,0.115
2876,0.040,0.085
2877,0.075,0.065
2878,0.050,0.025
2879,0.005,0.010
2880,-0.040,0.010
2881,-0.055,0.015
2882,-0.105,0.015
2883,-0.165,0.020
2884,-0.225,0.040
2885,-0.205,0.060
2886,-0.165,0.065
2887,-0.145,0.065
2888,-0.190,0.070
2889,-0.280,0.090
2890,-0.365,0.080
2891,-0.415,0.095
2892,-0.395,0.110
2893,-0.375,0.125
2894,-0.415,0.110
2895,-0.460,0.095
2896,-0.480,0.090
2897,-0.460,0.095
2898,-0.445,0.115
2899,-0.435,0.125
2900,-0.450,0.130
2901,-0.420,0.120
2902,-0.420,0.095
2903,-0.430,0.100
2904,-0.495,0.095
2905,-0.505,0.120
2906,-0.495,0.115
2907,-0.495,0.110
2908,-0.565,0.100
2909,-0.625,0.110
2910,-0.615,0.135
2911,-0.495,0.170
2912,-0.250,0.175
2913,0.125,0.150
2914,0.580,0.110
2915,1.070,0.095
2916,1.460,0.110
2917,1.705,0.170
2918,1.845,0.190
2919,1.900,0.215
2920,1.830,0.255
2921,1.625,0.320
2922,1.175,0.355
2923,0.535,0.325
2924,-0.105,0.265
2925,-0.745,0.170
2926,-1.035,0.040
2927,-0.795,-0.075
2928,-0.595,-0.165
2929,-0.570,-0.205
2930,-0.605,-0.175
2931,-0.620,-0.110
2932,-0.590,-0.030
2933,-0.565,0.040
2934,-0.550,0.085
2935,-0.550,0.115
2936,-0.540,0.100
2937,-0.540,0.050
2938,-0.530,0.025
2939,-0.525,0.025
2940,-0.530,0.015
2941,-0.550,0.035
2942,-0.580,0.055
2943,-0.580,0.090
2944,-0.610,0.095
2945,-0.625,0.100
2946,-0.640,0.100
2947,-0.645,0.090
2948,-0.665,0.080
2949,-0.705,0.095
2950,-0.725,0.120
2951,-0.710,0.125
2952,-0.670,0.135
2953,-0.645,0.125
2954,-0.615,0.100
2955,-0.590,0.070
2956,-0.555,0.035
2957,-0.550,0.015
2958,-0.580,0.025
2959,-0.600,0.040
2960,-0.635,0.060
2961,-0.635,0.070
2962,-0.640,0.070
2963,-0.625,0.085
2964,-0.620,0.095
2965,-0.610,0.110
2966,-0.610,0.090
2967,-0.610,0.075
2968,-0.595,0.065
2969,-0.575,0.075
2970,-0.540,0.080
2971,-0.530,0.090
2972,-0.530,0.075
2973,-0.525,0.055
2974,-0.525,0.060
2975,-0.500,0.050
2976,-0.490,0.055
2977,-0.495,0.065
2978,-0.485,0.075
2979,-0.465,0.060
2980,-0.475,0.055
2981,-0.455,0.055
2982,-0.435,0.070
2983,-0.380,0.085
2984,-0.340,0.065
2985,-0.355,0.055
2986,-0.410,0.035
2987,-0.420,0.055
2988,-0.395,0.085
2989,-0.340,0.105
2990,-0.295,0.100
2991,-0.265,0.065
2992,-0.250,0.040
2993,-0.225,0.045
2994,-0.210,0.070
2995,-0.200,0.090
2996,-0.180,0.100
2997,-0.145,0.100
2998,-0.110,0.085
2999,-0.035,0.040
3000,0.015,-0.010
3001,0.045,-0.025
3002,0.075,-0.030
3003,0.105,-0.020
3004,0.140,-0.035
3005,0.170,-0.020
3006,0.200,-0.030
3007,0.230,-0.045
3008,0.265,-0.075
3009,0.295,-0.095
3010,0.315,-0.095
3011,0.345,-0.075
3012,0.375,-0.065
3013,0.405,-0.050
3014,0.410,-0.060
3015,0.380,-0.065
3016,0.355,-0.075
3017,0.325,-0.065
3018,0.305,-0.030
3019,0.265,-0.005
3020,0.225,-0.005
3021,0.195,-0.010
3022,0.170,-0.005
3023,0.150,-0.015
3024,0.125,0.005
3025,0.080,0.015
3026,0.040,0.020
3027,0.010,0.000
3028,-0.010,-0.005
3029,-0.040,-0.015
3030,-0.090,0.010
3031,-0.130,0.050
3032,-0.145,0.055
3033,-0.200,0.030
3034,-0.245,0.010
3035,-0.270,0.020
3036,-0.275,0.035
3037,-0.300,0.055
3038,-0.310,0.030
3039,-0.330,0.000
3040,-0.350,0.000
3041,-0.370,0.020
3042,-0.390,0.020
3043,-0.400,0.030
3044,-0.425,0.005
3045,-0.460,0.005
3046,-0.475,-0.005
3047,-0.470,0.015
3048,-0.465,0.030
3049,-0.470,0.035
3050,-0.470,0.015
3051,-0.485,-0.005
3052,-0.520,-0.005
3053,-0.545,0.020
3054,-0.560,0.040
3055,-0.560,0.060
3056,-0.565,0.055
3057,-0.570,0.030
3058,-0.565,0.025
3059,-0.565,0.045
3060,-0.560,0.065
3061,-0.550,0.065
3062,-0.530,0.045
3063,-0.525,0.010
3064,-0.550,-0.010
3065,-0.555,0.020
3066,-0.560,0.050
3067,-0.530,0.065
3068,-0.525,0.055
3069,-0.515,0.045
3070,-0.520,0.030
3071,-0.515,0.025
3072,-0.510,0.045
3073,-0.520,0.060
3074,-0.515,0.055
3075,-0.500,0.045
3076,-0.500,0.015
3077,-0.480,0.040
3078,-0.465,0.060
3079,-0.455,0.060
3080,-0.475,0.070
3081,-0.490,0.070
3082,-0.495,0.055
3083,-0.495,0.050
3084,-0.485,0.060
3085,-0.465,0.050
3086,-0.430,0.045
3087,-0.420,0.025
3088,-0.410,0.020
3089,-0.425,0.030
3090,-0.450,0.055
3091,-0.460,0.095
3092,-0.450,0.095
3093,-0.430,0.060
3094,-0.430,0.030
3095,-0.415,0.025
3096,-0.410,0.035
3097,-0.425,0.055
3098,-0.440,0.040
3099,-0.465,0.035
3100,-0.470,0.010
3101,-0.465,0.015
3102,-0.440,0.025
3103,-0.400,0.030
3104,-0.375,0.035
3105,-0.400,0.030
3106,-0.440,0.015
3107,-0.460,0.010
3108,-0.460,0.015
3109,-0.445,0.020
3110,-0.460,0.030
3111,-0.430,0.020
3112,-0.455,0.020
3113,-0.465,0.025
3114,-0.455,0.025
3115,-0.430,0.010
3116,-0.410,0.000
3117,-0.435,0.000
3118,-0.475,0.005
3119,-0.495,0.030
3120,-0.470,0.045
3121,-0.445,0.060
3122,-0.435,0.075
3123,-0.440,0.060
3124,-0.450,0.030
3125,-0.475,-0.005
3126,-0.485,-0.020
3127,-0.470,-0.020
3128,-0.505,-0.030
3129,-0.510,-0.020
3130,-0.535,-0.020
3131,-0.545,0.000
3132,-0.530,0.035
3133,-0.515,0.055
3134,-0.500,0.045
3135,-0.490,0.050
3136,-0.485,0.030
3137,-0.485,0.025
3138,-0.485,0.010
3139,-0.490,0.035
3140,-0.490,0.030
3141,-0.515,0.040
3142,-0.505,0.025
3143,-0.500,0.010
3144,-0.480,0.000
3145,-0.465,0.000
3146,-0.475,0.000
3147,-0.470,-0.020
3148,-0.475,-0.025
3149,-0.470,-0.015
3150,-0.475,0.000
3151,-0.480,0.045
3152,-0.455,0.040
3153,-0.485,0.045
3154,-0.525,0.050
3155,-0.535,0.055
3156,-0.515,0.010
3157,-0.510,0.010
3158,-0.485,0.000
3159,-0.495,0.015
3160,-0.495,0.015
3161,-0.485,0.020
3162,-0.495,0.005
3163,-0.480,0.020
3164,-0.485,0.000
3165,-0.495,0.010
3166,-0.510,0.020
3167,-0.505,0.020
3168,-0.460,0.030
3169,-0.445,0.030
3170,-0.440,0.010
3171,-0.455,0.010
3172,-0.495,0.015
3173,-0.490,0.020
3174,-0.485,0.025
3175,-0.445,-0.015
3176,-0.425,-0.035
3177,-0.435,-0.025
3178,-0.450,-0.025
3179,-0.450,0.000
3180,-0.395,0.010
3181,-0.360,0.005
3182,-0.350,-0.005
3183,-0.345,-0.015
3184,-0.375,0.000
3185,-0.355,0.025
3186,-0.350,0.070
3187,-0.340,0.110
3188,-0.325,0.130
3189,-0.270,0.135
3190,-0.220,0.130
3191,-0.150,0.120
3192,-0.100,0.060
3193,-0.080,0.020
3194,-0.085,-0.025
3195,-0.110,-0.040
3196,-0.170,-0.050
3197,-0.185,-0.030
3198,-0.205,0.000
3199,-0.220,0.040
3200,-0.225,0.030
3201,-0.275,0.005
3202,-0.320,-0.010
3203,-0.360,-0.010
3204,-0.380,0.010
3205,-0.390,0.015
3206,-0.385,0.020
3207,-0.380,-0.010
3208,-0.410,-0.025
3209,-0.455,-0.030
3210,-0.480,-0.005
3211,-0.470,0.015
3212,-0.475,0.020
3213,-0.465,-0.005
3214,-0.490,-0.020
3215,-0.495,-0.010
3216,-0.485,0.015
3217,-0.465,0.020
3218,-0.450,0.015
3219,-0.445,-0.005
3220,-0.475,-0.020
3221,-0.490,-0.020
3222,-0.500,0.010
3223,-0.540,0.015
3224,-0.580,0.005
3225,-0.595,-0.035
3226,-0.520,-0.040
3227,-0.330,-0.025
3228,0.010,-0.010
3229,0.505,-0.010
3230,1.030,-0.020
3231,1.470,0.005
3232,1.720,0.050
3233,1.855,0.105
3234,1.915,0.185
3235,1.885,0.250
3236,1.735,0.280
3237,1.350,0.230
3238,0.710,0.135
3239,0.070,0.055
3240,-0.570,0.015
3241,-1.050,-0.035
3242,-0.880,-0.115
3243,-0.675,-0.200
3244,-0.625,-0.275
3245,-0.635,-0.260
3246,-0.625,-0.220
3247,-0.590,-0.155
3248,-0.575,-0.095
3249,-0.560,-0.065
3250,-0.565,-0.045
3251,-0.575,-0.025
3252,-0.560,0.010
3253,-0.575,0.030
3254,-0.570,0.035
3255,-0.580,0.030
3256,-0.585,0.010
3257,-0.575,0.035
3258,-0.555,0.035
3259,-0.560,0.065
3260,-0.570,0.070
3261,-0.595,0.060
3262,-0.620,0.035
3263,-0.605,0.055
3264,-0.600,0.050
3265,-0.575,0.075
3266,-0.565,0.070
3267,-0.555,0.065
3268,-0.570,0.070
3269,-0.575,0.070
3270,-0.555,0.070
3271,-0.540,0.075
3272,-0.525,0.045
3273,-0.530,0.040
3274,-0.550,0.025
3275,-0.550,0.045
3276,-0.535,0.070
3277,-0.535,0.075
3278,-0.525,0.080
3279,-0.505,0.075
3280,-0.530,0.045
3281,-0.545,0.050
3282,-0.530,0.075
3283,-0.515,0.115
3284,-0.490,0.125
3285,-0.480,0.100
3286,-0.475,0.070
3287,-0.475,0.045
3288,-0.465,0.060
3289,-0.445,0.045
3290,-0.405,0.015
3291,-0.385,-0.015
3292,-0.385,-0.050
3293,-0.410,-0.030
3294,-0.425,0.010
3295,-0.415,0.035
3296,-0.415,0.060
3297,-0.390,0.070
3298,-0.365,0.070
3299,-0.350,0.090
3300,-0.320,0.095
3301,-0.290,0.095
3302,-0.275,0.090
3303,-0.285,0.085
3304,-0.310,0.085
3305,-0.285,0.085
3306,-0.255,0.100
3307,-0.195,0.090
3308,-0.155,0.050
3309,-0.120,-0.010
3310,-0.125,-0.050
3311,-0.100,-0.050
3312,-0.065,-0.025
3313,0.005,0.000
3314,0.055,0.015
3315,0.080,-0.010
3316,0.105,-0.040
3317,0.100,-0.050
3318,0.095,-0.030
3319,0.115,-0.010
3320,0.195,0.000
3321,0.230,-0.005
3322,0.285,-0.020
3323,0.305,-0.005
3324,0.345,0.005
3325,0.390,0.030
3326,0.430,0.015
3327,0.445,0.025
3328,0.440,0.025
3329,0.455,0.025
3330,0.465,0.030
3331,0.475,0.015
3332,0.480,0.005
3333,0.450,-0.005
3334,0.430,-0.025
3335,0.390,-0.005
3336,0.370,0.015
3337,0.355,0.055
3338,0.340,0.065
3339,0.310,0.060
3340,0.275,0.045
3341,0.250,0.065
3342,0.225,0.075
3343,0.220,0.075
3344,0.185,0.045
3345,0.135,0.005
3346,0.085,0.000
3347,0.065,0.020
3348,0.040,0.040
3349,0.025,0.065
3350,-0.030,0.060
3351,-0.090,0.040
3352,-0.135,0.025
3353,-0.135,0.020
3354,-0.155,0.030
3355,-0.155,0.040
3356,-0.175,0.045
3357,-0.220,0.040
3358,-0.250,0.025
3359,-0.270,0.035
3360,-0.255,0.035
3361,-0.255,0.055
3362,-0.270,0.045
3363,-0.290,0.045
3364,-0.305,0.045
3365,-0.335,0.050
3366,-0.325,0.055
3367,-0.330,0.070
3368,-0.360,0.080
3369,-0.380,0.080
3370,-0.370,0.065
3371,-0.355,0.055
3372,-0.350,0.050
3373,-0.360,0.070
3374,-0.380,0.065
3375,-0.410,0.050
3376,-0.440,0.050
3377,-0.435,0.050
3378,-0.445,0.080
3379,-0.470,0.115
3380,-0.490,0.115
3381,-0.515,0.095
3382,-0.510,0.080
3383,-0.495,0.070
3384,-0.475,0.090
3385,-0.460,0.090
3386,-0.445,0.080
3387,-0.450,0.045
3388,-0.465,0.030
3389,-0.495,0.065
3390,-0.475,0.085
3391,-0.460,0.100
3392,-0.445,0.095
3393,-0.435,0.085
3394,-0.455,0.065
3395,-0.445,0.065
3396,-0.440,0.060
3397,-0.405,0.065
3398,-0.415,0.055
3399,-0.415,0.060
3400,-0.435,0.035
3401,-0.450,0.070
3402,-0.430,0.090
3403,-0.400,0.110
3404,-0.400,0.095
3405,-0.405,0.085
3406,-0.420,0.075
3407,-0.420,0.115
3408,-0.415,0.125
3409,-0.405,0.110
3410,-0.390,0.080
3411,-0.400,0.075
3412,-0.390,0.065
3413,-0.375,0.080
3414,-0.365,0.080
3415,-0.345,0.060
3416,-0.340,0.035
3417,-0.355,0.035
3418,-0.385,0.055
3419,-0.380,0.085
3420,-0.375,0.100
3421,-0.370,0.110
3422,-0.355,0.065
3423,-0.345,0.045
3424,-0.380,0.030
3425,-0.390,0.030
3426,-0.375,0.045
3427,-0.360,0.055
3428,-0.355,0.075
3429,-0.365,0.075
3430,-0.365,0.065
3431,-0.355,0.055
3432,-0.340,0.055
3433,-0.350,0.050
3434,-0.370,0.060
3435,-0.385,0.050
3436,-0.425,0.055
3437,-0.405,0.065
3438,-0.420,0.095
3439,-0.395,0.105
3440,-0.390,0.100
3441,-0.390,0.100
3442,-0.395,0.095
3443,-0.410,0.105
3444,-0.390,0.115
3445,-0.370,0.085
3446,-0.380,0.045
3447,-0.410,0.025
3448,-0.440,0.010
3449,-0.455,0.035
3450,-0.435,0.065
3451,-0.410,0.075
3452,-0.410,0.070
3453,-0.410,0.055
3454,-0.435,0.040
3455,-0.455,0.050
3456,-0.470,0.060
3457,-0.445,0.070
3458,-0.420,0.065
3459,-0.405,0.045
3460,-0.425,0.045
3461,-0.445,0.060
3462,-0.445,0.060
3463,-0.440,0.070
3464,-0.425,0.070
3465,-0.445,0.060
3466,-0.445,0.040
3467,-0.430,0.055
3468,-0.425,0.055
3469,-0.425,0.080
3470,-0.440,0.090
3471,-0.455,0.065
3472,-0.465,0.055
3473,-0.480,0.065
3474,-0.490,0.085
3475,-0.465,0.110
3476,-0.450,0.095
3477,-0.450,0.060
3478,-0.465,0.040
3479,-0.455,0.055
3480,-0.440,0.085
3481,-0.410,0.075
3482,-0.435,0.030
3483,-0.455,-0.005
3484,-0.455,-0.010
3485,-0.460,0.015
3486,-0.460,0.055
3487,-0.455,0.075
3488,-0.475,0.060
3489,-0.475,0.040
3490,-0.495,0.010
3491,-0.495,0.020
3492,-0.480,0.035
3493,-0.460,0.055
3494,-0.440,0.045
3495,-0.440,0.035
3496,-0.465,0.045
3497,-0.470,0.055
3498,-0.475,0.085
3499,-0.450,0.085
3500,-0.455,0.065
3501,-0.445,0.045
3502,-0.460,0.030
3503,-0.470,0.030
3504,-0.495,0.055
3505,-0.475,0.075
3506,-0.445,0.085
3507,-0.435,0.075
3508,-0.465,0.050
3509,-0.470,0.065
3510,-0.445,0.080
3511,-0.440,0.085
3512,-0.460,0.085
3513,-0.480,0.095
3514,-0.475,0.075
3515,-0.465,0.080
3516,-0.440,0.070
3517,-0.395,0.095
3518,-0.390,0.100
3519,-0.380,0.105
3520,-0.375,0.095
3521,-0.340,0.110
3522,-0.315,0.140
3523,-0.265,0.165
3524,-0.245,0.175
3525,-0.200,0.170
3526,-0.150,0.120
3527,-0.115,0.095
3528,-0.100,0.100
3529,-0.100,0.105
3530,-0.100,0.115
3531,-0.095,0.095
3532,-0.100,0.070
3533,-0.145,0.060
3534,-0.150,0.065
3535,-0.150,0.060
3536,-0.185,0.055
3537,-0.255,0.055
3538,-0.335,0.060
3539,-0.370,0.095
3540,-0.370,0.125
3541,-0.360,0.110
3542,-0.355,0.105
3543,-0.385,0.090
3544,-0.435,0.070
3545,-0.460,0.075
3546,-0.480,0.065
3547,-0.480,0.075
3548,-0.450,0.055
3549,-0.440,0.045
3550,-0.435,0.025
3551,-0.460,0.025
3552,-0.460,0.030
3553,-0.450,0.045
3554,-0.450,0.065
3555,-0.475,0.065
3556,-0.495,0.065
3557,-0.510,0.070
3558,-0.510,0.070
3559,-0.520,0.060
3560,-0.565,0.055
3561,-0.605,0.045
3562,-0.615,0.035
3563,-0.540,0.020
3564,-0.340,0.010
3565,-0.030,0.005
3566,0.440,-0.025
3567,0.950,-0.070
3568,1.350,-0.045
3569,1.630,0.025
3570,1.790,0.115
3571,1.870,0.180
3572,1.845,0.230
3573,1.750,0.285
3574,1.500,0.280
3575,1.050,0.250
3576,0.410,0.210
3577,-0.230,0.160
3578,-0.785,0.090
3579,-0.855,-0.030
3580,-0.710,-0.155
3581,-0.585,-0.220
3582,-0.590,-0.220
3583,-0.585,-0.180
3584,-0.570,-0.145
3585,-0.545,-0.100
3586,-0.530,-0.050
3587,-0.535,-0.010
3588,-0.545,0.025
3589,-0.550,0.050
3590,-0.565,0.070
3591,-0.590,0.055
3592,-0.590,0.065
3593,-0.595,0.070
3594,-0.590,0.075
3595,-0.580,0.085
3596,-0.570,0.085
3597,-0.575,0.075
3598,-0.570,0.105
3599,-0.570,0.110
3600,-0.555,0.105
3601,-0.535,0.100
3602,-0.510,0.080
3603,-0.520,0.050
3604,-0.535,0.055
3605,-0.560,0.060
3606,-0.570,0.095
3607,-0.570,0.105
3608,-0.560,0.095
3609,-0.555,0.080
3610,-0.545,0.070
3611,-0.555,0.070
3612,-0.520,0.065
3613,-0.505,0.065
3614,-0.505,0.050
3615,-0.520,0.065
3616,-0.535,0.055
3617,-0.520,0.070
3618,-0.510,0.080
3619,-0.490,0.090
3620,-0.485,0.090
3621,-0.495,0.090
3622,-0.480,0.100
3623,-0.470,0.110
3624,-0.445,0.100
3625,-0.420,0.085
3626,-0.415,0.070
3627,-0.435,0.060
3628,-0.445,0.050
3629,-0.450,0.060
3630,-0.425,0.090
3631,-0.405,0.105
3632,-0.410,0.085
3633,-0.405,0.060
3634,-0.410,0.035
3635,-0.380,0.040
3636,-0.375,0.050
3637,-0.350,0.080
3638,-0.345,0.075
3639,-0.350,0.075
3640,-0.365,0.065
3641,-0.375,0.085
3642,-0.330,0.100
3643,-0.290,0.100
3644,-0.260,0.070
3645,-0.250,0.050
3646,-0.250,0.045
3647,-0.235,0.045
3648,-0.195,0.065
3649,-0.180,0.080
3650,-0.145,0.075
3651,-0.130,0.065
3652,-0.110,0.055
3653,-0.100,0.060
3654,-0.070,0.080
3655,-0.040,0.075
3656,-0.005,0.090
3657,0.020,0.075
3658,0.030,0.070
3659,0.050,0.080
3660,0.075,0.115
3661,0.110,0.135
3662,0.160,0.125
3663,0.205,0.085
3664,0.230,0.035
3665,0.245,0.010
3666,0.275,0.015
3667,0.325,0.030
3668,0.335,0.015
3669,0.375,-0.020
3670,0.390,-0.030
3671,0.425,-0.035
3672,0.455,-0.005
3673,0.490,0.000
3674,0.490,-0.010
3675,0.445,-0.010
3676,0.365,-0.015
3677,0.335,0.020
3678,0.350,0.060
3679,0.370,0.060
3680,0.370,0.060
3681,0.340,0.050
3682,0.315,0.050
3683,0.300,0.070
3684,0.275,0.095
3685,0.250,0.115
3686,0.215,0.100
3687,0.170,0.100
3688,0.120,0.080
3689,0.085,0.095
3690,0.075,0.125
3691,0.055,0.160
3692,0.035,0.140
3693,-0.005,0.095
3694,-0.045,0.030
3695,-0.075,-0.005
3696,-0.085,0.015
3697,-0.105,0.065
3698,-0.145,0.105
3699,-0.175,0.140
3700,-0.195,0.135
3701,-0.205,0.110
3702,-0.210,0.050
3703,-0.200,0.015
3704,-0.215,-0.015
3705,-0.235,-0.005
3706,-0.275,-0.010
3707,-0.315,-0.010
3708,-0.340,0.025
3709,-0.350,0.055
3710,-0.380,0.060
3711,-0.400,0.050
3712,-0.420,0.050
3713,-0.430,0.055
3714,-0.420,0.075
3715,-0.405,0.100
3716,-0.435,0.095
3717,-0.465,0.090
3718,-0.500,0.095
3719,-0.495,0.110
3720,-0.465,0.140
3721,-0.475,0.160
3722,-0.465,0.140
3723,-0.470,0.100
3724,-0.495,0.075
3725,-0.505,0.075
3726,-0.505,0.115
3727,-0.500,0.150
3728,-0.505,0.145
3729,-0.510,0.125
3730,-0.520,0.105
3731,-0.505,0.085
3732,-0.500,0.075
3733,-0.495,0.080
3734,-0.495,0.100
3735,-0.490,0.110
3736,-0.520,0.110
3737,-0.515,0.105
3738,-0.530,0.080
3739,-0.510,0.080
3740,-0.510,0.085
3741,-0.510,0.090
3742,-0.520,0.080
3743,-0.510,0.105
3744,-0.475,0.130
3745,-0.465,0.160
3746,-0.475,0.120
3747,-0.470,0.070
3748,-0.470,0.030
3749,-0.495,0.015
3750,-0.510,0.050
3751,-0.510,0.080
3752,-0.510,0.090
3753,-0.530,0.085
3754,-0.515,0.060
3755,-0.500,0.080
3756,-0.495,0.110
3757,-0.500,0.135
3758,-0.495,0.150
3759,-0.485,0.140
3760,-0.480,0.130
3761,-0.495,0.095
3762,-0.485,0.075
3763,-0.480,0.080
3764,-0.460,0.080
3765,-0.465,0.080
3766,-0.440,0.090
3767,-0.410,0.075
3768,-0.390,0.050
3769,-0.410,0.050
3770,-0.470,0.040
3771,-0.555,0.055
3772,-0.615,0.085
3773,-0.635,0.110
3774,-0.605,0.130
3775,-0.580,0.140
3776,-0.570,0.140
3777,-0.555,0.125
3778,-0.565,0.115
3779,-0.560,0.120
3780,-0.525,0.135
3781,-0.465,0.150
3782,-0.415,0.135
3783,-0.415,0.105
3784,-0.505,0.070
3785,-0.600,0.050
3786,-0.615,0.090
3787,-0.540,0.115
3788,-0.455,0.105
3789,-0.380,0.050
3790,-0.410,-0.005
3791,-0.480,0.005
3792,-0.525,0.050
3793,-0.485,0.095
3794,-0.455,0.075
3795,-0.545,0.055
3796,-0.670,0.085
3797,-0.710,0.140
3798,-0.665,0.140
3799,-0.655,0.105
3800,-0.730,0.100
3801,-0.810,0.135
3802,-0.780,0.175
3803,-0.670,0.185
3804,-0.640,0.170
3805,-0.660,0.150
3806,-0.695,0.155
3807,-0.740,0.150
3808,-0.730,0.165
3809,-0.700,0.185
3810,-0.675,0.185
3811,-0.670,0.170
3812,-0.660,0.130
3813,-0.660,0.090
3814,-0.670,0.080
3815,-0.670,0.105
3816,-0.675,0.120
3817,-0.670,0.110
3818,-0.650,0.085
3819,-0.635,0.085
3820,-0.655,0.085
3821,-0.675,0.095
3822,-0.665,0.100
3823,-0.650,0.105
3824,-0.635,0.065
3825,-0.660,0.050
3826,-0.685,0.035
3827,-0.685,0.035
3828,-0.670,0.055
3829,-0.665,0.080
3830,-0.665,0.090
3831,-0.675,0.095
3832,-0.690,0.080
3833,-0.695,0.070
3834,-0.680,0.090
3835,-0.670,0.095
3836,-0.650,0.100
3837,-0.665,0.090
3838,-0.685,0.075
3839,-0.685,0.070
3840,-0.665,0.085
3841,-0.640,0.110
3842,-0.665,0.105
3843,-0.700,0.105
3844,-0.740,0.085
3845,-0.715,0.080
3846,-0.680,0.095
3847,-0.660,0.105
3848,-0.645,0.100
3849,-0.655,0.075
3850,-0.670,0.075
3851,-0.680,0.065
3852,-0.675,0.095
3853,-0.680,0.115
3854,-0.680,0.120
3855,-0.675,0.095
3856,-0.685,0.085
3857,-0.670,0.075
3858,-0.695,0.095
3859,-0.690,0.110
3860,-0.675,0.110
3861,-0.660,0.085
3862,-0.685,0.085
3863,-0.685,0.095
3864,-0.675,0.095
3865,-0.665,0.110
3866,-0.660,0.105
3867,-0.665,0.095
3868,-0.675,0.095
3869,-0.675,0.090
3870,-0.670,0.095
3871,-0.650,0.125
3872,-0.635,0.120
3873,-0.640,0.100
3874,-0.645,0.100
3875,-0.660,0.110
3876,-0.650,0.120
3877,-0.625,0.120
3878,-0.610,0.135
3879,-0.610,0.145
3880,-0.585,0.150
3881,-0.580,0.170
3882,-0.545,0.200
3883,-0.515,0.215
3884,-0.475,0.205
3885,-0.430,0.200
3886,-0.390,0.190
3887,-0.345,0.185
3888,-0.325,0.170
3889,-0.315,0.200
3890,-0.310,0.195
3891,-0.325,0.185
3892,-0.350,0.145
3893,-0.365,0.125
3894,-0.365,0.120
3895,-0.345,0.110
3896,-0.370,0.110
3897,-0.420,0.095
3898,-0.480,0.080
3899,-0.510,0.085
3900,-0.510,0.100
3901,-0.515,0.115
3902,-0.540,0.105
3903,-0.560,0.085
3904,-0.575,0.080
3905,-0.580,0.075
3906,-0.575,0.080
3907,-0.600,0.100
3908,-0.605,0.080
3909,-0.645,0.075
3910,-0.665,0.085
3911,-0.680,0.105
3912,-0.655,0.125
3913,-0.640,0.125
3914,-0.635,0.120
3915,-0.615,0.105
3916,-0.620,0.090
3917,-0.630,0.085
3918,-0.630,0.090
3919,-0.650,0.070
3920,-0.685,0.030
3921,-0.730,0.020
3922,-0.695,0.020
3923,-0.565,0.030
3924,-0.300,0.040
3925,0.085,0.045
3926,0.575,0.025
3927,1.055,0.035
3928,1.410,0.075
3929,1.670,0.125
3930,1.840,0.175
3931,1.930,0.195
3932,1.905,0.195
3933,1.750,0.205
3934,1.395,0.190
3935,0.830,0.160
3936,0.190,0.140
3937,-0.450,0.135
3938,-0.975,0.090
3939,-1.025,0.015
3940,-0.900,-0.075
3941,-0.790,-0.145
3942,-0.770,-0.190
3943,-0.750,-0.195
3944,-0.755,-0.190
3945,-0.745,-0.165
3946,-0.745,-0.105
3947,-0.715,-0.040
3948,-0.690,0.005
3949,-0.660,0.050
3950,-0.685,0.050
3951,-0.690,0.065
3952,-0.675,0.045
3953,-0.670,0.040
3954,-0.660,0.065
3955,-0.675,0.105
3956,-0.660,0.120
3957,-0.670,0.120
3958,-0.715,0.090
3959,-0.740,0.090
3960,-0.725,0.105
3961,-0.680,0.110
3962,-0.630,0.085
3963,-0.615,0.050
3964,-0.650,0.045
3965,-0.655,0.055
3966,-0.680,0.085
3967,-0.690,0.095
3968,-0.655,0.090
3969,-0.660,0.070
3970,-0.675,0.055
3971,-0.670,0.070
3972,-0.650,0.085
3973,-0.620,0.090
3974,-0.615,0.095
3975,-0.635,0.090
3976,-0.650,0.080
3977,-0.630,0.080
3978,-0.610,0.090
3979,-0.570,0.100
3980,-0.560,0.100
3981,-0.585,0.090
3982,-0.600,0.060
3983,-0.575,0.050
3984,-0.545,0.040
3985,-0.520,0.055
3986,-0.515,0.045
3987,-0.545,0.040
3988,-0.525,0.030
3989,-0.515,0.040
3990,-0.505,0.055
3991,-0.475,0.080
3992,-0.450,0.075
3993,-0.455,0.055
3994,-0.475,0.040
3995,-0.490,0.050
3996,-0.475,0.060
3997,-0.430,0.065
3998,-0.405,0.045
3999,-0.400,0.055
4000,-0.390,0.040
4001,-0.405,0.045
4002,-0.370,0.070
4003,-0.350,0.095
4004,-0.325,0.080
4005,-0.330,0.080
4006,-0.330,0.065
4007,-0.330,0.070
4008,-0.290,0.075
4009,-0.260,0.075
4010,-0.225,0.065
4011,-0.225,0.050
4012,-0.210,0.035
4013,-0.195,0.055
4014,-0.165,0.065
4015,-0.125,0.070
4016,-0.090,0.070
4017,-0.085,0.060
4018,-0.100,0.035
4019,-0.070,0.035
4020,-0.010,0.055
4021,0.050,0.075
4022,0.090,0.060
4023,0.085,0.050
4024,0.100,0.015
4025,0.120,0.025
4026,0.175,0.025
4027,0.200,0.030
4028,0.230,0.030
4029,0.255,0.020
4030,0.255,0.015
4031,0.265,0.005
4032,0.275,0.025
4033,0.315,0.045
4034,0.320,0.050
4035,0.325,0.060
4036,0.310,0.035
4037,0.310,0.035
4038,0.290,0.040
4039,0.320,0.050
4040,0.320,0.040
4041,0.310,0.050
4042,0.280,0.040
4043,0.230,0.060
4044,0.170,0.065
4045,0.135,0.085
4046,0.135,0.090
4047,0.155,0.070
4048,0.145,0.025
4049,0.115,0.005
4050,0.050,0.020
4051,-0.025,0.045
4052,-0.115,0.070
4053,-0.155,0.105
4054,-0.175,0.110
4055,-0.190,0.125
4056,-0.200,0.135
4057,-0.195,0.140
4058,-0.210,0.130
4059,-0.250,0.120
4060,-0.270,0.085
4061,-0.300,0.075
4062,-0.305,0.090
4063,-0.310,0.105
4064,-0.305,0.105
4065,-0.330,0.100
4066,-0.365,0.090
4067,-0.380,0.105
4068,-0.370,0.130
4069,-0.365,0.135
4070,-0.360,0.145
4071,-0.395,0.120
4072,-0.425,0.115
4073,-0.445,0.125
4074,-0.445,0.125
4075,-0.430,0.140
4076,-0.450,0.130
4077,-0.455,0.115
4078,-0.455,0.105
4079,-0.470,0.115
4080,-0.465,0.140
4081,-0.465,0.160
4082,-0.450,0.140
4083,-0.460,0.105
4084,-0.475,0.105
4085,-0.480,0.120
4086,-0.465,0.125
4087,-0.445,0.120
4088,-0.440,0.125
4089,-0.460,0.110
4090,-0.495,0.125
4091,-0.495,0.120
4092,-0.475,0.125
4093,-0.455,0.115
4094,-0.445,0.100
4095,-0.440,0.075
4096,-0.455,0.065
4097,-0.470,0.085
4098,-0.470,0.085
4099,-0.445,0.100
4100,-0.415,0.085
4101,-0.420,0.050
4102,-0.440,0.045
4103,-0.455,0.050
4104,-0.430,0.060
4105,-0.415,0.060
4106,-0.415,0.055
4107,-0.420,0.050
4108,-0.425,0.050
4109,-0.415,0.045
4110,-0.380,0.065
4111,-0.365,0.080
4112,-0.370,0.080
4113,-0.355,0.055
4114,-0.370,0.050
4115,-0.365,0.050
4116,-0.355,0.070
4117,-0.345,0.080
4118,-0.335,0.050
4119,-0.340,0.025
4120,-0.340,0.020
4121,-0.345,0.030
4122,-0.335,0.050
4123,-0.320,0.060
4124,-0.310,0.050
4125,-0.320,0.045
4126,-0.350,0.045
4127,-0.370,0.050
4128,-0.355,0.080
4129,-0.335,0.095
4130,-0.325,0.065
4131,-0.345,0.040
4132,-0.350,0.015
4133,-0.360,0.020
4134,-0.365,0.035
4135,-0.370,0.050
4136,-0.390,0.030
4137,-0.370,0.025
4138,-0.365,0.015
4139,-0.365,0.015
4140,-0.370,0.005
4141,-0.365,0.020
4142,-0.370,0.025
4143,-0.365,0.015
4144,-0.375,0.000
4145,-0.395,-0.025
4146,-0.390,-0.015
4147,-0.370,0.005
4148,-0.365,0.000
4149,-0.375,0.000
4150,-0.400,0.000
4151,-0.405,0.015
4152,-0.400,0.035
4153,-0.385,0.045
4154,-0.380,0.025
4155,-0.400,0.000
4156,-0.430,0.015
4157,-0.415,0.025
4158,-0.420,0.040
4159,-0.425,0.045
4160,-0.410,0.040
4161,-0.410,0.025
4162,-0.435,0.000
4163,-0.440,0.025
4164,-0.420,0.025
4165,-0.400,0.035
4166,-0.410,0.025
4167,-0.435,0.030
4168,-0.445,0.025
4169,-0.465,0.025
4170,-0.450,0.045
4171,-0.435,0.055
4172,-0.415,0.045
4173,-0.415,0.040
4174,-0.445,0.010
4175,-0.465,0.005
4176,-0.460,-0.010
4177,-0.425,-0.010
4178,-0.415,-0.015
4179,-0.425,-0.020
4180,-0.460,-0.020
4181,-0.455,-0.020
4182,-0.435,-0.005
4183,-0.425,0.025
4184,-0.415,0.015
4185,-0.420,0.005
4186,-0.450,-0.025
4187,-0.460,-0.020
4188,-0.445,-0.020
4189,-0.415,0.005
4190,-0.400,0.005
4191,-0.410,0.000
4192,-0.430,-0.005
4193,-0.450,0.000
4194,-0.470,0.010
4195,-0.470,0.030
4196,-0.450,0.010
4197,-0.420,-0.015
4198,-0.425,-0.015
4199,-0.445,-0.015
4200,-0.440,-0.005
4201,-0.415,0.010
4202,-0.405,0.000
4203,-0.430,0.005
4204,-0.435,-0.005
4205,-0.435,0.000
4206,-0.430,0.000
4207,-0.410,0.015
4208,-0.420,0.010
4209,-0.400,-0.005
4210,-0.400,-0.015
4211,-0.400,-0.005
4212,-0.415,-0.005
4213,-0.400,0.010
4214,-0.390,-0.005
4215,-0.405,-0.005
4216,-0.450,-0.025
4217,-0.440,-0.010
4218,-0.410,-0.015
4219,-0.385,-0.020
4220,-0.390,-0.025
4221,-0.410,-0.045
4222,-0.435,-0.045
4223,-0.435,-0.055
4224,-0.395,-0.035
4225,-0.365,-0.010
4226,-0.350,0.000
4227,-0.330,-0.005
4228,-0.345,0.000
4229,-0.335,0.005
4230,-0.320,0.040
4231,-0.270,0.075
4232,-0.235,0.095
4233,-0.220,0.100
4234,-0.230,0.090
4235,-0.205,0.105
4236,-0.170,0.110
4237,-0.120,0.125
4238,-0.060,0.100
4239,-0.035,0.055
4240,-0.055,0.030
4241,-0.060,0.000
4242,-0.050,0.010
4243,-0.045,0.030
4244,-0.050,0.025
4245,-0.050,0.005
4246,-0.095,-0.005
4247,-0.135,-0.015
4248,-0.175,-0.010
4249,-0.205,0.010
4250,-0.225,0.030
4251,-0.250,0.025
4252,-0.290,-0.020
4253,-0.305,-0.035
4254,-0.305,-0.030
4255,-0.310,-0.025
4256,-0.330,-0.010
4257,-0.335,-0.005
4258,-0.365,-0.005
4259,-0.375,-0.020
4260,-0.360,-0.035
4261,-0.350,-0.040
4262,-0.335,-0.035
4263,-0.345,-0.040
4264,-0.380,-0.045
4265,-0.400,-0.065
4266,-0.395,-0.055
4267,-0.380,-0.055
4268,-0.375,-0.050
4269,-0.405,-0.070
4270,-0.450,-0.075
4271,-0.490,-0.065
4272,-0.530,-0.065
4273,-0.480,-0.055
4274,-0.320,-0.060
4275,-0.055,-0.045
4276,0.345,-0.045
4277,0.835,-0.075
4278,1.300,-0.065
4279,1.670,-0.025
4280,1.895,0.030
4281,2.050,0.095
4282,2.095,0.140
4283,2.030,0.190
4284,1.855,0.215
4285,1.505,0.155
4286,0.950,0.065
4287,0.310,-0.035
4288,-0.330,-0.125
4289,-0.755,-0.185
4290,-0.675,-0.240
4291,-0.465,-0.280
4292,-0.365,-0.305
4293,-0.395,-0.305
4294,-0.440,-0.275
4295,-0.470,-0.225
4296,-0.450,-0.165
4297,-0.395,-0.125
4298,-0.400,-0.090
4299,-0.395,-0.070
4300,-0.415,-0.055
4301,-0.425,-0.055
4302,-0.435,-0.050
4303,-0.435,-0.020
4304,-0.410,-0.015
4305,-0.430,-0.005
4306,-0.430,-0.015
4307,-0.425,-0.020
4308,-0.400,0.005
4309,-0.395,0.025
4310,-0.390,0.030
4311,-0.430,0.030
4312,-0.485,0.025
4313,-0.450,0.015
4314,-0.400,0.020
4315,-0.355,0.015
4316,-0.370,0.000
4317,-0.405,-0.020
4318,-0.420,-0.070
4319,-0.415,-0.070
4320,-0.390,-0.070
4321,-0.370,-0.045
4322,-0.360,-0.040
4323,-0.350,-0.025
4324,-0.355,-0.010
4325,-0.385,-0.005
4326,-0.410,0.000
4327,-0.400,-0.035
4328,-0.365,-0.060
4329,-0.340,-0.080
4330,-0.340,-0.075
4331,-0.350,-0.070
4332,-0.335,-0.045
4333,-0.345,-0.040
4334,-0.345,-0.030
4335,-0.325,-0.030
4336,-0.310,-0.035
4337,-0.300,-0.030
4338,-0.295,-0.030
4339,-0.290,-0.025
4340,-0.260,-0.030
4341,-0.250,-0.030
4342,-0.255,-0.010
4343,-0.270,-0.010
4344,-0.260,-0.010
4345,-0.260,-0.005
4346,-0.235,-0.010
4347,-0.215,-0.020
4348,-0.205,-0.030
4349,-0.215,-0.005
4350,-0.215,-0.010
4351,-0.195,-0.010
4352,-0.180,-0.040
4353,-0.160,-0.035
4354,-0.150,-0.040
4355,-0.140,-0.045
4356,-0.110,-0.030
4357,-0.085,-0.015
4358,-0.090,-0.020
4359,-0.060,-0.030
4360,-0.045,-0.050
4361,-0.035,-0.035
4362,-0.015,-0.025
4363,0.045,-0.010
4364,0.065,-0.015
4365,0.090,-0.020
4366,0.110,-0.025
4367,0.120,-0.020
4368,0.165,-0.010
4369,0.215,-0.005
4370,0.250,-0.040
4371,0.285,-0.050
4372,0.310,-0.065
4373,0.320,-0.045
4374,0.350,-0.030
4375,0.410,-0.035
4376,0.450,-0.040
4377,0.470,-0.055
4378,0.485,-0.075
4379,0.500,-0.075
4380,0.540,-0.055
4381,0.570,-0.040
4382,0.590,-0.045
4383,0.595,-0.055
4384,0.570,-0.065
4385,0.550,-0.065
4386,0.570,-0.070
4387,0.580,-0.055
4388,0.585,-0.065
4389,0.585,-0.070
4390,0.565,-0.070
4391,0.535,-0.070
4392,0.535,-0.060
4393,0.520,-0.050
4394,0.515,-0.060
4395,0.460,-0.070
4396,0.415,-0.080
4397,0.365,-0.070
4398,0.335,-0.050
4399,0.310,-0.045
4400,0.275,-0.055
4401,0.255,-0.040
4402,0.205,-0.030
4403,0.175,-0.020
4404,0.150,-0.030
4405,0.135,-0.035
4406,0.120,-0.055
4407,0.070,-0.030
4408,0.070,-0.040
4409,0.045,-0.015
4410,0.040,-0.025
4411,0.015,-0.020
4412,-0.020,-0.030
4413,-0.030,-0.075
4414,-0.025,-0.100
4415,-0.060,-0.105
4416,-0.070,-0.090
4417,-0.070,-0.065
4418,-0.095,-0.055
4419,-0.115,-0.080
4420,-0.130,-0.120
4421,-0.135,-0.135
4422,-0.130,-0.115
4423,-0.115,-0.080
4424,-0.120,-0.075
4425,-0.135,-0.100
4426,-0.170,-0.090
4427,-0.180,-0.080
4428,-0.180,-0.055
4429,-0.170,-0.055
4430,-0.150,-0.060
4431,-0.155,-0.055
4432,-0.195,-0.045
4433,-0.220,-0.045
4434,-0.220,-0.055
4435,-0.195,-0.050
4436,-0.190,-0.060
4437,-0.210,-0.050
4438,-0.230,-0.070
4439,-0.230,-0.080
4440,-0.215,-0.085
4441,-0.200,-0.060
4442,-0.215,-0.065
4443,-0.225,-0.075
4444,-0.270,-0.095
4445,-0.280,-0.085
4446,-0.275,-0.065
4447,-0.240,-0.050
4448,-0.225,-0.065
4449,-0.240,-0.080
4450,-0.270,-0.105
4451,-0.260,-0.095
4452,-0.255,-0.080
4453,-0.245,-0.060
4454,-0.240,-0.075
4455,-0.255,-0.065
4456,-0.275,-0.080
4457,-0.280,-0.060
4458,-0.250,-0.050
4459,-0.245,-0.035
4460,-0.255,-0.035
4461,-0.265,-0.050
4462,-0.265,-0.070
4463,-0.265,-0.070
4464,-0.245,-0.055
4465,-0.225,-0.055
4466,-0.225,-0.045
4467,-0.235,-0.050
4468,-0.245,-0.065
4469,-0.245,-0.060
4470,-0.245,-0.055
4471,-0.220,-0.035
4472,-0.225,-0.040
4473,-0.215,-0.055
4474,-0.230,-0.080
4475,-0.215,-0.075
4476,-0.210,-0.060
4477,-0.195,-0.055
4478,-0.195,-0.040
4479,-0.205,-0.015
4480,-0.235,-0.015
4481,-0.245,-0.005
4482,-0.220,-0.030
4483,-0.200,-0.050
4484,-0.200,-0.085
4485,-0.210,-0.105
4486,-0.220,-0.100
4487,-0.230,-0.100
4488,-0.240,-0.085
4489,-0.205,-0.080
4490,-0.210,-0.100
4491,-0.210,-0.100
4492,-0.250,-0.110
4493,-0.255,-0.085
4494,-0.265,-0.095
4495,-0.250,-0.075
4496,-0.230,-0.080
4497,-0.215,-0.080
4498,-0.215,-0.070
4499,-0.235,-0.070
4500,-0.270,-0.070
4501,-0.270,-0.070
4502,-0.235,-0.085
4503,-0.205,-0.090
4504,-0.205,-0.095
4505,-0.220,-0.100
4506,-0.260,-0.080
4507,-0.285,-0.065
4508,-0.300,-0.075
4509,-0.285,-0.090
4510,-0.285,-0.095
4511,-0.300,-0.095
4512,-0.265,-0.065
4513,-0.250,-0.035
4514,-0.260,-0.040
4515,-0.265,-0.035
4516,-0.245,-0.055
4517,-0.250,-0.065
4518,-0.270,-0.065
4519,-0.260,-0.045
4520,-0.250,-0.035
4521,-0.240,-0.035
4522,-0.245,-0.045
4523,-0.270,-0.060
4524,-0.290,-0.050
4525,-0.315,-0.020
4526,-0.315,-0.015
4527,-0.315,-0.030
4528,-0.300,-0.055
4529,-0.295,-0.070
4530,-0.315,-0.080
4531,-0.340,-0.120
4532,-0.330,-0.135
4533,-0.305,-0.105
4534,-0.285,-0.090
4535,-0.285,-0.085
4536,-0.295,-0.070
4537,-0.295,-0.070
4538,-0.275,-0.075
4539,-0.260,-0.075
4540,-0.265,-0.070
4541,-0.275,-0.070
4542,-0.265,-0.070
4543,-0.260,-0.040
4544,-0.275,-0.035
4545,-0.285,-0.035
4546,-0.325,-0.050
4547,-0.320,-0.040
4548,-0.300,-0.040
4549,-0.290,-0.020
4550,-0.295,-0.025
4551,-0.310,-0.035
4552,-0.310,-0.045
4553,-0.300,-0.025
4554,-0.300,-0.010
4555,-0.270,-0.010
4556,-0.260,-0.030
4557,-0.270,-0.030
4558,-0.255,-0.025
4559,-0.245,-0.045
4560,-0.230,-0.045
4561,-0.210,-0.040
4562,-0.170,-0.040
4563,-0.155,0.000
4564,-0.125,0.035
4565,-0.125,0.060
4566,-0.075,0.085
4567,-0.025,0.105
4568,0.020,0.115
4569,0.045,0.110
4570,0.050,0.100
4571,0.025,0.075
4572,0.030,0.090
4573,0.070,0.095
4574,0.105,0.085
4575,0.080,0.045
4576,0.040,0.020
4577,0.020,0.005
4578,0.005,0.005
4579,-0.015,0.010
4580,-0.060,-0.005
4581,-0.115,-0.005
4582,-0.160,-0.005
4583,-0.195,0.015
4584,-0.200,0.025
4585,-0.210,0.040
4586,-0.230,0.040
4587,-0.260,0.055
4588,-0.300,0.035
4589,-0.325,-0.015
4590,-0.365,-0.060
4591,-0.320,-0.070
4592,-0.290,-0.065
4593,-0.285,-0.050
4594,-0.300,-0.080
4595,-0.335,-0.115
4596,-0.325,-0.105
4597,-0.335,-0.100
4598,-0.340,-0.115
4599,-0.335,-0.115
4600,-0.345,-0.130
4601,-0.380,-0.130
4602,-0.445,-0.110
4603,-0.445,-0.110
4604,-0.430,-0.105
4605,-0.335,-0.110
4606,-0.120,-0.080
4607,0.245,-0.060
4608,0.775,-0.070
4609,1.285,-0.055
4610,1.700,-0.005
4611,1.950,0.095
4612,2.055,0.170
4613,2.065,0.210
4614,1.970,0.275
4615,1.750,0.280
4616,1.275,0.205
4617,0.635,0.095
4618,-0.005,-0.015
4619,-0.645,-0.100
4620,-0.775,-0.150
4621,-0.600,-0.200
4622,-0.445,-0.255
4623,-0.415,-0.310
4624,-0.470,-0.310
4625,-0.485,-0.270
4626,-0.440,-0.185
4627,-0.435,-0.110
4628,-0.415,-0.060
4629,-0.410,-0.035
4630,-0.435,-0.035
4631,-0.455,-0.025
4632,-0.450,0.005
4633,-0.440,0.030
4634,-0.435,0.030
4635,-0.445,0.030
4636,-0.445,0.020
4637,-0.460,0.010
4638,-0.455,0.015
4639,-0.430,0.015
4640,-0.430,0.005
4641,-0.450,0.005
4642,-0.470,0.010
4643,-0.475,0.020
4644,-0.450,0.035
4645,-0.415,0.035
4646,-0.405,0.025
4647,-0.440,0.020
4648,-0.515,-0.015
4649,-0.540,-0.030
4650,-0.455,-0.030
4651,-0.420,-0.025
4652,-0.415,-0.045
4653,-0.425,-0.055
4654,-0.440,-0.065
4655,-0.440,-0.065
4656,-0.425,-0.050
4657,-0.415,-0.050
4658,-0.410,-0.060
4659,-0.405,-0.075
4660,-0.410,-0.085
4661,-0.420,-0.060
4662,-0.405,-0.035
4663,-0.390,-0.010
4664,-0.355,0.005
4665,-0.355,0.000
4666,-0.370,-0.010
4667,-0.380,-0.010
4668,-0.350,0.000
4669,-0.330,0.015
4670,-0.370,0.010
4671,-0.395,0.010
4672,-0.380,0.020
4673,-0.305,0.035
4674,-0.250,0.020
4675,-0.265,-0.025
4676,-0.290,-0.055
4677,-0.295,-0.075
4678,-0.320,-0.080
4679,-0.330,-0.060
4680,-0.235,-0.030
4681,-0.215,-0.005
4682,-0.275,-0.005
4683,-0.260,-0.015
4684,-0.230,-0.035
4685,-0.215,-0.015
4686,-0.215,-0.010
4687,-0.155,0.005
4688,-0.125,0.015
4689,-0.105,0.015
4690,-0.105,0.000
4691,-0.090,-0.010
4692,-0.060,0.010
4693,-0.025,0.035
4694,0.005,0.035
4695,0.040,0.025
4696,0.040,0.005
4697,0.080,0.015
4698,0.120,0.035
4699,0.140,0.045
4700,0.180,0.035
4701,0.210,0.020
4702,0.230,0.000
4703,0.265,-0.005
4704,0.290,0.015
4705,0.320,0.030
4706,0.360,0.020
4707,0.370,0.005
4708,0.390,0.000
4709,0.420,0.000
4710,0.445,0.020
4711,0.460,0.035
4712,0.485,0.040
4713,0.485,0.030
4714,0.450,0.020
4715,0.435,0.045
4716,0.450,0.075
4717,0.455,0.105
4718,0.435,0.095
4719,0.420,0.075
4720,0.385,0.050
4721,0.370,0.040
4722,0.335,0.045
4723,0.315,0.050
4724,0.305,0.050
4725,0.270,0.045
4726,0.220,0.055
4727,0.175,0.055
4728,0.130,0.045
4729,0.110,0.055
4730,0.095,0.050
4731,0.075,0.045
4732,0.040,0.035
4733,-0.025,0.025
4734,-0.070,0.040
4735,-0.060,0.065
4736,-0.055,0.055
4737,-0.080,0.070
4738,-0.150,0.045
4739,-0.170,0.040
4740,-0.150,0.030
4741,-0.160,0.035
4742,-0.160,0.035
4743,-0.185,0.020
4744,-0.220,0.030
4745,-0.240,0.025
4746,-0.205,0.045
4747,-0.200,0.035
4748,-0.255,0.005
4749,-0.300,-0.020
4750,-0.315,-0.035
4751,-0.290,-0.015
4752,-0.310,0.020
4753,-0.340,0.025
4754,-0.345,0.020
4755,-0.330,-0.005
4756,-0.330,-0.015
4757,-0.350,0.020
4758,-0.355,0.025
4759,-0.345,0.050
4760,-0.340,0.050
4761,-0.350,0.045
4762,-0.365,0.030
4763,-0.360,0.030
4764,-0.350,0.040
4765,-0.335,0.050
4766,-0.340,0.035
4767,-0.350,0.015
4768,-0.370,0.005
4769,-0.390,0.010
4770,-0.375,0.015
4771,-0.360,0.020
4772,-0.335,0.010
4773,-0.360,0.025
4774,-0.360,0.025
4775,-0.365,0.025
4776,-0.335,0.045
4777,-0.325,0.045
4778,-0.335,0.045
4779,-0.345,0.035
4780,-0.355,0.045
4781,-0.345,0.060
4782,-0.360,0.085
4783,-0.350,0.095
4784,-0.320,0.080
4785,-0.310,0.060
4786,-0.305,0.050
4787,-0.285,0.065
4788,-0.270,0.095
4789,-0.265,0.105
4790,-0.245,0.065
4791,-0.240,0.030
4792,-0.240,0.000
4793,-0.245,0.010
4794,-0.260,0.045
4795,-0.250,0.065
4796,-0.250,0.070
4797,-0.240,0.050
4798,-0.270,0.045
4799,-0.295,0.050
4800,-0.285,0.075
4801,-0.260,0.080
4802,-0.245,0.070
4803,-0.250,0.050
4804,-0.280,0.030
4805,-0.295,0.035
4806,-0.290,0.060
4807,-0.275,0.070
4808,-0.270,0.085
4809,-0.295,0.080
4810,-0.315,0.095
4811,-0.305,0.095
4812,-0.295,0.095
4813,-0.270,0.065
4814,-0.260,0.015
4815,-0.275,0.020
4816,-0.290,0.020
4817,-0.295,0.050
4818,-0.325,0.055
4819,-0.310,0.060
4820,-0.305,0.050
4821,-0.310,0.055
4822,-0.310,0.065
4823,-0.310,0.075
4824,-0.305,0.060
4825,-0.315,0.050
4826,-0.335,0.015
4827,-0.340,-0.010
4828,-0.360,0.000
4829,-0.340,0.020
4830,-0.320,0.030
4831,-0.320,0.020
4832,-0.320,-0.015
4833,-0.355,-0.020
4834,-0.360,-0.015
4835,-0.355,-0.005
4836,-0.335,0.005
4837,-0.335,0.025
4838,-0.340,0.050
4839,-0.340,0.035
4840,-0.350,0.015
4841,-0.365,0.010
4842,-0.360,0.020
4843,-0.345,0.035
4844,-0.345,0.015
4845,-0.350,0.010
4846,-0.380,-0.015
4847,-0.390,0.000
4848,-0.385,0.015
4849,-0.360,0.035
4850,-0.355,0.020
4851,-0.380,0.015
4852,-0.385,0.010
4853,-0.385,0.005
4854,-0.390,0.025
4855,-0.405,0.040
4856,-0.395,0.050
4857,-0.385,0.055
4858,-0.365,0.040
4859,-0.405,0.005
4860,-0.440,-0.005
4861,-0.415,0.000
4862,-0.365,0.015
4863,-0.350,0.035
4864,-0.400,0.030
4865,-0.425,0.035
4866,-0.420,0.040
4867,-0.395,0.060
4868,-0.390,0.090
4869,-0.400,0.105
4870,-0.410,0.105
4871,-0.405,0.095
4872,-0.405,0.075
4873,-0.405,0.100
4874,-0.410,0.095
4875,-0.410,0.060
4876,-0.405,0.005
4877,-0.415,-0.025
4878,-0.415,-0.010
4879,-0.415,0.035
4880,-0.415,0.035
4881,-0.415,0.045
4882,-0.430,0.040
4883,-0.450,0.040
4884,-0.445,0.015
4885,-0.415,0.000
4886,-0.405,-0.025
4887,-0.390,-0.020
4888,-0.420,-0.025
4889,-0.435,0.000
4890,-0.440,0.020
4891,-0.420,0.035
4892,-0.380,0.020
4893,-0.380,-0.040
4894,-0.400,-0.070
4895,-0.420,-0.055
4896,-0.410,-0.020
4897,-0.385,0.020
4898,-0.355,0.015
4899,-0.330,0.010
4900,-0.325,0.000
4901,-0.315,0.045
4902,-0.285,0.090
4903,-0.260,0.140
4904,-0.230,0.135
4905,-0.175,0.110
4906,-0.120,0.095
4907,-0.105,0.100
4908,-0.105,0.130
4909,-0.105,0.145
4910,-0.090,0.125
4911,-0.085,0.065
4912,-0.115,0.025
4913,-0.125,-0.005
4914,-0.155,-0.005
4915,-0.200,0.010
4916,-0.235,0.005
4917,-0.300,0.005
4918,-0.335,-0.010
4919,-0.360,0.005
4920,-0.385,0.030
4921,-0.390,0.080
4922,-0.410,0.100
4923,-0.450,0.095
4924,-0.485,0.045
4925,-0.510,0.025
4926,-0.495,0.000
4927,-0.485,0.025
4928,-0.470,0.005
4929,-0.470,0.000
4930,-0.485,0.000
4931,-0.505,0.025
4932,-0.500,0.050
4933,-0.490,0.045
4934,-0.490,0.035
4935,-0.510,0.010
4936,-0.570,0.005
4937,-0.630,-0.030
4938,-0.660,-0.070
4939,-0.660,-0.095
4940,-0.565,-0.090
4941,-0.315,-0.055
4942,0.085,-0.055
4943,0.655,-0.110
4944,1.220,-0.100
4945,1.660,0.020
4946,1.925,0.135
4947,2.045,0.210
4948,2.025,0.255
4949,1.920,0.290
4950,1.605,0.270
4951,1.065,0.165
4952,0.425,0.065
4953,-0.215,-0.035
4954,-0.855,-0.120
4955,-0.810,-0.200
4956,-0.630,-0.290
4957,-0.555,-0.340
4958,-0.580,-0.355
4959,-0.595,-0.320
4960,-0.600,-0.260
4961,-0.580,-0.160
4962,-0.570,-0.105
4963,-0.585,-0.075
4964,-0.595,-0.075
4965,-0.615,-0.080
4966,-0.625,-0.060
4967,-0.625,-0.055
4968,-0.630,-0.075
4969,-0.610,-0.090
4970,-0.605,-0.095
4971,-0.610,-0.080
4972,-0.630,-0.075
4973,-0.645,-0.075
4974,-0.630,-0.045
4975,-0.625,-0.005
4976,-0.610,0.000
4977,-0.615,0.010
4978,-0.630,0.000
4979,-0.650,0.005
4980,-0.640,0.035
4981,-0.620,0.045
4982,-0.595,0.015
4983,-0.615,-0.020
4984,-0.610,-0.035
4985,-0.595,-0.030
4986,-0.575,-0.030
4987,-0.560,-0.075
4988,-0.565,-0.120
4989,-0.575,-0.110
4990,-0.590,-0.090
4991,-0.590,-0.050
4992,-0.580,-0.045
4993,-0.570,-0.035
4994,-0.550,-0.035
4995,-0.555,-0.055
4996,-0.565,-0.065
4997,-0.575,-0.050
4998,-0.565,-0.015
4999,-0.535,0.005
5000,-0.510,0.000
5001,-0.510,-0.030
5002,-0.520,-0.055
5003,-0.510,-0.065
5004,-0.500,-0.030
5005,-0.495,0.015
5006,-0.475,0.035
5007,-0.455,0.040
5008,-0.460,0.015
5009,-0.435,-0.005
5010,-0.430,-0.050
5011,-0.415,-0.065
5012,-0.390,-0.055
5013,-0.375,-0.025
5014,-0.365,-0.005
5015,-0.350,0.045
5016,-0.340,0.075
5017,-0.310,0.090
5018,-0.290,0.060
5019,-0.265,0.025
5020,-0.255,-0.020
5021,-0.235,-0.045
5022,-0.190,-0.010
5023,-0.160,0.025
5024,-0.135,0.015
5025,-0.110,-0.030
5026,-0.115,-0.100
5027,-0.095,-0.130
5028,-0.040,-0.110
5029,0.005,-0.070
5030,0.025,-0.050
5031,0.050,-0.060
5032,0.070,-0.070
5033,0.095,-0.055
5034,0.135,-0.040
5035,0.175,-0.020
5036,0.210,-0.020
5037,0.220,-0.045
5038,0.225,-0.065
5039,0.215,-0.050
5040,0.250,-0.020
5041,0.270,0.020
5042,0.295,0.050
5043,0.285,0.035
5044,0.255,0.010
5045,0.220,0.000
5046,0.220,0.000
5047,0.255,-0.005
5048,0.250,-0.075
5049,0.215,-0.150
5050,0.165,-0.160
5051,0.130,-0.095
5052,0.120,-0.060
5053,0.105,-0.040
5054,0.080,-0.050
5055,0.055,-0.075
5056,-0.015,-0.105
5057,-0.055,-0.120
5058,-0.085,-0.100
5059,-0.090,-0.095
5060,-0.090,-0.090
5061,-0.135,-0.065
5062,-0.180,-0.035
5063,-0.220,-0.010
5064,-0.235,-0.005
5065,-0.235,-0.015
5066,-0.255,-0.055
5067,-0.295,-0.060
5068,-0.335,-0.075
5069,-0.355,-0.080
5070,-0.335,-0.050
5071,-0.355,-0.015
5072,-0.365,-0.005
5073,-0.390,-0.010
5074,-0.410,-0.010
5075,-0.435,-0.020
5076,-0.435,-0.020
5077,-0.410,-0.025
5078,-0.395,-0.005
5079,-0.425,0.005
5080,-0.455,0.005
5081,-0.460,0.020
5082,-0.465,0.005
5083,-0.450,-0.005
5084,-0.460,-0.050
5085,-0.455,-0.095
5086,-0.455,-0.110
5087,-0.470,-0.075
5088,-0.460,-0.030
5089,-0.460,-0.010
5090,-0.455,-0.005
5091,-0.470,-0.035
5092,-0.465,-0.045
5093,-0.470,-0.045
5094,-0.455,-0.015
5095,-0.440,0.020
5096,-0.450,0.005
5097,-0.460,-0.030
5098,-0.475,-0.030
5099,-0.470,-0.010
5100,-0.460,0.005
5101,-0.445,-0.030
5102,-0.435,-0.075
5103,-0.435,-0.110
5104,-0.445,-0.100
5105,-0.440,-0.080
5106,-0.445,-0.050
5107,-0.430,-0.025
5108,-0.410,-0.025
5109,-0.415,-0.035
5110,-0.420,-0.050
5111,-0.435,-0.045
5112,-0.420,-0.020
5113,-0.400,0.030
5114,-0.390,0.060
5115,-0.400,0.080
5116,-0.400,0.100
5117,-0.410,0.100
5118,-0.400,0.050
5119,-0.390,-0.020
5120,-0.380,-0.115
5121,-0.395,-0.135
5122,-0.400,-0.110
5123,-0.400,-0.080
5124,-0.370,-0.040
5125,-0.345,-0.020
5126,-0.350,-0.010
5127,-0.390,-0.020
5128,-0.390,-0.040
5129,-0.375,-0.050
5130,-0.370,-0.045
5131,-0.350,-0.030
5132,-0.355,-0.060
5133,-0.360,-0.095
5134,-0.380,-0.110
5135,-0.395,-0.090
5136,-0.385,-0.060
5137,-0.365,-0.035
5138,-0.365,-0.040
5139,-0.375,-0.065
5140,-0.380,-0.060
5141,-0.385,-0.055
5142,-0.380,-0.055
5143,-0.375,-0.025
5144,-0.370,-0.025
5145,-0.375,-0.020
5146,-0.380,-0.040
5147,-0.405,-0.030
5148,-0.390,-0.020
5149,-0.380,0.000
5150,-0.350,0.005
5151,-0.375,-0.040
5152,-0.390,-0.070
5153,-0.395,-0.080
5154,-0.390,-0.045
5155,-0.385,-0.030
5156,-0.375,-0.015
5157,-0.380,-0.030
5158,-0.400,-0.075
5159,-0.405,-0.095
5160,-0.395,-0.090
5161,-0.375,-0.075
5162,-0.355,-0.070
5163,-0.360,-0.065
5164,-0.380,-0.060
5165,-0.405,-0.045
5166,-0.380,-0.015
5167,-0.360,0.005
5168,-0.355,0.015
5169,-0.350,0.015
5170,-0.365,0.005
5171,-0.395,0.000
5172,-0.390,-0.020
5173,-0.375,0.000
5174,-0.350,0.000
5175,-0.350,-0.005
5176,-0.355,0.010
5177,-0.360,0.020
5178,-0.365,0.045
5179,-0.375,0.035
5180,-0.365,-0.035
5181,-0.345,-0.115
5182,-0.345,-0.170
5183,-0.360,-0.130
5184,-0.355,-0.110
5185,-0.345,-0.105
5186,-0.335,-0.115
5187,-0.330,-0.115
5188,-0.340,-0.110
5189,-0.375,-0.085
5190,-0.360,-0.070
5191,-0.335,-0.045
5192,-0.320,-0.035
5193,-0.330,-0.040
5194,-0.350,-0.040
5195,-0.335,-0.040
5196,-0.340,-0.025
5197,-0.315,-0.025
5198,-0.285,-0.025
5199,-0.275,-0.030
5200,-0.295,-0.005
5201,-0.295,0.020
5202,-0.275,0.030
5203,-0.230,0.015
5204,-0.215,0.000
5205,-0.210,0.030
5206,-0.190,0.060
5207,-0.185,0.065
5208,-0.175,0.060
5209,-0.155,0.040
5210,-0.120,0.045
5211,-0.050,0.065
5212,0.000,0.080
5213,0.015,0.115
5214,0.025,0.070
5215,0.035,0.050
5216,0.050,0.010
5217,0.050,0.015
5218,0.025,0.000
5219,0.005,-0.015
5220,0.000,-0.025
5221,-0.030,-0.020
5222,-0.075,-0.020
5223,-0.120,-0.025
5224,-0.155,-0.025
5225,-0.170,-0.015
5226,-0.175,-0.010
5227,-0.195,0.020
5228,-0.230,0.025
5229,-0.270,0.025
5230,-0.305,-0.010
5231,-0.310,-0.015
5232,-0.290,-0.015
5233,-0.285,0.000
5234,-0.295,-0.010
5235,-0.310,-0.030
5236,-0.325,-0.025
5237,-0.330,-0.035
5238,-0.320,-0.045
5239,-0.320,-0.050
5240,-0.290,-0.050
5241,-0.290,-0.065
5242,-0.325,-0.065
5243,-0.350,-0.060
5244,-0.370,-0.050
5245,-0.375,-0.050
5246,-0.350,-0.070
5247,-0.285,-0.065
5248,-0.130,-0.050
5249,0.195,-0.020
5250,0.690,-0.005
5251,1.215,0.005
5252,1.665,0.045
5253,1.935,0.100
5254,2.070,0.130
5255,2.100,0.165
5256,2.050,0.210
5257,1.895,0.230
5258,1.530,0.195
5259,0.940,0.100
5260,0.300,0.000
5261,-0.340,-0.060
5262,-0.750,-0.090
5263,-0.605,-0.135
5264,-0.395,-0.180
5265,-0.355,-0.220
5266,-0.390,-0.225
5267,-0.440,-0.200
5268,-0.410,-0.155
5269,-0.385,-0.090
5270,-0.360,-0.055
5271,-0.365,-0.040
5272,-0.400,-0.025
5273,-0.400,-0.030
5274,-0.390,-0.015
5275,-0.385,0.005
5276,-0.365,0.005
5277,-0.370,-0.005
5278,-0.400,0.005
5279,-0.425,0.030
5280,-0.395,0.060
5281,-0.375,0.050
5282,-0.370,0.060
5283,-0.370,0.040
5284,-0.375,0.065
5285,-0.385,0.110
5286,-0.365,0.135
5287,-0.355,0.110
5288,-0.355,0.040
5289,-0.370,-0.005
5290,-0.365,-0.025
5291,-0.355,-0.005
5292,-0.355,0.020
5293,-0.350,0.035
5294,-0.330,0.035
5295,-0.320,0.035
5296,-0.345,0.025
5297,-0.350,0.025
5298,-0.345,0.055
5299,-0.335,0.060
5300,-0.310,0.050
5301,-0.305,0.035
5302,-0.305,0.020
5303,-0.315,0.035
5304,-0.305,0.055
5305,-0.285,0.080
5306,-0.260,0.095
5307,-0.270,0.095
5308,-0.280,0.070
5309,-0.275,0.065
5310,-0.265,0.065
5311,-0.245,0.050
5312,-0.235,0.035
5313,-0.230,0.005
5314,-0.230,-0.005
5315,-0.230,-0.005
5316,-0.210,-0.005
5317,-0.185,0.015
5318,-0.165,0.025
5319,-0.165,0.010
5320,-0.165,-0.010
5321,-0.165,-0.015
5322,-0.140,0.005
5323,-0.115,0.015
5324,-0.080,0.015
5325,-0.060,0.010
5326,-0.030,-0.010
5327,-0.010,0.005
5328,0.035,0.015
5329,0.055,0.045
5330,0.035,0.045
5331,0.015,0.025
5332,0.035,0.010
5333,0.095,0.015
5334,0.145,0.010
5335,0.185,0.030
5336,0.210,0.030
5337,0.240,0.035
5338,0.260,0.040
5339,0.285,0.030
5340,0.325,0.040
5341,0.370,0.050
5342,0.410,0.045
5343,0.435,0.035
5344,0.435,0.030
5345,0.450,0.050
5346,0.475,0.070
5347,0.485,0.090
5348,0.510,0.085
5349,0.500,0.095
5350,0.500,0.100
5351,0.500,0.075
5352,0.535,0.045
5353,0.520,0.010
5354,0.490,-0.005
5355,0.435,0.005
5356,0.420,0.030
5357,0.390,0.030
5358,0.390,0.040
5359,0.380,0.055
5360,0.350,0.055
5361,0.315,0.050
5362,0.275,0.045
5363,0.240,0.055
5364,0.210,0.055
5365,0.195,0.075
5366,0.185,0.080
5367,0.120,0.070
5368,0.070,0.075
5369,0.025,0.085
5370,0.015,0.135
5371,0.015,0.175
5372,0.005,0.165
5373,-0.040,0.095
5374,-0.080,0.015
5375,-0.100,-0.025
5376,-0.105,-0.015
5377,-0.110,0.030
5378,-0.105,0.065
5379,-0.125,0.050
5380,-0.170,0.040
5381,-0.200,0.035
5382,-0.200,0.060
5383,-0.205,0.105
5384,-0.190,0.075
5385,-0.220,0.015
5386,-0.265,-0.035
5387,-0.295,-0.040
5388,-0.280,-0.020
5389,-0.270,0.015
5390,-0.255,0.020
5391,-0.260,0.020
5392,-0.290,0.015
5393,-0.310,0.015
5394,-0.300,0.035
5395,-0.275,0.035
5396,-0.270,0.035
5397,-0.290,0.035
5398,-0.295,0.035
5399,-0.315,0.050
5400,-0.315,0.060
5401,-0.285,0.070
5402,-0.275,0.045
5403,-0.285,0.040
5404,-0.285,0.025
5405,-0.290,0.035
5406,-0.285,0.040
5407,-0.270,0.055
5408,-0.260,0.050
5409,-0.265,0.035
5410,-0.275,0.025
5411,-0.270,0.035
5412,-0.260,0.065
5413,-0.245,0.055
5414,-0.235,0.070
5415,-0.220,0.050
5416,-0.235,0.025
5417,-0.220,0.035
5418,-0.215,0.055
5419,-0.195,0.060
5420,-0.195,0.050
5421,-0.205,0.045
5422,-0.200,0.025
5423,-0.205,0.030
5424,-0.195,0.035
5425,-0.190,0.055
5426,-0.200,0.035
5427,-0.210,0.035
5428,-0.205,0.015
5429,-0.225,0.020
5430,-0.225,0.020
5431,-0.210,0.030
5432,-0.195,0.015
5433,-0.195,0.015
5434,-0.215,0.015
5435,-0.230,0.020
5436,-0.235,0.020
5437,-0.220,0.035
5438,-0.205,0.045
5439,-0.215,0.030
5440,-0.225,0.015
5441,-0.255,0.020
5442,-0.235,0.020
5443,-0.230,0.035
5444,-0.240,0.035
5445,-0.240,0.035
5446,-0.245,0.045
5447,-0.260,0.055
5448,-0.265,0.060
5449,-0.260,0.055
5450,-0.250,0.035
5451,-0.260,0.025
5452,-0.285,-0.015
5453,-0.295,-0.020
5454,-0.295,-0.010
5455,-0.275,0.005
5456,-0.265,0.030
5457,-0.270,0.025
5458,-0.285,0.015
5459,-0.290,0.005
5460,-0.295,-0.020
5461,-0.285,-0.040
5462,-0.265,-0.045
5463,-0.270,-0.040
5464,-0.285,-0.035
5465,-0.285,-0.005
5466,-0.270,0.000
5467,-0.270,0.010
5468,-0.290,0.025
5469,-0.330,0.020
5470,-0.335,0.005
5471,-0.320,-0.015
5472,-0.295,-0.025
5473,-0.305,-0.030
5474,-0.290,-0.035
5475,-0.295,-0.035
5476,-0.305,-0.045
5477,-0.325,-0.055
5478,-0.320,-0.040
5479,-0.320,-0.030
5480,-0.305,-0.015
5481,-0.305,-0.030
5482,-0.330,-0.030
5483,-0.335,-0.030
5484,-0.345,-0.005
5485,-0.325,0.010
5486,-0.315,0.015
5487,-0.310,0.000
5488,-0.325,-0.020
5489,-0.355,-0.015
5490,-0.335,0.000
5491,-0.320,0.010
5492,-0.310,0.010
5493,-0.320,0.000
5494,-0.335,0.000
5495,-0.340,0.015
5496,-0.335,0.035
5497,-0.330,0.035
5498,-0.310,0.035
5499,-0.325,0.005
5500,-0.345,0.010
5501,-0.345,0.020
5502,-0.335,0.035
5503,-0.310,0.045
5504,-0.290,0.050
5505,-0.275,0.045
5506,-0.270,0.045
5507,-0.290,0.070
5508,-0.240,0.120
5509,-0.200,0.160
5510,-0.195,0.185
5511,-0.175,0.190
5512,-0.165,0.195
5513,-0.140,0.205
5514,-0.085,0.215
5515,-0.055,0.215
5516,-0.030,0.205
5517,-0.015,0.170
5518,-0.010,0.135
5519,-0.030,0.145
5520,-0.025,0.145
5521,-0.020,0.125
5522,0.005,0.090
5523,-0.005,0.055
5524,-0.065,0.025
5525,-0.145,0.015
5526,-0.195,0.015
5527,-0.220,0.050
5528,-0.220,0.040
5529,-0.225,0.055
5530,-0.275,0.045
5531,-0.330,0.040
5532,-0.340,0.035
5533,-0.350,0.040
5534,-0.340,0.040
5535,-0.345,0.030
5536,-0.350,0.020
5537,-0.380,0.030
5538,-0.390,0.040
5539,-0.390,0.040
5540,-0.390,0.035
5541,-0.375,0.030
5542,-0.380,0.035
5543,-0.395,0.035
5544,-0.395,0.050
5545,-0.405,0.040
5546,-0.420,0.045
5547,-0.480,0.035
5548,-0.555,0.020
5549,-0.590,0.020
5550,-0.530,0.040
5551,-0.380,0.060
5552,-0.070,0.065
5553,0.395,0.045
5554,0.955,0.025
5555,1.475,0.065
5556,1.870,0.125
5557,2.090,0.225
5558,2.155,0.285
5559,2.120,0.280
5560,1.970,0.185
5561,1.660,0.050
5562,1.130,-0.045
5563,0.490,-0.115
5564,-0.150,-0.185
5565,-0.720,-0.255
5566,-0.685,-0.305
5567,-0.490,-0.325
5568,-0.405,-0.310
5569,-0.415,-0.270
5570,-0.430,-0.215
5571,-0.425,-0.175
5572,-0.440,-0.145
5573,-0.460,-0.125
5574,-0.465,-0.100
5575,-0.480,-0.075
5576,-0.455,-0.060
5577,-0.460,-0.065
5578,-0.480,-0.075
5579,-0.490,-0.060
5580,-0.485,-0.055
5581,-0.495,-0.030
5582,-0.480,-0.040
5583,-0.475,-0.050
5584,-0.500,-0.070
5585,-0.510,-0.050
5586,-0.520,-0.040
5587,-0.510,-0.015
5588,-0.490,0.000
5589,-0.485,-0.005
5590,-0.490,-0.025
5591,-0.490,-0.020
5592,-0.495,0.000
5593,-0.475,0.010
5594,-0.465,0.010
5595,-0.490,-0.010
5596,-0.500,-0.035
5597,-0.505,-0.015
5598,-0.500,0.010
5599,-0.460,0.035
5600,-0.435,0.040
5601,-0.435,0.040
5602,-0.445,0.035
5603,-0.470,0.060
5604,-0.470,0.085
5605,-0.440,0.075
5606,-0.400,0.045
5607,-0.400,0.015
5608,-0.430,-0.005
5609,-0.440,-0.005
5610,-0.425,0.015
5611,-0.400,0.025
5612,-0.375,0.025
5613,-0.385,0.040
5614,-0.390,0.040
5615,-0.380,0.040
5616,-0.365,0.040
5617,-0.345,0.050
5618,-0.330,0.040
5619,-0.320,0.045
5620,-0.335,0.010
5621,-0.315,0.020
5622,-0.315,0.050
5623,-0.310,0.085
5624,-0.275,0.105
5625,-0.260,0.070
5626,-0.275,0.050
5627,-0.265,0.080
5628,-0.240,0.130
5629,-0.215,0.140
5630,-0.200,0.030
5631,-0.155,-0.070
5632,-0.155,-0.115
5633,-0.150,-0.095
5634,-0.140,-0.065
5635,-0.100,-0.015
5636,-0.085,-0.010
5637,-0.050,-0.030
5638,-0.035,-0.045
5639,-0.015,-0.050
5640,0.015,-0.050
5641,0.050,-0.035
5642,0.075,-0.030
5643,0.105,-0.035
5644,0.110,-0.050
5645,0.135,-0.050
5646,0.160,-0.035
5647,0.185,-0.030
5648,0.215,-0.035
5649,0.230,-0.050
5650,0.230,-0.050
5651,0.245,-0.035
5652,0.260,-0.025
5653,0.275,-0.010
5654,0.300,0.020
5655,0.295,0.035
5656,0.280,0.035
5657,0.285,0.035
5658,0.280,0.035
5659,0.290,0.025
5660,0.280,-0.005
5661,0.250,-0.040
5662,0.230,-0.065
5663,0.200,-0.065
5664,0.200,-0.055
5665,0.185,-0.060
5666,0.175,-0.075
5667,0.135,-0.075
5668,0.105,-0.060
5669,0.060,-0.050
5670,0.045,-0.035
5671,0.020,-0.010
5672,0.000,-0.010
5673,-0.030,-0.025
5674,-0.070,-0.045
5675,-0.100,-0.040
5676,-0.125,-0.010
5677,-0.150,0.020
5678,-0.145,0.030
5679,-0.165,0.020
5680,-0.200,0.000
5681,-0.235,0.005
5682,-0.230,0.010
5683,-0.220,0.025
5684,-0.210,0.020
5685,-0.230,0.020
5686,-0.250,0.015
5687,-0.280,0.020
5688,-0.290,0.035
5689,-0.295,0.030
5690,-0.280,0.030
5691,-0.270,0.025
5692,-0.295,0.000
5693,-0.320,0.030
5694,-0.325,0.055
5695,-0.310,0.070
5696,-0.295,0.045
5697,-0.290,0.025
5698,-0.315,0.005
5699,-0.335,-0.010
5700,-0.310,-0.010
5701,-0.310,-0.010
5702,-0.300,0.000
5703,-0.285,-0.005
5704,-0.305,-0.025
5705,-0.295,-0.020
5706,-0.315,0.010
5707,-0.305,0.040
5708,-0.280,0.030
5709,-0.280,-0.005
5710,-0.280,-0.055
5711,-0.280,-0.055
5712,-0.285,-0.040
5713,-0.280,-0.015
5714,-0.260,-0.020
5715,-0.265,-0.015
5716,-0.280,-0.030
5717,-0.280,-0.020
5718,-0.265,0.010
5719,-0.255,0.010
5720,-0.230,0.005
5721,-0.245,0.000
5722,-0.250,0.010
5723,-0.265,0.030
5724,-0.260,0.065
5725,-0.245,0.080
5726,-0.230,0.065
5727,-0.240,0.050
5728,-0.245,0.020
5729,-0.235,0.035
5730,-0.240,0.045
5731,-0.240,0.060
5732,-0.220,0.060
5733,-0.235,0.025
5734,-0.245,-0.010
5735,-0.265,-0.045
5736,-0.250,-0.055
5737,-0.230,-0.020
5738,-0.225,0.000
5739,-0.210,-0.020
5740,-0.225,-0.035
5741,-0.240,-0.040
5742,-0.250,-0.030
5743,-0.240,0.010
5744,-0.235,0.010
5745,-0.230,0.010
5746,-0.225,0.015
5747,-0.225,0.020
5748,-0.225,0.025
5749,-0.220,0.040
5750,-0.235,0.000
5751,-0.255,-0.030
5752,-0.285,-0.040
5753,-0.285,-0.020
5754,-0.270,0.030
5755,-0.270,0.065
5756,-0.290,0.030
5757,-0.290,-0.040
5758,-0.295,-0.080
5759,-0.320,-0.075
5760,-0.325,-0.015
5761,-0.320,0.010
5762,-0.285,-0.045
5763,-0.290,-0.120
5764,-0.320,-0.170
5765,-0.320,-0.165
5766,-0.305,-0.125
5767,-0.305,-0.080
5768,-0.300,-0.090
5769,-0.295,-0.090
5770,-0.315,-0.095
5771,-0.320,-0.075
5772,-0.315,-0.040
5773,-0.305,-0.020
5774,-0.280,-0.015
5775,-0.290,-0.010
5776,-0.275,-0.035
5777,-0.285,-0.030
5778,-0.280,-0.005
5779,-0.275,0.005
5780,-0.280,0.000
5781,-0.285,-0.035
5782,-0.300,-0.050
5783,-0.320,-0.045
5784,-0.320,-0.015
5785,-0.310,0.050
5786,-0.295,0.095
5787,-0.295,0.075
5788,-0.270,-0.010
5789,-0.285,-0.095
5790,-0.320,-0.145
5791,-0.320,-0.145
5792,-0.315,-0.130
5793,-0.295,-0.115
5794,-0.290,-0.105
5795,-0.305,-0.105
5796,-0.305,-0.100
5797,-0.300,-0.095
5798,-0.285,-0.095
5799,-0.275,-0.085
5800,-0.280,-0.070
5801,-0.270,-0.070
5802,-0.290,-0.060
5803,-0.290,-0.030
5804,-0.280,-0.015
5805,-0.280,0.015
5806,-0.285,0.030
5807,-0.305,0.065
5808,-0.315,0.075
5809,-0.280,0.060
5810,-0.220,0.010
5811,-0.205,-0.010
5812,-0.205,-0.015
5813,-0.210,0.050
5814,-0.185,0.125
5815,-0.160,0.200
5816,-0.130,0.200
5817,-0.110,0.145
5818,-0.090,0.045
5819,-0.020,0.005
5820,0.025,0.020
5821,0.045,0.055
5822,0.050,0.080
5823,0.035,0.075
5824,0.035,0.060
5825,0.015,0.045
5826,0.030,0.015
5827,0.030,0.000
5828,0.035,-0.045
5829,-0.020,-0.080
5830,-0.085,-0.110
5831,-0.125,-0.095
5832,-0.165,-0.065
5833,-0.165,-0.030
5834,-0.180,-0.020
5835,-0.230,0.005
5836,-0.265,0.005
5837,-0.315,-0.005
5838,-0.340,-0.005
5839,-0.315,-0.035
5840,-0.300,-0.055
5841,-0.320,-0.055
5842,-0.345,-0.070
5843,-0.345,-0.085
5844,-0.355,-0.080
5845,-0.335,-0.045
5846,-0.300,-0.030
5847,-0.300,-0.020
5848,-0.320,-0.040
5849,-0.340,-0.065
5850,-0.370,-0.085
5851,-0.390,-0.070
5852,-0.445,-0.070
5853,-0.500,-0.085
5854,-0.510,-0.120
5855,-0.425,-0.120
5856,-0.205,-0.050
5857,0.170,0.050
5858,0.685,0.075
5859,1.220,0.055
5860,1.645,0.015
5861,1.920,0.000
5862,2.060,0.035
5863,2.115,0.100
5864,2.070,0.150
5865,1.910,0.185
5866,1.590,0.165
5867,1.035,0.115
5868,0.395,0.050
5869,-0.245,-0.005
5870,-0.680,-0.090
5871,-0.630,-0.185
5872,-0.480,-0.260
5873,-0.405,-0.310
5874,-0.415,-0.300
5875,-0.425,-0.250
5876,-0.400,-0.175
5877,-0.400,-0.105
5878,-0.400,-0.080
5879,-0.430,-0.070
5880,-0.445,-0.050
5881,-0.445,-0.055
5882,-0.425,-0.060
5883,-0.430,-0.065
5884,-0.440,-0.070
5885,-0.450,-0.060
5886,-0.445,-0.025
5887,-0.445,0.025
5888,-0.440,0.050
5889,-0.445,0.015
5890,-0.460,-0.065
5891,-0.460,-0.085
5892,-0.455,-0.090
5893,-0.445,-0.045
5894,-0.430,-0.030
5895,-0.425,-0.035
5896,-0.430,-0.040
5897,-0.450,-0.035
5898,-0.450,-0.010
5899,-0.440,0.000
5900,-0.430,0.020
5901,-0.425,0.010
5902,-0.425,0.000
5903,-0.455,-0.015
5904,-0.440,-0.010
5905,-0.445,0.015
5906,-0.420,0.025
5907,-0.415,0.020
5908,-0.415,0.005
5909,-0.420,-0.015
5910,-0.415,-0.015
5911,-0.405,-0.010
5912,-0.390,-0.020
5913,-0.390,-0.030
5914,-0.395,-0.040
5915,-0.390,-0.035
5916,-0.385,-0.030
5917,-0.370,-0.030
5918,-0.360,-0.015
5919,-0.355,-0.025
5920,-0.355,-0.040
5921,-0.375,-0.045
5922,-0.360,-0.035
5923,-0.365,-0.020
5924,-0.340,-0.010
5925,-0.315,-0.005
5926,-0.320,-0.015
5927,-0.315,-0.010
5928,-0.295,0.025
5929,-0.285,0.045
5930,-0.255,0.025
5931,-0.255,-0.010
5932,-0.270,-0.045
5933,-0.275,-0.065
5934,-0.255,-0.080
5935,-0.240,-0.070
5936,-0.210,-0.035
5937,-0.200,-0.035
5938,-0.185,-0.030
5939,-0.180,-0.020
5940,-0.170,-0.005
5941,-0.135,0.020
5942,-0.105,0.020
5943,-0.105,0.015
5944,-0.095,-0.035
5945,-0.110,-0.050
5946,-0.075,-0.065
5947,-0.020,-0.040
5948,-0.010,-0.045
5949,0.015,-0.050
5950,0.015,-0.060
5951,0.020,-0.050
5952,0.045,-0.030
5953,0.085,-0.020
5954,0.130,-0.010
5955,0.135,-0.025
5956,0.145,-0.035
5957,0.160,-0.040
5958,0.180,-0.025
5959,0.205,-0.010
5960,0.240,-0.025
5961,0.240,-0.040
5962,0.250,-0.040
5963,0.240,-0.035
5964,0.255,-0.005
5965,0.275,0.000
5966,0.310,0.005
5967,0.310,0.010
5968,0.290,0.015
5969,0.275,0.055
5970,0.280,0.090
5971,0.290,0.105
5972,0.295,0.080
5973,0.260,0.040
5974,0.245,0.000
5975,0.190,-0.035
5976,0.155,-0.045
5977,0.115,-0.040
5978,0.115,-0.010
5979,0.120,0.025
5980,0.120,0.075
5981,0.075,0.080
5982,0.060,0.060
5983,0.060,0.045
5984,0.065,0.040
5985,0.010,0.050
5986,-0.055,0.030
5987,-0.125,0.010
5988,-0.140,-0.025
5989,-0.110,-0.045
5990,-0.075,-0.040
5991,-0.100,-0.025
5992,-0.150,-0.050
5993,-0.180,-0.060
5994,-0.180,-0.040
5995,-0.160,0.005
5996,-0.160,0.035
5997,-0.180,0.030
5998,-0.200,0.020
5999,-0.245,0.010
6000,-0.250,0.025
6001,-0.240,0.030
6002,-0.215,-0.035
6003,-0.225,-0.070
6004,-0.245,-0.090
6005,-0.270,-0.070
6006,-0.285,-0.020
6007,-0.285,0.015
6008,-0.265,0.035
6009,-0.270,0.050
6010,-0.285,0.065
6011,-0.280,0.095
6012,-0.275,0.130
6013,-0.280,0.150
6014,-0.295,0.130
6015,-0.290,0.150
6016,-0.255,0.115
6017,-0.260,0.045
6018,-0.245,-0.040
6019,-0.250,-0.075
6020,-0.265,-0.100
6021,-0.270,-0.070
6022,-0.275,-0.040
6023,-0.270,0.015
6024,-0.270,0.100
6025,-0.270,0.125
6026,-0.265,0.080
6027,-0.245,0.005
6028,-0.225,-0.090
6029,-0.235,-0.110
6030,-0.240,-0.105
6031,-0.215,-0.060
6032,-0.190,-0.035
6033,-0.200,-0.040
6034,-0.205,-0.060
6035,-0.220,-0.065
6036,-0.235,-0.075
6037,-0.220,-0.055
6038,-0.205,-0.040
6039,-0.200,-0.030
6040,-0.220,-0.030
6041,-0.225,-0.005
6042,-0.225,-0.010
6043,-0.205,-0.010
6044,-0.190,-0.025
6045,-0.190,-0.030
6046,-0.210,-0.035
6047,-0.230,-0.020
6048,-0.215,0.005
6049,-0.205,0.000
6050,-0.195,-0.040
6051,-0.205,-0.055
6052,-0.205,-0.060
6053,-0.230,-0.050
6054,-0.225,-0.025
6055,-0.210,-0.010
6056,-0.215,-0.005
6057,-0.210,-0.015
6058,-0.235,-0.020
6059,-0.235,-0.025
6060,-0.250,-0.010
6061,-0.230,-0.005
6062,-0.240,0.010
6063,-0.245,0.010
6064,-0.250,0.005
6065,-0.275,0.010
6066,-0.270,0.015
6067,-0.250,0.035
6068,-0.245,0.040
6069,-0.250,0.045
6070,-0.285,0.020
6071,-0.290,0.015
6072,-0.275,0.020
6073,-0.270,0.025
6074,-0.260,0.010
6075,-0.275,-0.010
6076,-0.310,-0.030
6077,-0.305,-0.025
6078,-0.290,-0.015
6079,-0.270,0.010
6080,-0.265,0.010
6081,-0.300,0.010
6082,-0.330,0.000
6083,-0.320,0.005
6084,-0.300,0.005
6085,-0.280,0.025
6086,-0.290,0.050
6087,-0.305,0.070
6088,-0.335,0.085
6089,-0.355,0.055
6090,-0.345,-0.005
6091,-0.315,-0.020
6092,-0.295,-0.045
6093,-0.300,-0.035
6094,-0.325,-0.030
6095,-0.335,-0.035
6096,-0.345,-0.015
6097,-0.310,0.000
6098,-0.290,0.010
6099,-0.300,0.000
6100,-0.330,0.005
6101,-0.345,0.005
6102,-0.335,0.030
6103,-0.320,0.035
6104,-0.310,0.040
6105,-0.320,0.020
6106,-0.320,0.010
6107,-0.330,0.010
6108,-0.340,0.035
6109,-0.325,0.040
6110,-0.310,0.060
6111,-0.325,0.035
6112,-0.320,0.035
6113,-0.330,0.050
6114,-0.325,0.065
6115,-0.305,0.075
6116,-0.300,0.065
6117,-0.295,0.075
6118,-0.300,0.045
6119,-0.315,0.055
6120,-0.305,0.080
6121,-0.280,0.090
6122,-0.250,0.095
6123,-0.230,0.105
6124,-0.225,0.115
6125,-0.220,0.145
6126,-0.220,0.205
6127,-0.180,0.235
6128,-0.145,0.230
6129,-0.115,0.215
6130,-0.080,0.200
6131,-0.030,0.195
6132,0.000,0.190
6133,0.035,0.205
6134,0.040,0.185
6135,0.035,0.160
6136,0.030,0.140
6137,0.040,0.120
6138,0.060,0.105
6139,0.045,0.085
6140,0.005,0.050
6141,-0.085,0.005
6142,-0.175,-0.010
6143,-0.200,-0.010
6144,-0.195,0.015
6145,-0.215,0.025
6146,-0.230,0.025
6147,-0.260,0.030
6148,-0.295,0.025
6149,-0.350,0.030
6150,-0.370,0.015
6151,-0.360,0.035
6152,-0.345,0.045
6153,-0.345,0.025
6154,-0.355,-0.010
6155,-0.365,-0.010
6156,-0.355,-0.025
6157,-0.360,0.000
6158,-0.340,0.005
6159,-0.340,0.005
6160,-0.355,-0.010
6161,-0.380,-0.015
6162,-0.415,0.005
6163,-0.455,0.000
6164,-0.510,-0.030
6165,-0.530,-0.065
6166,-0.475,-0.085
6167,-0.330,-0.065
6168,-0.065,-0.025
6169,0.385,0.000
6170,0.915,0.005
6171,1.415,0.010
6172,1.755,0.030
6173,1.965,0.075
6174,2.055,0.135
6175,2.065,0.210
6176,1.985,0.260
6177,1.750,0.265
6178,1.300,0.200
6179,0.660,0.120
6180,0.020,0.055
6181,-0.610,-0.015
6182,-0.700,-0.065
6183,-0.560,-0.140
6184,-0.455,-0.205
6185,-0.440,-0.240
6186,-0.440,-0.235
6187,-0.415,-0.190
6188,-0.385,-0.120
6189,-0.385,-0.070
6190,-0.405,-0.035
6191,-0.415,-0.020
6192,-0.440,0.020
6193,-0.445,0.040
6194,-0.425,0.040
6195,-0.425,0.030
6196,-0.440,0.015
6197,-0.475,0.025
6198,-0.465,0.045
6199,-0.445,0.055
6200,-0.400,0.070
6201,-0.400,0.075
6202,-0.430,0.055
6203,-0.495,0.055
6204,-0.510,0.065
6205,-0.470,0.080
6206,-0.405,0.090
6207,-0.395,0.095
6208,-0.420,0.065
6209,-0.435,0.075
6210,-0.445,0.075
6211,-0.435,0.085
6212,-0.430,0.075
6213,-0.455,0.055
6214,-0.465,0.030
6215,-0.465,0.045
6216,-0.445,0.075
6217,-0.445,0.090
6218,-0.440,0.090
6219,-0.425,0.070
6220,-0.420,0.050
6221,-0.420,0.050
6222,-0.415,0.065
6223,-0.415,0.085
6224,-0.410,0.085
6225,-0.405,0.085
6226,-0.410,0.085
6227,-0.425,0.090
6228,-0.410,0.090
6229,-0.395,0.085
6230,-0.375,0.065
6231,-0.375,0.075
6232,-0.370,0.060
6233,-0.380,0.075
6234,-0.360,0.065
6235,-0.350,0.070
6236,-0.325,0.070
6237,-0.320,0.060
6238,-0.335,0.045
6239,-0.345,0.050
6240,-0.345,0.075
6241,-0.310,0.080
6242,-0.285,0.090
6243,-0.270,0.065
6244,-0.280,0.065
6245,-0.250,0.070
6246,-0.225,0.090
6247,-0.200,0.120
6248,-0.165,0.145
6249,-0.155,0.150
6250,-0.160,0.155
6251,-0.200,0.120
6252,-0.205,0.065
6253,-0.175,0.010
6254,-0.135,-0.035
6255,-0.110,-0.030
6256,-0.115,-0.020
6257,-0.130,-0.005
6258,-0.105,0.015
6259,-0.080,0.020
6260,-0.035,0.025
6261,-0.010,0.015
6262,-0.025,0.015
6263,-0.010,0.015
6264,0.035,0.025
6265,0.060,0.040
6266,0.100,0.040
6267,0.115,0.030
6268,0.105,0.025
6269,0.120,0.030
6270,0.145,0.025
6271,0.180,0.035
6272,0.190,0.025
6273,0.200,0.035
6274,0.175,0.035
6275,0.175,0.015
6276,0.185,0.020
6277,0.190,0.045
6278,0.205,0.035
6279,0.185,0.045
6280,0.160,0.025
6281,0.145,0.040
6282,0.150,0.050
6283,0.160,0.065
6284,0.140,0.080
6285,0.115,0.085
6286,0.075,0.070
6287,0.035,0.080
6288,0.035,0.080
6289,0.025,0.085
6290,0.000,0.070
6291,-0.025,0.060
6292,-0.035,0.050
6293,-0.065,0.070
6294,-0.080,0.075
6295,-0.090,0.095
6296,-0.095,0.095
6297,-0.115,0.090
6298,-0.145,0.085
6299,-0.175,0.095
6300,-0.190,0.135
6301,-0.200,0.160
6302,-0.235,0.150
6303,-0.255,0.125
6304,-0.265,0.090
6305,-0.270,0.070
6306,-0.265,0.075
6307,-0.285,0.105
6308,-0.270,0.080
6309,-0.310,0.065
6310,-0.335,0.035
6311,-0.345,0.030
6312,-0.330,0.050
6313,-0.305,0.060
6314,-0.305,0.050
6315,-0.305,0.060
6316,-0.295,0.050
6317,-0.305,0.050
6318,-0.320,0.055
6319,-0.315,0.060
6320,-0.315,0.080
6321,-0.310,0.060
6322,-0.315,0.045
6323,-0.355,0.055
6324,-0.350,0.070
6325,-0.335,0.090
6326,-0.310,0.090
6327,-0.300,0.070
6328,-0.310,0.055
6329,-0.340,0.060
6330,-0.325,0.070
6331,-0.320,0.070
6332,-0.305,0.075
6333,-0.310,0.070
6334,-0.315,0.065
6335,-0.315,0.090
6336,-0.325,0.125
6337,-0.305,0.150
6338,-0.285,0.135
6339,-0.290,0.100
6340,-0.295,0.085
6341,-0.300,0.095
6342,-0.305,0.135
6343,-0.280,0.190
6344,-0.245,0.170
6345,-0.275,0.115
6346,-0.320,0.065
6347,-0.320,0.025
6348,-0.290,0.020
6349,-0.275,0.045
6350,-0.270,0.040
6351,-0.285,0.040
6352,-0.290,0.025
6353,-0.290,0.020
6354,-0.300,0.030
6355,-0.285,0.070
6356,-0.270,0.060
6357,-0.270,0.060
6358,-0.275,0.050
6359,-0.310,0.040
6360,-0.295,0.070
6361,-0.290,0.085
6362,-0.290,0.120
6363,-0.295,0.145
6364,-0.305,0.135
6365,-0.330,0.125
6366,-0.355,0.085
6367,-0.350,0.050
6368,-0.315,0.045
6369,-0.310,0.035
6370,-0.310,0.060
6371,-0.310,0.065
6372,-0.305,0.065
6373,-0.310,0.080
6374,-0.300,0.065
6375,-0.310,0.055
6376,-0.335,0.050
6377,-0.370,0.060
6378,-0.370,0.065
6379,-0.340,0.080
6380,-0.350,0.085
6381,-0.365,0.090
6382,-0.365,0.085
6383,-0.375,0.120
6384,-0.380,0.165
6385,-0.350,0.180
6386,-0.330,0.145
6387,-0.335,0.070
6388,-0.350,0.045
6389,-0.365,0.030
6390,-0.355,0.045
6391,-0.325,0.035
6392,-0.335,0.025
6393,-0.345,0.035
6394,-0.360,0.040
6395,-0.365,0.040
6396,-0.355,0.030
6397,-0.330,0.030
6398,-0.345,0.010
6399,-0.360,0.005
6400,-0.355,0.010
6401,-0.350,0.025
6402,-0.335,0.035
6403,-0.335,0.050
6404,-0.320,0.050
6405,-0.340,0.045
6406,-0.385,0.045
6407,-0.410,0.040
6408,-0.395,0.040
6409,-0.370,0.045
6410,-0.350,0.060
6411,-0.330,0.055
6412,-0.350,0.065
6413,-0.375,0.055
6414,-0.365,0.070
6415,-0.355,0.070
6416,-0.330,0.080
6417,-0.310,0.080
6418,-0.305,0.070
6419,-0.310,0.075
6420,-0.300,0.105
6421,-0.280,0.145
6422,-0.220,0.165
6423,-0.190,0.180
6424,-0.195,0.180
6425,-0.210,0.175
6426,-0.235,0.180
6427,-0.200,0.180
6428,-0.115,0.180
6429,-0.055,0.175
6430,-0.045,0.170
6431,-0.075,0.190
6432,-0.070,0.205
6433,-0.060,0.190
6434,-0.035,0.190
6435,-0.055,0.150
6436,-0.080,0.120
6437,-0.125,0.090
6438,-0.150,0.065
6439,-0.170,0.070
6440,-0.190,0.065
6441,-0.230,0.060
6442,-0.250,0.060
6443,-0.280,0.070
6444,-0.300,0.075
6445,-0.330,0.080
6446,-0.325,0.075
6447,-0.335,0.060
6448,-0.355,0.045
6449,-0.385,0.040
6450,-0.380,0.050
6451,-0.360,0.050
6452,-0.345,0.030
6453,-0.355,0.030
6454,-0.395,0.025
6455,-0.435,0.035
6456,-0.420,0.035
6457,-0.385,0.065
6458,-0.365,0.060
6459,-0.385,0.030
6460,-0.400,-0.010
6461,-0.435,-0.015
6462,-0.430,-0.025
6463,-0.400,-0.035
6464,-0.320,-0.025
6465,-0.190,0.000
6466,0.055,0.025
6467,0.425,0.050
6468,0.900,0.070
6469,1.315,0.095
6470,1.650,0.115
6471,1.850,0.125
6472,1.925,0.115
6473,1.900,0.115
6474,1.800,0.155
6475,1.560,0.155
6476,1.115,0.100
6477,0.500,0.010
6478,-0.140,-0.055
6479,-0.665,-0.090
6480,-0.780,-0.095
6481,-0.690,-0.115
6482,-0.565,-0.170
6483,-0.525,-0.205
6484,-0.560,-0.225
6485,-0.565,-0.225
6486,-0.540,-0.170
6487,-0.500,-0.115
6488,-0.460,-0.095
6489,-0.435,-0.070
6490,-0.455,-0.075
6491,-0.475,-0.070
6492,-0.505,-0.040
6493,-0.505,-0.005
6494,-0.485,-0.010
6495,-0.475,-0.010
6496,-0.485,-0.010
6497,-0.495,-0.025
6498,-0.495,-0.010
6499,-0.470,0.010
6500,-0.445,0.000
6501,-0.435,0.005
6502,-0.430,-0.005
6503,-0.435,-0.005
6504,-0.450,0.010
6505,-0.465,0.025
6506,-0.475,0.030
6507,-0.465,0.030
6508,-0.445,0.010
6509,-0.445,-0.010
6510,-0.460,-0.010
6511,-0.460,0.000
6512,-0.425,0.000
6513,-0.425,-0.005
6514,-0.415,-0.015
6515,-0.430,-0.025
6516,-0.430,-0.005
6517,-0.440,0.005
6518,-0.445,0.025
6519,-0.425,0.010
6520,-0.415,0.015
6521,-0.420,0.000
6522,-0.450,0.000
6523,-0.440,0.025
6524,-0.415,0.040
6525,-0.370,0.050
6526,-0.370,0.050
6527,-0.390,0.045
6528,-0.390,0.005
6529,-0.365,-0.040
6530,-0.350,-0.055
6531,-0.350,-0.060
6532,-0.355,-0.050
6533,-0.355,-0.040
6534,-0.345,-0.050
6535,-0.330,-0.040
6536,-0.315,-0.035
6537,-0.320,-0.035
6538,-0.335,-0.020
6539,-0.340,-0.025
6540,-0.315,-0.005
6541,-0.280,0.000
6542,-0.240,-0.015
6543,-0.235,-0.020
6544,-0.250,-0.015
6545,-0.250,-0.010
6546,-0.220,-0.010
6547,-0.215,-0.015
6548,-0.210,-0.005
6549,-0.205,0.000
6550,-0.200,-0.005
6551,-0.195,0.005
6552,-0.170,0.010
6553,-0.145,0.030
6554,-0.105,0.005
6555,-0.130,-0.010
6556,-0.130,-0.025
6557,-0.125,-0.020
6558,-0.085,0.005
6559,-0.060,0.020
6560,-0.045,0.035
6561,-0.015,0.045
6562,0.005,0.055
6563,0.040,0.060
6564,0.090,0.060
6565,0.145,0.055
6566,0.160,0.020
6567,0.170,0.005
6568,0.135,0.020
6569,0.150,0.020
6570,0.170,0.025
6571,0.175,-0.010
6572,0.185,-0.060
6573,0.210,-0.090
6574,0.220,-0.105
6575,0.210,-0.075
6576,0.230,-0.070
6577,0.245,-0.050
6578,0.265,-0.050
6579,0.265,-0.055
6580,0.250,-0.030
6581,0.215,-0.010
6582,0.220,0.005
6583,0.225,0.040
6584,0.210,0.060
6585,0.190,0.075
6586,0.160,0.090
6587,0.125,0.075
6588,0.110,0.030
6589,0.110,0.005
6590,0.090,-0.020
6591,0.070,0.000
6592,0.020,0.005
6593,-0.020,0.020
6594,-0.030,0.065
6595,-0.040,0.115
6596,-0.060,0.105
6597,-0.065,0.040
6598,-0.075,-0.030
6599,-0.110,-0.060
6600,-0.120,-0.040
6601,-0.125,0.010
6602,-0.130,0.015
6603,-0.150,-0.005
6604,-0.175,-0.030
6605,-0.170,-0.045
6606,-0.170,-0.045
6607,-0.185,-0.030
6608,-0.185,-0.025
6609,-0.200,-0.030
6610,-0.235,-0.050
6611,-0.260,-0.050
6612,-0.250,-0.025
6613,-0.260,0.000
6614,-0.235,0.025
6615,-0.230,0.050
6616,-0.255,0.060
6617,-0.280,0.080
6618,-0.280,0.070
6619,-0.260,0.040
6620,-0.240,0.020
6621,-0.220,0.000
6622,-0.235,0.000
6623,-0.270,0.000
6624,-0.270,0.040
6625,-0.255,0.070
6626,-0.235,0.075
6627,-0.240,0.045
6628,-0.285,-0.015
6629,-0.270,-0.025
6630,-0.265,0.005
6631,-0.230,0.035
6632,-0.195,0.035
6633,-0.200,0.005
6634,-0.210,-0.015
6635,-0.230,-0.020
6636,-0.245,0.000
6637,-0.240,0.045
6638,-0.205,0.075
6639,-0.205,0.080
6640,-0.205,0.070
6641,-0.205,0.080
6642,-0.205,0.060
6643,-0.180,0.035
6644,-0.160,-0.015
6645,-0.165,-0.040
6646,-0.185,-0.015
6647,-0.200,0.025
6648,-0.190,0.045
6649,-0.155,0.055
6650,-0.120,0.050
6651,-0.135,0.030
6652,-0.185,0.015
6653,-0.210,0.025
6654,-0.195,0.035
6655,-0.180,0.025
6656,-0.170,0.025
6657,-0.170,0.065
6658,-0.185,0.110
6659,-0.200,0.155
6660,-0.205,0.190
6661,-0.190,0.180
6662,-0.170,0.115
6663,-0.175,0.020
6664,-0.195,-0.080
6665,-0.210,-0.130
6666,-0.195,-0.135
6667,-0.180,-0.120
6668,-0.190,-0.120
6669,-0.200,-0.130
6670,-0.205,-0.115
6671,-0.225,-0.120
6672,-0.215,-0.100
6673,-0.210,-0.090
6674,-0.205,-0.095
6675,-0.225,-0.100
6676,-0.255,-0.105
6677,-0.250,-0.110
6678,-0.240,-0.070
6679,-0.225,-0.045
6680,-0.220,-0.055
6681,-0.240,-0.080
6682,-0.250,-0.090
6683,-0.260,-0.070
6684,-0.270,-0.045
6685,-0.275,-0.035
6686,-0.255,-0.045
6687,-0.265,-0.060
6688,-0.265,-0.075
6689,-0.290,-0.065
6690,-0.270,-0.035
6691,-0.270,-0.015
6692,-0.230,-0.020
6693,-0.235,-0.045
6694,-0.250,-0.065
6695,-0.270,-0.065
6696,-0.255,-0.055
6697,-0.230,-0.015
6698,-0.215,-0.005
6699,-0.225,0.015
6700,-0.230,0.010
6701,-0.230,0.030
6702,-0.195,0.030
6703,-0.170,0.040
6704,-0.160,0.040
