'sample interval','MLII','V1'
'0.00277778 sec','mV','mV'
0,-2.045,-1.245
1,-2.045,-1.245
2,-2.045,-1.245
3,-2.045,-1.245
4,-2.045,-1.245
5,-2.090,-1.245
6,-2.140,-1.245
7,-2.205,-1.345
8,-2.270,-1.445
9,-2.340,-1.575
10,-2.405,-1.720
11,-2.465,-1.830
12,-2.545,-1.830
13,-2.580,-1.715
14,-2.555,-1.515
15,-2.435,-1.310
16,-2.220,-1.095
17,-1.940,-0.910
18,-1.640,-0.780
19,-1.425,-0.690
20,-1.215,-0.605
21,-1.050,-0.480
22,-0.935,-0.355
23,-0.840,-0.210
24,-0.780,-0.095
25,-0.720,-0.015
26,-0.690,0.045
27,-0.640,0.105
28,-0.595,0.150
29,-0.570,0.215
30,-0.540,0.290
31,-0.500,0.340
32,-0.480,0.380
33,-0.450,0.415
34,-0.395,0.440
35,-0.325,0.480
36,-0.250,0.515
37,-0.200,0.550
38,-0.165,0.570
39,-0.140,0.600
40,-0.115,0.640
41,-0.080,0.695
42,-0.035,0.715
43,0.005,0.750
44,0.045,0.745
45,0.090,0.745
46,0.140,0.745
47,0.180,0.760
48,0.235,0.750
49,0.270,0.770
50,0.300,0.770
51,0.295,0.770
52,0.300,0.775
53,0.300,0.795
54,0.320,0.815
55,0.340,0.820
56,0.345,0.820
57,0.355,0.820
58,0.375,0.835
59,0.400,0.850
60,0.430,0.870
61,0.460,0.855
62,0.475,0.865
63,0.480,0.865
64,0.495,0.865
65,0.525,0.900
66,0.560,0.915
67,0.600,0.940
68,0.635,0.945
69,0.650,0.935
70,0.680,0.960
71,0.710,0.985
72,0.755,0.995
73,0.785,0.995
74,0.810,1.010
75,0.820,1.015
76,0.840,1.035
77,0.870,1.055
78,0.920,1.070
79,0.965,1.075
80,0.980,1.090
81,1.000,1.095
82,1.030,1.100
83,1.070,1.130
84,1.095,1.145
85,1.105,1.135
86,1.100,1.140
87,1.100,1.135
88,1.115,1.135
89,1.130,1.150
90,1.145,1.160
91,1.155,1.150
92,1.150,1.130
93,1.140,1.130
94,1.130,1.110
95,1.125,1.115
96,1.130,1.105
97,1.110,1.095
98,1.085,1.080
99,1.045,1.050
100,1.015,1.030
101,0.985,1.020
102,0.955,1.010
103,0.920,0.980
104,0.880,0.940
105,0.840,0.915
106,0.785,0.895
107,0.745,0.885
108,0.720,0.865
109,0.685,0.815
110,0.635,0.790
111,0.575,0.745
112,0.515,0.715
113,0.470,0.710
114,0.425,0.695
115,0.365,0.670
116,0.305,0.650
117,0.250,0.625
118,0.190,0.590
119,0.160,0.595
120,0.140,0.580
121,0.095,0.560
122,0.050,0.540
123,0.005,0.520
124,-0.050,0.520
125,-0.085,0.515
126,-0.110,0.525
127,-0.130,0.510
128,-0.150,0.505
129,-0.190,0.485
130,-0.225,0.475
131,-0.235,0.475
132,-0.230,0.495
133,-0.250,0.490
134,-0.260,0.470
135,-0.280,0.460
136,-0.315,0.470
137,-0.305,0.475
138,-0.310,0.470
139,-0.320,0.465
140,-0.345,0.450
141,-0.365,0.440
142,-0.375,0.440
143,-0.370,0.460
144,-0.360,0.465
145,-0.365,0.460
146,-0.380,0.455
147,-0.375,0.445
148,-0.390,0.445
149,-0.390,0.445
150,-0.375,0.460
151,-0.385,0.455
152,-0.390,0.440
153,-0.410,0.440
154,-0.395,0.430
155,-0.400,0.445
156,-0.380,0.450
157,-0.380,0.440
158,-0.375,0.445
159,-0.390,0.435
160,-0.395,0.430
161,-0.405,0.440
162,-0.380,0.455
163,-0.375,0.445
164,-0.380,0.445
165,-0.390,0.430
166,-0.415,0.430
167,-0.410,0.440
168,-0.385,0.440
169,-0.390,0.440
170,-0.395,0.430
171,-0.390,0.405
172,-0.385,0.405
173,-0.370,0.425
174,-0.360,0.430
175,-0.350,0.425
176,-0.350,0.410
177,-0.345,0.410
178,-0.350,0.410
179,-0.330,0.410
180,-0.325,0.415
181,-0.330,0.395
182,-0.335,0.390
183,-0.340,0.375
184,-0.350,0.380
185,-0.345,0.380
186,-0.350,0.390
187,-0.335,0.395
188,-0.340,0.385
189,-0.335,0.365
190,-0.355,0.350
191,-0.335,0.365
192,-0.315,0.360
193,-0.320,0.365
194,-0.335,0.360
195,-0.365,0.355
196,-0.375,0.335
197,-0.360,0.340
198,-0.340,0.345
199,-0.325,0.350
200,-0.335,0.335
201,-0.340,0.320
202,-0.360,0.320
203,-0.380,0.330
204,-0.370,0.340
205,-0.360,0.330
206,-0.355,0.330
207,-0.375,0.310
208,-0.375,0.310
209,-0.360,0.320
210,-0.355,0.320
211,-0.350,0.330
212,-0.350,0.310
213,-0.365,0.300
214,-0.365,0.300
215,-0.355,0.305
216,-0.345,0.305
217,-0.355,0.305
218,-0.350,0.300
219,-0.370,0.290
220,-0.365,0.295
221,-0.350,0.305
222,-0.350,0.310
223,-0.350,0.295
224,-0.365,0.290
225,-0.360,0.280
226,-0.365,0.285
227,-0.355,0.285
228,-0.345,0.310
229,-0.345,0.305
230,-0.345,0.280
231,-0.360,0.280
232,-0.360,0.275
233,-0.335,0.270
234,-0.340,0.280
235,-0.340,0.280
236,-0.345,0.270
237,-0.360,0.255
238,-0.370,0.255
239,-0.355,0.275
240,-0.340,0.280
241,-0.340,0.265
242,-0.350,0.255
243,-0.365,0.245
244,-0.365,0.255
245,-0.355,0.265
246,-0.340,0.275
247,-0.325,0.255
248,-0.325,0.240
249,-0.335,0.235
250,-0.360,0.245
251,-0.335,0.265
252,-0.310,0.290
253,-0.300,0.330
254,-0.300,0.335
255,-0.285,0.325
256,-0.280,0.340
257,-0.245,0.345
258,-0.215,0.335
259,-0.190,0.295
260,-0.160,0.150
261,-0.125,-0.165
262,-0.055,-0.545
263,0.085,-0.610
264,0.325,-0.315
265,0.805,-0.050
266,1.400,0.010
267,1.800,-0.040
268,1.890,-0.050
269,1.815,-0.030
270,1.730,-0.025
271,1.665,-0.050
272,1.620,-0.080
273,1.540,-0.120
274,1.440,-0.150
275,1.330,-0.165
276,1.260,-0.185
277,1.165,-0.215
278,1.100,-0.245
279,1.005,-0.280
280,0.895,-0.295
281,0.790,-0.300
282,0.675,-0.315
283,0.530,-0.350
284,0.390,-0.405
285,0.210,-0.450
286,0.020,-0.530
287,-0.175,-0.585
288,-0.390,-0.630
289,-0.610,-0.680
290,-0.865,-0.715
291,-1.105,-0.755
292,-1.310,-0.825
293,-1.500,-0.925
294,-1.650,-1.050
295,-1.805,-1.240
296,-1.945,-1.400
297,-2.045,-1.495
298,-2.120,-1.565
299,-2.170,-1.655
300,-2.195,-1.745
301,-2.260,-1.845
302,-2.345,-1.950
303,-2.430,-2.030
304,-2.500,-2.135
305,-2.530,-2.245
306,-2.565,-2.335
307,-2.630,-2.335
308,-2.675,-2.225
309,-2.690,-2.055
310,-2.600,-1.855
311,-2.395,-1.660
312,-2.165,-1.460
313,-1.940,-1.290
314,-1.750,-1.115
315,-1.580,-1.010
316,-1.455,-0.865
317,-1.340,-0.725
318,-1.260,-0.595
319,-1.185,-0.490
320,-1.135,-0.410
321,-1.090,-0.350
322,-1.065,-0.260
323,-1.010,-0.170
324,-0.980,-0.105
325,-0.975,-0.070
326,-0.970,-0.030
327,-0.965,-0.005
328,-0.950,0.035
329,-0.875,0.085
330,-0.810,0.130
331,-0.750,0.160
332,-0.690,0.185
333,-0.650,0.210
334,-0.605,0.255
335,-0.555,0.300
336,-0.465,0.315
337,-0.405,0.345
338,-0.340,0.355
339,-0.275,0.360
340,-0.215,0.375
341,-0.170,0.400
342,-0.095,0.410
343,-0.035,0.415
344,0.000,0.415
345,0.045,0.425
346,0.050,0.430
347,0.050,0.450
348,0.075,0.460
349,0.085,0.460
350,0.105,0.455
351,0.105,0.465
352,0.120,0.470
353,0.145,0.500
354,0.185,0.510
355,0.215,0.520
356,0.235,0.530
357,0.255,0.510
358,0.265,0.535
359,0.300,0.555
360,0.335,0.565
361,0.360,0.585
362,0.365,0.590
363,0.370,0.595
364,0.400,0.605
365,0.435,0.615
366,0.490,0.640
367,0.525,0.650
368,0.560,0.645
369,0.585,0.655
370,0.600,0.665
371,0.635,0.700
372,0.685,0.705
373,0.720,0.735
374,0.750,0.720
375,0.775,0.730
376,0.810,0.750
377,0.845,0.755
378,0.880,0.770
379,0.910,0.775
380,0.940,0.755
381,0.960,0.755
382,0.950,0.770
383,0.970,0.790
384,0.995,0.815
385,1.015,0.805
386,1.010,0.790
387,1.010,0.785
388,1.010,0.795
389,1.015,0.800
390,1.035,0.795
391,1.035,0.785
392,1.010,0.765
393,0.990,0.755
394,0.965,0.725
395,0.950,0.730
396,0.955,0.710
397,0.925,0.695
398,0.875,0.655
399,0.865,0.630
400,0.830,0.610
401,0.800,0.605
402,0.790,0.575
403,0.750,0.540
404,0.720,0.510
405,0.670,0.485
406,0.620,0.445
407,0.585,0.440
408,0.540,0.405
409,0.495,0.370
410,0.450,0.320
411,0.385,0.285
412,0.320,0.275
413,0.290,0.265
414,0.250,0.245
415,0.225,0.225
416,0.175,0.190
417,0.120,0.165
418,0.065,0.150
419,0.040,0.140
420,0.010,0.160
421,-0.020,0.155
422,-0.055,0.125
423,-0.090,0.115
424,-0.135,0.100
425,-0.150,0.105
426,-0.165,0.110
427,-0.185,0.100
428,-0.210,0.085
429,-0.220,0.065
430,-0.240,0.065
431,-0.260,0.075
432,-0.260,0.085
433,-0.280,0.080
434,-0.295,0.045
435,-0.310,0.040
436,-0.330,0.060
437,-0.320,0.075
438,-0.330,0.075
439,-0.320,0.070
440,-0.335,0.060
441,-0.345,0.055
442,-0.350,0.060
443,-0.350,0.045
444,-0.335,0.055
445,-0.345,0.065
446,-0.360,0.070
447,-0.375,0.065
448,-0.390,0.060
449,-0.390,0.065
450,-0.370,0.085
451,-0.370,0.105
452,-0.385,0.090
453,-0.395,0.075
454,-0.390,0.070
455,-0.385,0.075
456,-0.375,0.090
457,-0.365,0.085
458,-0.370,0.075
459,-0.385,0.060
460,-0.395,0.065
461,-0.400,0.095
462,-0.385,0.115
463,-0.365,0.105
464,-0.370,0.090
465,-0.390,0.070
466,-0.400,0.075
467,-0.385,0.095
468,-0.345,0.095
469,-0.320,0.095
470,-0.310,0.085
471,-0.335,0.070
472,-0.345,0.075
473,-0.355,0.080
474,-0.345,0.085
475,-0.330,0.085
476,-0.325,0.075
477,-0.340,0.055
478,-0.345,0.055
479,-0.330,0.065
480,-0.325,0.065
481,-0.325,0.070
482,-0.345,0.050
483,-0.355,0.040
484,-0.355,0.045
485,-0.350,0.035
486,-0.345,0.035
487,-0.340,0.040
488,-0.360,0.045
489,-0.355,0.045
490,-0.360,0.030
491,-0.350,0.035
492,-0.350,0.045
493,-0.350,0.030
494,-0.375,0.025
495,-0.375,0.015
496,-0.385,0.010
497,-0.380,0.020
498,-0.365,0.040
499,-0.350,0.050
500,-0.360,0.055
501,-0.380,0.055
502,-0.375,0.075
503,-0.345,0.110
504,-0.325,0.145
505,-0.305,0.185
506,-0.295,0.175
507,-0.295,0.170
508,-0.285,0.175
509,-0.255,0.210
510,-0.210,0.230
511,-0.170,0.240
512,-0.130,0.220
513,-0.120,0.200
514,-0.115,0.185
515,-0.095,0.165
516,-0.075,0.105
517,-0.060,0.060
518,-0.025,0.040
519,-0.015,0.030
520,-0.015,0.030
521,-0.020,0.015
522,-0.030,0.005
523,-0.050,-0.020
524,-0.060,-0.050
525,-0.080,-0.065
526,-0.100,-0.065
527,-0.080,-0.025
528,-0.065,-0.020
529,-0.075,-0.030
530,-0.090,-0.050
531,-0.110,-0.065
532,-0.115,-0.075
533,-0.110,-0.070
534,-0.120,-0.055
535,-0.150,-0.055
536,-0.185,-0.065
537,-0.215,-0.070
538,-0.250,-0.065
539,-0.265,-0.055
540,-0.270,-0.040
541,-0.295,-0.040
542,-0.325,-0.060
543,-0.345,-0.075
544,-0.370,-0.070
545,-0.375,-0.070
546,-0.380,-0.070
547,-0.385,-0.090
548,-0.390,-0.110
549,-0.410,-0.120
550,-0.435,-0.130
551,-0.425,-0.105
552,-0.445,-0.105
553,-0.440,-0.110
554,-0.445,-0.130
555,-0.440,-0.180
556,-0.425,-0.215
557,-0.400,-0.300
558,-0.370,-0.540
559,-0.330,-0.955
560,-0.255,-1.205
561,-0.075,-1.045
562,0.335,-0.730
563,0.950,-0.525
564,1.515,-0.485
565,1.740,-0.470
566,1.640,-0.460
567,1.470,-0.450
568,1.365,-0.435
569,1.320,-0.435
570,1.295,-0.435
571,1.210,-0.455
572,1.135,-0.480
573,1.035,-0.505
574,0.930,-0.515
575,0.875,-0.515
576,0.800,-0.540
577,0.720,-0.560
578,0.625,-0.595
579,0.500,-0.630
580,0.385,-0.645
581,0.290,-0.660
582,0.170,-0.705
583,0.055,-0.750
584,-0.095,-0.830
585,-0.250,-0.930
586,-0.395,-1.000
587,-0.520,-1.040
588,-0.650,-1.085
589,-0.795,-1.125
590,-0.970,-1.210
591,-1.155,-1.340
592,-1.350,-1.470
593,-1.490,-1.630
594,-1.575,-1.740
595,-1.620,-1.850
596,-1.660,-1.935
597,-1.720,-2.005
598,-1.755,-2.085
599,-1.805,-2.175
600,-1.905,-2.260
601,-2.010,-2.345
602,-2.125,-2.460
603,-2.215,-2.545
604,-2.290,-2.630
605,-2.375,-2.645
606,-2.425,-2.545
607,-2.475,-2.385
608,-2.445,-2.235
609,-2.350,-2.080
610,-2.205,-1.905
611,-2.030,-1.735
612,-1.850,-1.570
613,-1.675,-1.410
614,-1.505,-1.265
615,-1.400,-1.125
616,-1.345,-0.980
617,-1.280,-0.860
618,-1.230,-0.755
619,-1.180,-0.660
620,-1.140,-0.570
621,-1.100,-0.490
622,-1.075,-0.400
623,-1.045,-0.335
624,-1.030,-0.275
625,-1.010,-0.215
626,-0.985,-0.165
627,-0.940,-0.135
628,-0.885,-0.080
629,-0.810,-0.040
630,-0.745,0.005
631,-0.660,0.055
632,-0.615,0.070
633,-0.585,0.090
634,-0.525,0.120
635,-0.440,0.150
636,-0.365,0.185
637,-0.275,0.195
638,-0.215,0.210
639,-0.150,0.210
640,-0.105,0.225
641,-0.045,0.230
642,0.015,0.255
643,0.050,0.260
644,0.065,0.260
645,0.085,0.260
646,0.100,0.265
647,0.125,0.280
648,0.150,0.300
649,0.170,0.300
650,0.175,0.310
651,0.185,0.295
652,0.205,0.325
653,0.220,0.335
654,0.255,0.340
655,0.270,0.355
656,0.285,0.350
657,0.305,0.340
658,0.310,0.355
659,0.340,0.370
660,0.365,0.390
661,0.385,0.415
662,0.415,0.415
663,0.435,0.410
664,0.445,0.430
665,0.485,0.450
666,0.515,0.460
667,0.555,0.480
668,0.565,0.485
669,0.595,0.470
670,0.610,0.490
671,0.645,0.505
672,0.675,0.520
673,0.710,0.540
674,0.730,0.530
675,0.755,0.545
676,0.775,0.575
677,0.810,0.585
678,0.830,0.605
679,0.850,0.610
680,0.870,0.610
681,0.880,0.615
682,0.905,0.625
683,0.915,0.650
684,0.935,0.650
685,0.950,0.650
686,0.940,0.645
687,0.950,0.635
688,0.940,0.630
689,0.955,0.640
690,0.960,0.635
691,0.950,0.665
692,0.945,0.645
693,0.930,0.625
694,0.925,0.615
695,0.920,0.615
696,0.910,0.595
697,0.880,0.590
698,0.865,0.560
699,0.830,0.535
700,0.805,0.520
701,0.785,0.500
702,0.770,0.485
703,0.745,0.455
704,0.715,0.435
705,0.680,0.400
706,0.650,0.375
707,0.620,0.360
708,0.595,0.340
709,0.555,0.290
710,0.525,0.255
711,0.485,0.205
712,0.420,0.190
713,0.395,0.170
714,0.365,0.170
715,0.330,0.155
716,0.290,0.115
717,0.235,0.070
718,0.195,0.050
719,0.170,0.045
720,0.155,0.045
721,0.100,0.025
722,0.060,-0.005
723,0.025,-0.015
724,-0.025,-0.015
725,-0.040,-0.020
726,-0.075,-0.030
727,-0.100,-0.045
728,-0.135,-0.060
729,-0.165,-0.070
730,-0.210,-0.065
731,-0.210,-0.060
732,-0.210,-0.065
733,-0.230,-0.065
734,-0.250,-0.085
735,-0.265,-0.090
736,-0.295,-0.090
737,-0.295,-0.085
738,-0.290,-0.080
739,-0.305,-0.085
740,-0.310,-0.100
741,-0.315,-0.095
742,-0.325,-0.095
743,-0.340,-0.085
744,-0.345,-0.065
745,-0.350,-0.075
746,-0.355,-0.085
747,-0.355,-0.100
748,-0.365,-0.085
749,-0.360,-0.090
750,-0.345,-0.080
751,-0.360,-0.085
752,-0.370,-0.090
753,-0.375,-0.095
754,-0.385,-0.090
755,-0.375,-0.080
756,-0.365,-0.070
757,-0.380,-0.055
758,-0.380,-0.065
759,-0.375,-0.045
760,-0.375,-0.010
761,-0.370,0.030
762,-0.355,0.055
763,-0.340,0.065
764,-0.330,0.065
765,-0.320,0.060
766,-0.310,0.090
767,-0.270,0.110
768,-0.230,0.130
769,-0.180,0.145
770,-0.150,0.135
771,-0.120,0.145
772,-0.110,0.150
773,-0.085,0.135
774,-0.060,0.125
775,-0.050,0.065
776,-0.035,0.020
777,-0.025,-0.005
778,-0.015,-0.020
779,0.005,-0.025
780,0.005,-0.035
781,-0.025,-0.060
782,-0.055,-0.090
783,-0.085,-0.095
784,-0.100,-0.100
785,-0.100,-0.110
786,-0.095,-0.110
787,-0.080,-0.125
788,-0.075,-0.135
789,-0.085,-0.140
790,-0.100,-0.140
791,-0.075,-0.135
792,-0.080,-0.140
793,-0.095,-0.145
794,-0.110,-0.145
795,-0.130,-0.170
796,-0.155,-0.175
797,-0.165,-0.155
798,-0.200,-0.145
799,-0.225,-0.145
800,-0.245,-0.140
801,-0.255,-0.130
802,-0.290,-0.140
803,-0.305,-0.145
804,-0.330,-0.150
805,-0.330,-0.160
806,-0.360,-0.175
807,-0.385,-0.175
808,-0.405,-0.170
809,-0.420,-0.165
810,-0.425,-0.180
811,-0.450,-0.190
812,-0.440,-0.190
813,-0.480,-0.205
814,-0.475,-0.200
815,-0.470,-0.200
816,-0.470,-0.200
817,-0.480,-0.200
818,-0.495,-0.205
819,-0.495,-0.220
820,-0.505,-0.210
821,-0.495,-0.215
822,-0.485,-0.200
823,-0.490,-0.205
824,-0.490,-0.220
825,-0.495,-0.240
826,-0.510,-0.230
827,-0.515,-0.225
828,-0.500,-0.225
829,-0.505,-0.220
830,-0.510,-0.230
831,-0.510,-0.230
832,-0.515,-0.225
833,-0.510,-0.225
834,-0.495,-0.220
835,-0.505,-0.225
836,-0.505,-0.215
837,-0.510,-0.245
838,-0.515,-0.225
839,-0.510,-0.220
840,-0.500,-0.220
841,-0.505,-0.215
842,-0.520,-0.235
843,-0.520,-0.245
844,-0.535,-0.250
845,-0.530,-0.225
846,-0.515,-0.230
847,-0.510,-0.230
848,-0.505,-0.230
849,-0.515,-0.240
850,-0.520,-0.230
851,-0.530,-0.220
852,-0.505,-0.215
853,-0.500,-0.215
854,-0.500,-0.240
855,-0.505,-0.250
856,-0.520,-0.240
857,-0.515,-0.235
858,-0.500,-0.220
859,-0.495,-0.240
860,-0.500,-0.245
861,-0.515,-0.250
862,-0.510,-0.235
863,-0.515,-0.220
864,-0.500,-0.220
865,-0.480,-0.225
866,-0.475,-0.235
867,-0.485,-0.260
868,-0.485,-0.265
869,-0.475,-0.270
870,-0.450,-0.270
871,-0.440,-0.285
872,-0.425,-0.325
873,-0.420,-0.460
874,-0.400,-0.750
875,-0.350,-1.115
876,-0.240,-1.200
877,-0.010,-0.985
878,0.415,-0.770
879,0.970,-0.675
880,1.465,-0.630
881,1.660,-0.605
882,1.590,-0.565
883,1.470,-0.535
884,1.375,-0.555
885,1.315,-0.555
886,1.260,-0.560
887,1.185,-0.565
888,1.110,-0.600
889,1.015,-0.620
890,0.935,-0.625
891,0.840,-0.655
892,0.755,-0.665
893,0.695,-0.680
894,0.620,-0.705
895,0.515,-0.740
896,0.395,-0.760
897,0.265,-0.775
898,0.130,-0.795
899,0.000,-0.815
900,-0.130,-0.865
901,-0.290,-0.950
902,-0.480,-1.030
903,-0.690,-1.100
904,-0.900,-1.140
905,-1.090,-1.170
906,-1.280,-1.225
907,-1.460,-1.290
908,-1.640,-1.400
909,-1.830,-1.515
910,-1.990,-1.640
911,-2.080,-1.740
912,-2.130,-1.810
913,-2.170,-1.855
914,-2.185,-1.930
915,-2.215,-2.010
916,-2.250,-2.080
917,-2.305,-2.130
918,-2.380,-2.180
919,-2.470,-2.255
920,-2.535,-2.365
921,-2.585,-2.475
922,-2.630,-2.510
923,-2.665,-2.450
924,-2.650,-2.310
925,-2.590,-2.150
926,-2.485,-2.010
927,-2.340,-1.880
928,-2.230,-1.710
929,-2.050,-1.555
930,-1.875,-1.410
931,-1.700,-1.295
932,-1.545,-1.190
933,-1.435,-1.075
934,-1.380,-0.970
935,-1.295,-0.870
936,-1.225,-0.780
937,-1.145,-0.685
938,-1.105,-0.630
939,-1.060,-0.580
940,-1.015,-0.515
941,-0.965,-0.445
942,-0.935,-0.385
943,-0.915,-0.330
944,-0.905,-0.300
945,-0.885,-0.275
946,-0.835,-0.225
947,-0.750,-0.175
948,-0.675,-0.135
949,-0.620,-0.090
950,-0.570,-0.075
951,-0.530,-0.050
952,-0.470,-0.025
953,-0.405,0.020
954,-0.335,0.060
955,-0.270,0.080
956,-0.220,0.085
957,-0.160,0.090
958,-0.095,0.120
959,-0.025,0.135
960,0.020,0.145
961,0.090,0.150
962,0.135,0.140
963,0.155,0.140
964,0.175,0.150
965,0.200,0.185
966,0.220,0.205
967,0.235,0.205
968,0.235,0.200
969,0.245,0.205
970,0.265,0.215
971,0.305,0.240
972,0.330,0.255
973,0.350,0.255
974,0.340,0.265
975,0.355,0.255
976,0.360,0.270
977,0.390,0.280
978,0.420,0.305
979,0.425,0.310
980,0.440,0.300
981,0.440,0.310
982,0.460,0.335
983,0.490,0.340
984,0.525,0.350
985,0.535,0.365
986,0.550,0.375
987,0.570,0.375
988,0.585,0.375
989,0.600,0.410
990,0.630,0.430
991,0.650,0.435
992,0.675,0.430
993,0.705,0.435
994,0.730,0.450
995,0.765,0.475
996,0.800,0.500
997,0.805,0.505
998,0.795,0.510
999,0.815,0.535
1000,0.850,0.560
1001,0.880,0.560
1002,0.895,0.570
1003,0.895,0.565
1004,0.895,0.570
1005,0.885,0.595
1006,0.905,0.595
1007,0.920,0.615
1008,0.925,0.610
1009,0.925,0.600
1010,0.920,0.595
1011,0.930,0.605
1012,0.940,0.615
1013,0.955,0.615
1014,0.945,0.605
1015,0.930,0.590
1016,0.905,0.585
1017,0.890,0.575
1018,0.880,0.570
1019,0.880,0.565
1020,0.855,0.550
1021,0.835,0.525
1022,0.815,0.495
1023,0.790,0.495
1024,0.780,0.475
1025,0.755,0.465
1026,0.740,0.435
1027,0.710,0.405
1028,0.675,0.375
1029,0.650,0.355
1030,0.620,0.345
1031,0.615,0.340
1032,0.600,0.340
1033,0.555,0.320
1034,0.525,0.310
1035,0.495,0.305
1036,0.475,0.305
1037,0.455,0.315
1038,0.450,0.285
1039,0.435,0.255
1040,0.405,0.230
1041,0.400,0.220
1042,0.395,0.220
1043,0.405,0.230
1044,0.400,0.205
1045,0.385,0.170
1046,0.365,0.125
1047,0.325,0.090
1048,0.320,0.055
1049,0.315,0.035
1050,0.310,-0.005
1051,0.300,-0.030
1052,0.285,-0.070
1053,0.235,-0.095
1054,0.195,-0.105
1055,0.160,-0.115
1056,0.110,-0.120
1057,0.080,-0.130
1058,0.040,-0.140
1059,0.010,-0.145
1060,0.020,-0.135
1061,0.020,-0.135
1062,0.015,-0.135
1063,-0.010,-0.140
1064,-0.035,-0.150
1065,-0.050,-0.145
1066,-0.070,-0.120
1067,-0.085,-0.120
1068,-0.105,-0.130
1069,-0.120,-0.140
1070,-0.150,-0.135
1071,-0.180,-0.125
1072,-0.210,-0.125
1073,-0.230,-0.110
1074,-0.250,-0.100
1075,-0.290,-0.115
1076,-0.320,-0.125
1077,-0.360,-0.125
1078,-0.370,-0.125
1079,-0.400,-0.110
1080,-0.415,-0.100
1081,-0.435,-0.110
1082,-0.460,-0.125
1083,-0.470,-0.135
1084,-0.465,-0.130
1085,-0.480,-0.120
1086,-0.490,-0.130
1087,-0.515,-0.130
1088,-0.535,-0.140
1089,-0.550,-0.120
1090,-0.545,-0.115
1091,-0.540,-0.115
1092,-0.545,-0.115
1093,-0.550,-0.120
1094,-0.545,-0.115
1095,-0.560,-0.110
1096,-0.555,-0.095
1097,-0.550,-0.100
1098,-0.555,-0.105
1099,-0.560,-0.115
1100,-0.565,-0.115
1101,-0.585,-0.115
1102,-0.570,-0.100
1103,-0.550,-0.095
1104,-0.565,-0.105
1105,-0.555,-0.120
1106,-0.575,-0.120
1107,-0.570,-0.125
1108,-0.570,-0.110
1109,-0.555,-0.095
1110,-0.550,-0.120
1111,-0.555,-0.115
1112,-0.550,-0.145
1113,-0.560,-0.140
1114,-0.560,-0.130
1115,-0.545,-0.125
1116,-0.550,-0.125
1117,-0.550,-0.140
1118,-0.565,-0.150
1119,-0.550,-0.140
1120,-0.555,-0.135
1121,-0.540,-0.120
1122,-0.565,-0.125
1123,-0.575,-0.145
1124,-0.595,-0.145
1125,-0.615,-0.140
1126,-0.620,-0.125
1127,-0.605,-0.135
1128,-0.580,-0.140
1129,-0.585,-0.150
1130,-0.585,-0.150
1131,-0.595,-0.140
1132,-0.600,-0.130
1133,-0.590,-0.135
1134,-0.605,-0.130
1135,-0.600,-0.145
1136,-0.585,-0.150
1137,-0.580,-0.135
1138,-0.575,-0.130
1139,-0.575,-0.135
1140,-0.590,-0.120
1141,-0.595,-0.130
1142,-0.615,-0.120
1143,-0.585,-0.135
1144,-0.565,-0.115
1145,-0.545,-0.105
1146,-0.555,-0.110
1147,-0.560,-0.110
1148,-0.570,-0.115
1149,-0.575,-0.115
1150,-0.560,-0.095
1151,-0.570,-0.090
1152,-0.585,-0.105
1153,-0.590,-0.105
1154,-0.590,-0.110
1155,-0.590,-0.095
1156,-0.580,-0.080
1157,-0.570,-0.075
1158,-0.550,-0.075
1159,-0.535,-0.085
1160,-0.540,-0.095
1161,-0.550,-0.075
1162,-0.535,-0.065
1163,-0.515,-0.060
1164,-0.515,-0.080
1165,-0.525,-0.075
1166,-0.545,-0.070
1167,-0.565,-0.060
1168,-0.560,-0.055
1169,-0.550,-0.045
1170,-0.515,-0.065
1171,-0.510,-0.065
1172,-0.510,-0.065
1173,-0.530,-0.065
1174,-0.515,-0.060
1175,-0.515,-0.060
1176,-0.500,-0.065
1177,-0.495,-0.060
1178,-0.495,-0.070
1179,-0.490,-0.080
1180,-0.490,-0.065
1181,-0.480,-0.060
1182,-0.475,-0.060
1183,-0.470,-0.065
1184,-0.470,-0.085
1185,-0.465,-0.070
1186,-0.465,-0.065
1187,-0.455,-0.070
1188,-0.460,-0.090
1189,-0.450,-0.085
1190,-0.435,-0.090
1191,-0.440,-0.100
1192,-0.425,-0.110
1193,-0.405,-0.145
1194,-0.400,-0.260
1195,-0.380,-0.545
1196,-0.325,-0.955
1197,-0.215,-1.125
1198,0.050,-0.900
1199,0.540,-0.615
1200,1.150,-0.470
1201,1.595,-0.455
1202,1.705,-0.450
1203,1.570,-0.420
1204,1.430,-0.390
1205,1.360,-0.375
1206,1.315,-0.380
1207,1.250,-0.405
1208,1.160,-0.415
1209,1.055,-0.425
1210,0.965,-0.425
1211,0.885,-0.440
1212,0.795,-0.455
1213,0.715,-0.480
1214,0.600,-0.520
1215,0.470,-0.525
1216,0.340,-0.530
1217,0.215,-0.535
1218,0.065,-0.570
1219,-0.095,-0.610
1220,-0.265,-0.685
1221,-0.435,-0.750
1222,-0.615,-0.805
1223,-0.820,-0.860
1224,-1.025,-0.880
1225,-1.240,-0.935
1226,-1.425,-0.990
1227,-1.600,-1.070
1228,-1.745,-1.190
1229,-1.900,-1.310
1230,-2.005,-1.430
1231,-2.085,-1.515
1232,-2.140,-1.570
1233,-2.170,-1.645
1234,-2.190,-1.705
1235,-2.230,-1.785
1236,-2.295,-1.895
1237,-2.395,-2.005
1238,-2.470,-2.110
1239,-2.550,-2.240
1240,-2.590,-2.340
1241,-2.640,-2.365
1242,-2.680,-2.270
1243,-2.685,-2.130
1244,-2.610,-1.985
1245,-2.460,-1.815
1246,-2.265,-1.650
1247,-2.070,-1.485
1248,-1.870,-1.325
1249,-1.685,-1.180
1250,-1.545,-1.085
1251,-1.460,-0.950
1252,-1.385,-0.820
1253,-1.315,-0.685
1254,-1.230,-0.575
1255,-1.170,-0.495
1256,-1.120,-0.425
1257,-1.065,-0.345
1258,-1.000,-0.255
1259,-0.955,-0.180
1260,-0.940,-0.125
1261,-0.935,-0.080
1262,-0.935,-0.045
1263,-0.915,0.015
1264,-0.845,0.055
1265,-0.775,0.090
1266,-0.700,0.120
1267,-0.655,0.150
1268,-0.605,0.180
1269,-0.550,0.220
1270,-0.495,0.260
1271,-0.435,0.285
1272,-0.375,0.325
1273,-0.320,0.335
1274,-0.240,0.340
1275,-0.165,0.370
1276,-0.095,0.390
1277,-0.045,0.405
1278,0.015,0.395
1279,0.060,0.405
1280,0.090,0.400
1281,0.120,0.420
1282,0.145,0.445
1283,0.175,0.450
1284,0.185,0.465
1285,0.195,0.460
1286,0.200,0.455
1287,0.230,0.475
1288,0.255,0.490
1289,0.285,0.505
1290,0.285,0.515
1291,0.300,0.515
1292,0.310,0.530
1293,0.340,0.540
1294,0.380,0.575
1295,0.410,0.605
1296,0.435,0.635
1297,0.460,0.655
1298,0.485,0.685
1299,0.515,0.705
1300,0.540,0.750
1301,0.580,0.760
1302,0.625,0.775
1303,0.655,0.785
1304,0.710,0.795
1305,0.765,0.825
1306,0.825,0.855
1307,0.895,0.885
1308,0.930,0.890
1309,0.980,0.875
1310,1.005,0.845
1311,1.040,0.835
1312,1.080,0.820
1313,1.105,0.820
1314,1.145,0.820
1315,1.170,0.815
1316,1.195,0.780
1317,1.195,0.785
1318,1.195,0.795
1319,1.195,0.805
1320,1.195,0.790
1321,1.200,0.790
1322,1.200,0.780
1323,1.210,0.805
1324,1.200,0.810
1325,1.220,0.830
1326,1.225,0.830
1327,1.210,0.810
1328,1.185,0.805
1329,1.175,0.800
1330,1.175,0.815
1331,1.160,0.790
1332,1.125,0.780
1333,1.080,0.775
1334,1.045,0.745
1335,1.005,0.755
1336,0.975,0.750
1337,0.945,0.735
1338,0.895,0.720
1339,0.850,0.675
1340,0.795,0.655
1341,0.745,0.620
1342,0.700,0.600
1343,0.665,0.570
1344,0.635,0.535
1345,0.570,0.500
1346,0.530,0.455
1347,0.475,0.435
1348,0.430,0.410
1349,0.380,0.390
1350,0.325,0.355
1351,0.275,0.340
1352,0.225,0.305
1353,0.180,0.275
1354,0.140,0.270
1355,0.105,0.250
1356,0.045,0.225
1357,-0.005,0.190
1358,-0.070,0.175
1359,-0.110,0.165
1360,-0.140,0.160
1361,-0.160,0.160
1362,-0.195,0.140
1363,-0.245,0.125
1364,-0.280,0.115
1365,-0.320,0.100
1366,-0.345,0.105
1367,-0.370,0.100
1368,-0.400,0.105
1369,-0.435,0.085
1370,-0.455,0.075
1371,-0.475,0.090
1372,-0.480,0.085
1373,-0.490,0.095
1374,-0.505,0.080
1375,-0.535,0.080
1376,-0.545,0.065
1377,-0.565,0.070
1378,-0.570,0.085
1379,-0.570,0.085
1380,-0.580,0.080
1381,-0.595,0.070
1382,-0.620,0.070
1383,-0.640,0.065
1384,-0.630,0.085
1385,-0.635,0.095
1386,-0.630,0.095
1387,-0.640,0.085
1388,-0.665,0.080
1389,-0.655,0.080
1390,-0.660,0.090
1391,-0.650,0.090
1392,-0.660,0.095
1393,-0.665,0.100
1394,-0.680,0.095
1395,-0.690,0.105
1396,-0.675,0.115
1397,-0.675,0.115
1398,-0.675,0.110
1399,-0.690,0.120
1400,-0.690,0.100
1401,-0.690,0.105
1402,-0.675,0.120
1403,-0.680,0.135
1404,-0.690,0.130
1405,-0.690,0.115
1406,-0.705,0.110
1407,-0.690,0.130
1408,-0.675,0.145
1409,-0.665,0.150
1410,-0.665,0.145
1411,-0.660,0.140
1412,-0.675,0.135
1413,-0.675,0.140
1414,-0.670,0.155
1415,-0.660,0.170
1416,-0.645,0.170
1417,-0.660,0.155
1418,-0.670,0.155
1419,-0.670,0.165
1420,-0.655,0.170
1421,-0.645,0.160
1422,-0.640,0.150
1423,-0.640,0.145
1424,-0.645,0.150
1425,-0.645,0.150
1426,-0.640,0.145
1427,-0.620,0.150
1428,-0.620,0.150
1429,-0.625,0.145
1430,-0.610,0.135
1431,-0.625,0.140
1432,-0.605,0.155
1433,-0.605,0.155
1434,-0.610,0.135
1435,-0.610,0.130
1436,-0.615,0.120
1437,-0.615,0.125
1438,-0.605,0.125
1439,-0.595,0.145
1440,-0.600,0.135
1441,-0.595,0.120
1442,-0.600,0.110
1443,-0.605,0.105
1444,-0.585,0.120
1445,-0.570,0.125
1446,-0.570,0.115
1447,-0.585,0.105
1448,-0.600,0.105
1449,-0.610,0.105
1450,-0.605,0.115
1451,-0.595,0.115
1452,-0.595,0.115
1453,-0.605,0.100
1454,-0.600,0.095
1455,-0.610,0.110
1456,-0.590,0.110
1457,-0.585,0.120
1458,-0.580,0.095
1459,-0.585,0.090
1460,-0.595,0.095
1461,-0.600,0.095
1462,-0.595,0.095
1463,-0.585,0.110
1464,-0.585,0.105
1465,-0.590,0.095
1466,-0.590,0.090
1467,-0.580,0.090
1468,-0.575,0.105
1469,-0.565,0.100
1470,-0.565,0.100
1471,-0.580,0.080
1472,-0.580,0.090
1473,-0.580,0.085
1474,-0.570,0.095
1475,-0.565,0.100
1476,-0.560,0.090
1477,-0.575,0.080
1478,-0.585,0.080
1479,-0.590,0.090
1480,-0.555,0.100
1481,-0.555,0.095
1482,-0.565,0.090
1483,-0.560,0.075
1484,-0.555,0.070
1485,-0.550,0.085
1486,-0.535,0.095
1487,-0.530,0.095
1488,-0.540,0.090
1489,-0.550,0.080
1490,-0.545,0.065
1491,-0.565,0.075
1492,-0.555,0.085
1493,-0.540,0.075
1494,-0.540,0.075
1495,-0.540,0.065
1496,-0.530,0.060
1497,-0.535,0.060
1498,-0.535,0.070
1499,-0.520,0.075
1500,-0.510,0.060
1501,-0.510,0.040
1502,-0.515,0.025
1503,-0.520,0.030
1504,-0.485,0.020
1505,-0.470,0.005
1506,-0.465,-0.025
1507,-0.445,-0.105
1508,-0.445,-0.315
1509,-0.420,-0.710
1510,-0.350,-1.035
1511,-0.190,-0.950
1512,0.155,-0.655
1513,0.715,-0.435
1514,1.300,-0.390
1515,1.595,-0.360
1516,1.550,-0.345
1517,1.370,-0.310
1518,1.260,-0.310
1519,1.185,-0.325
1520,1.125,-0.340
1521,1.025,-0.345
1522,0.925,-0.350
1523,0.810,-0.380
1524,0.705,-0.400
1525,0.595,-0.435
1526,0.475,-0.455
1527,0.350,-0.460
1528,0.245,-0.470
1529,0.105,-0.490
1530,-0.070,-0.525
1531,-0.260,-0.570
1532,-0.450,-0.620
1533,-0.640,-0.670
1534,-0.835,-0.725
1535,-1.030,-0.780
1536,-1.280,-0.830
1537,-1.510,-0.880
1538,-1.715,-0.930
1539,-1.895,-0.985
1540,-2.065,-1.070
1541,-2.195,-1.205
1542,-2.295,-1.345
1543,-2.395,-1.465
1544,-2.460,-1.555
1545,-2.485,-1.600
1546,-2.510,-1.680
1547,-2.540,-1.760
1548,-2.615,-1.865
1549,-2.690,-1.965
1550,-2.760,-2.075
1551,-2.820,-2.185
1552,-2.875,-2.295
1553,-2.910,-2.335
1554,-2.945,-2.270
1555,-2.940,-2.145
1556,-2.845,-1.980
1557,-2.665,-1.790
1558,-2.440,-1.550
1559,-2.200,-1.355
1560,-1.975,-1.165
1561,-1.770,-1.010
1562,-1.625,-0.880
1563,-1.535,-0.745
1564,-1.425,-0.595
1565,-1.330,-0.455
1566,-1.220,-0.335
1567,-1.105,-0.245
1568,-1.015,-0.155
1569,-0.925,-0.075
1570,-0.845,-0.020
1571,-0.780,0.010
1572,-0.730,0.020
1573,-0.675,0.010
1574,-0.630,0.025
1575,-0.550,0.045
1576,-0.445,0.065
1577,-0.355,0.090
1578,-0.315,0.095
1579,-0.295,0.105
1580,-0.260,0.130
1581,-0.220,0.150
1582,-0.150,0.190
1583,-0.080,0.200
1584,-0.005,0.225
1585,0.070,0.235
1586,0.105,0.245
1587,0.160,0.250
1588,0.220,0.270
1589,0.270,0.295
1590,0.290,0.290
1591,0.310,0.280
1592,0.290,0.290
1593,0.275,0.315
1594,0.280,0.340
1595,0.270,0.370
1596,0.265,0.375
1597,0.255,0.385
1598,0.240,0.380
1599,0.245,0.385
1600,0.255,0.395
1601,0.270,0.400
1602,0.270,0.405
1603,0.275,0.405
1604,0.255,0.390
1605,0.270,0.415
1606,0.305,0.420
1607,0.320,0.450
1608,0.325,0.450
1609,0.320,0.460
1610,0.340,0.470
1611,0.355,0.495
1612,0.390,0.520
1613,0.415,0.535
1614,0.450,0.540
1615,0.480,0.555
1616,0.500,0.560
1617,0.515,0.590
1618,0.550,0.620
1619,0.590,0.625
1620,0.615,0.635
1621,0.640,0.645
1622,0.665,0.645
1623,0.685,0.670
1624,0.715,0.695
1625,0.745,0.710
1626,0.760,0.720
1627,0.770,0.720
1628,0.775,0.725
1629,0.785,0.740
1630,0.805,0.750
1631,0.825,0.760
1632,0.830,0.755
1633,0.815,0.755
1634,0.810,0.760
1635,0.810,0.740
1636,0.820,0.750
1637,0.825,0.745
1638,0.800,0.725
1639,0.775,0.710
1640,0.755,0.690
1641,0.735,0.680
1642,0.700,0.665
1643,0.675,0.640
1644,0.655,0.620
1645,0.615,0.595
1646,0.595,0.555
1647,0.540,0.535
1648,0.525,0.520
1649,0.475,0.490
1650,0.430,0.465
1651,0.375,0.435
1652,0.335,0.390
1653,0.280,0.370
1654,0.240,0.355
1655,0.200,0.335
1656,0.155,0.300
1657,0.100,0.260
1658,0.045,0.240
1659,0.000,0.220
1660,-0.035,0.210
1661,-0.065,0.185
1662,-0.125,0.165
1663,-0.175,0.145
1664,-0.235,0.130
1665,-0.275,0.130
1666,-0.305,0.130
1667,-0.335,0.120
1668,-0.375,0.100
1669,-0.415,0.085
1670,-0.465,0.075
1671,-0.490,0.080
1672,-0.490,0.080
1673,-0.500,0.090
1674,-0.540,0.085
1675,-0.570,0.060
1676,-0.595,0.060
1677,-0.615,0.070
1678,-0.620,0.075
1679,-0.620,0.070
1680,-0.630,0.065
1681,-0.640,0.060
1682,-0.655,0.045
1683,-0.665,0.055
1684,-0.665,0.080
1685,-0.665,0.075
1686,-0.680,0.070
1687,-0.690,0.065
1688,-0.705,0.070
1689,-0.710,0.075
1690,-0.690,0.080
1691,-0.690,0.085
1692,-0.695,0.090
1693,-0.695,0.075
1694,-0.710,0.080
1695,-0.705,0.070
1696,-0.705,0.090
1697,-0.680,0.110
1698,-0.710,0.095
1699,-0.725,0.085
1700,-0.720,0.075
1701,-0.730,0.080
1702,-0.710,0.085
1703,-0.710,0.095
1704,-0.705,0.085
1705,-0.705,0.085
1706,-0.695,0.080
1707,-0.705,0.095
1708,-0.685,0.100
1709,-0.675,0.110
1710,-0.680,0.095
1711,-0.690,0.090
1712,-0.700,0.090
1713,-0.695,0.090
1714,-0.680,0.095
1715,-0.670,0.100
1716,-0.680,0.100
1717,-0.675,0.085
1718,-0.670,0.080
1719,-0.675,0.090
1720,-0.660,0.100
1721,-0.645,0.100
1722,-0.650,0.095
1723,-0.655,0.085
1724,-0.665,0.070
1725,-0.655,0.085
1726,-0.640,0.090
1727,-0.615,0.085
1728,-0.630,0.090
1729,-0.640,0.090
1730,-0.655,0.070
1731,-0.650,0.085
1732,-0.645,0.075
1733,-0.620,0.075
1734,-0.620,0.065
1735,-0.610,0.070
1736,-0.630,0.050
1737,-0.645,0.050
1738,-0.635,0.065
1739,-0.630,0.070
1740,-0.625,0.055
1741,-0.630,0.050
1742,-0.640,0.050
1743,-0.640,0.040
1744,-0.625,0.055
1745,-0.625,0.060
1746,-0.635,0.060
1747,-0.635,0.045
1748,-0.640,0.030
1749,-0.645,0.045
1750,-0.635,0.050
1751,-0.625,0.060
1752,-0.635,0.055
1753,-0.630,0.040
1754,-0.630,0.015
1755,-0.635,0.030
1756,-0.625,0.025
1757,-0.635,0.040
1758,-0.635,0.045
1759,-0.645,0.030
1760,-0.650,0.015
1761,-0.640,0.025
1762,-0.625,0.045
1763,-0.610,0.045
1764,-0.610,0.035
1765,-0.615,0.030
1766,-0.625,0.020
1767,-0.630,0.010
1768,-0.630,0.035
1769,-0.625,0.040
1770,-0.605,0.030
1771,-0.610,0.015
1772,-0.615,0.015
1773,-0.630,0.025
1774,-0.605,0.030
1775,-0.600,0.040
1776,-0.600,0.035
1777,-0.610,0.020
1778,-0.620,0.015
1779,-0.630,0.030
1780,-0.615,0.035
1781,-0.580,0.030
1782,-0.590,0.035
1783,-0.600,0.020
1784,-0.610,0.005
1785,-0.610,0.010
1786,-0.600,0.015
1787,-0.605,0.020
1788,-0.595,0.030
1789,-0.605,0.000
1790,-0.600,-0.010
1791,-0.605,0.005
1792,-0.575,0.020
1793,-0.575,0.020
1794,-0.585,0.005
1795,-0.585,0.000
1796,-0.585,-0.010
1797,-0.580,0.005
1798,-0.565,0.010
1799,-0.555,0.000
1800,-0.560,0.000
1801,-0.570,-0.030
1802,-0.575,-0.030
1803,-0.575,-0.040
1804,-0.560,-0.030
1805,-0.540,-0.045
1806,-0.525,-0.065
1807,-0.505,-0.115
1808,-0.485,-0.225
1809,-0.470,-0.500
1810,-0.425,-0.875
1811,-0.315,-0.945
1812,-0.075,-0.665
1813,0.410,-0.380
1814,1.025,-0.255
1815,1.445,-0.195
1816,1.460,-0.170
1817,1.280,-0.160
1818,1.115,-0.130
1819,1.075,-0.135
1820,1.035,-0.145
1821,1.000,-0.140
1822,0.930,-0.160
1823,0.845,-0.180
1824,0.745,-0.250
1825,0.640,-0.330
1826,0.540,-0.395
1827,0.445,-0.435
1828,0.375,-0.465
1829,0.285,-0.485
1830,0.135,-0.525
1831,-0.040,-0.590
1832,-0.230,-0.645
1833,-0.450,-0.695
1834,-0.655,-0.760
1835,-0.860,-0.840
1836,-1.105,-0.900
1837,-1.370,-0.960
1838,-1.605,-0.985
1839,-1.810,-1.055
1840,-1.980,-1.160
1841,-2.130,-1.285
1842,-2.255,-1.430
1843,-2.320,-1.565
1844,-2.390,-1.655
1845,-2.440,-1.725
1846,-2.450,-1.795
1847,-2.500,-1.865
1848,-2.610,-1.955
1849,-2.710,-2.035
1850,-2.790,-2.130
1851,-2.865,-2.240
1852,-2.910,-2.340
1853,-2.945,-2.375
1854,-2.960,-2.305
1855,-2.950,-2.175
1856,-2.870,-2.015
1857,-2.695,-1.860
1858,-2.490,-1.670
1859,-2.305,-1.510
1860,-2.135,-1.350
1861,-1.980,-1.230
1862,-1.850,-1.125
1863,-1.735,-0.975
1864,-1.625,-0.835
1865,-1.515,-0.700
1866,-1.425,-0.610
1867,-1.355,-0.520
1868,-1.290,-0.455
1869,-1.220,-0.370
1870,-1.180,-0.275
1871,-1.145,-0.245
1872,-1.135,-0.205
1873,-1.115,-0.170
1874,-1.085,-0.120
1875,-1.050,-0.070
1876,-0.955,-0.050
1877,-0.890,-0.005
1878,-0.810,0.030
1879,-0.755,0.050
1880,-0.700,0.065
1881,-0.640,0.105
1882,-0.540,0.150
1883,-0.450,0.170
1884,-0.380,0.185
1885,-0.335,0.180
1886,-0.280,0.200
1887,-0.230,0.215
1888,-0.170,0.230
1889,-0.090,0.240
1890,-0.045,0.250
1891,-0.020,0.250
1892,-0.010,0.250
1893,0.010,0.275
1894,0.030,0.290
1895,0.065,0.305
1896,0.075,0.320
1897,0.095,0.315
1898,0.110,0.315
1899,0.125,0.340
1900,0.160,0.365
1901,0.175,0.380
1902,0.195,0.380
1903,0.205,0.385
1904,0.225,0.385
1905,0.240,0.410
1906,0.265,0.440
1907,0.290,0.450
1908,0.325,0.450
1909,0.355,0.460
1910,0.390,0.470
1911,0.415,0.490
1912,0.465,0.515
1913,0.475,0.535
1914,0.510,0.540
1915,0.535,0.545
1916,0.570,0.550
1917,0.600,0.575
1918,0.645,0.600
1919,0.695,0.610
1920,0.720,0.625
1921,0.750,0.630
1922,0.770,0.630
1923,0.800,0.650
1924,0.865,0.660
1925,0.895,0.680
1926,0.915,0.690
1927,0.940,0.680
1928,0.940,0.680
1929,0.965,0.695
1930,0.990,0.715
1931,1.010,0.710
1932,1.020,0.705
1933,1.020,0.695
1934,1.010,0.680
1935,1.015,0.680
1936,1.025,0.690
1937,1.035,0.675
1938,1.020,0.665
1939,1.000,0.640
1940,0.975,0.615
1941,0.945,0.615
1942,0.915,0.600
1943,0.890,0.580
1944,0.855,0.555
1945,0.830,0.515
1946,0.785,0.480
1947,0.750,0.465
1948,0.725,0.440
1949,0.680,0.425
1950,0.635,0.385
1951,0.590,0.335
1952,0.545,0.315
1953,0.485,0.295
1954,0.455,0.285
1955,0.420,0.255
1956,0.375,0.220
1957,0.320,0.180
1958,0.270,0.155
1959,0.210,0.140
1960,0.170,0.120
1961,0.145,0.105
1962,0.090,0.090
1963,0.045,0.055
1964,-0.005,0.045
1965,-0.050,0.045
1966,-0.080,0.030
1967,-0.115,0.030
1968,-0.165,0.015
1969,-0.220,-0.020
1970,-0.275,-0.020
1971,-0.300,-0.010
1972,-0.320,-0.030
1973,-0.340,-0.035
1974,-0.350,-0.030
1975,-0.370,-0.030
1976,-0.385,-0.040
1977,-0.420,-0.035
1978,-0.440,-0.025
1979,-0.425,-0.035
1980,-0.420,-0.030
1981,-0.405,-0.050
1982,-0.415,-0.060
1983,-0.445,-0.040
1984,-0.465,-0.035
1985,-0.455,-0.030
1986,-0.465,-0.040
1987,-0.485,-0.055
1988,-0.495,-0.055
1989,-0.505,-0.045
1990,-0.495,-0.030
1991,-0.490,-0.020
1992,-0.525,-0.025
1993,-0.530,-0.040
1994,-0.545,-0.050
1995,-0.545,-0.040
1996,-0.515,-0.035
1997,-0.485,-0.025
1998,-0.490,-0.025
1999,-0.500,-0.030
2000,-0.505,-0.030
2001,-0.510,-0.015
2002,-0.500,-0.030
2003,-0.505,-0.015
2004,-0.540,-0.030
2005,-0.550,-0.020
2006,-0.520,-0.025
2007,-0.495,-0.020
2008,-0.495,-0.015
2009,-0.510,-0.010
2010,-0.505,0.000
2011,-0.485,-0.020
2012,-0.490,-0.025
2013,-0.495,-0.025
2014,-0.490,-0.010
2015,-0.480,0.000
2016,-0.480,-0.010
2017,-0.495,-0.030
2018,-0.505,-0.040
2019,-0.505,-0.035
2020,-0.490,0.000
2021,-0.480,-0.015
2022,-0.485,-0.030
2023,-0.480,-0.040
2024,-0.490,-0.040
2025,-0.475,-0.040
2026,-0.465,-0.030
2027,-0.455,-0.035
2028,-0.455,-0.045
2029,-0.465,-0.055
2030,-0.490,-0.060
2031,-0.490,-0.055
2032,-0.495,-0.060
2033,-0.450,-0.055
2034,-0.445,-0.055
2035,-0.440,-0.060
2036,-0.455,-0.090
2037,-0.470,-0.065
2038,-0.470,-0.075
2039,-0.485,-0.060
2040,-0.480,-0.075
2041,-0.490,-0.075
2042,-0.495,-0.085
2043,-0.485,-0.075
2044,-0.475,-0.080
2045,-0.470,-0.075
2046,-0.485,-0.090
2047,-0.495,-0.090
2048,-0.500,-0.110
2049,-0.505,-0.100
2050,-0.490,-0.090
2051,-0.485,-0.090
2052,-0.490,-0.100
2053,-0.495,-0.105
2054,-0.495,-0.110
2055,-0.495,-0.105
2056,-0.490,-0.090
2057,-0.485,-0.100
2058,-0.495,-0.100
2059,-0.505,-0.105
2060,-0.520,-0.095
2061,-0.510,-0.080
2062,-0.500,-0.040
2063,-0.475,-0.010
2064,-0.485,0.005
2065,-0.455,0.020
2066,-0.460,0.030
2067,-0.435,0.045
2068,-0.410,0.060
2069,-0.395,0.080
2070,-0.370,0.085
2071,-0.315,0.100
2072,-0.270,0.105
2073,-0.245,0.100
2074,-0.205,0.090
2075,-0.185,0.045
2076,-0.190,-0.005
2077,-0.195,-0.045
2078,-0.185,-0.070
2079,-0.170,-0.080
2080,-0.130,-0.085
2081,-0.080,-0.095
2082,-0.090,-0.125
2083,-0.110,-0.140
2084,-0.135,-0.155
2085,-0.160,-0.155
2086,-0.165,-0.165
2087,-0.170,-0.180
2088,-0.175,-0.175
2089,-0.180,-0.160
2090,-0.195,-0.165
2091,-0.190,-0.175
2092,-0.195,-0.160
2093,-0.215,-0.170
2094,-0.230,-0.175
2095,-0.230,-0.190
2096,-0.255,-0.200
2097,-0.280,-0.195
2098,-0.295,-0.175
2099,-0.310,-0.180
2100,-0.330,-0.170
2101,-0.365,-0.165
2102,-0.395,-0.180
2103,-0.415,-0.175
2104,-0.425,-0.200
2105,-0.425,-0.215
2106,-0.435,-0.260
2107,-0.430,-0.355
2108,-0.430,-0.635
2109,-0.400,-1.015
2110,-0.275,-1.155
2111,0.020,-0.925
2112,0.540,-0.640
2113,1.175,-0.530
2114,1.545,-0.530
2115,1.460,-0.525
2116,1.210,-0.490
2117,1.045,-0.480
2118,0.980,-0.490
2119,0.905,-0.520
2120,0.800,-0.545
2121,0.695,-0.545
2122,0.590,-0.565
2123,0.485,-0.585
2124,0.350,-0.605
2125,0.235,-0.635
2126,0.125,-0.675
2127,0.015,-0.675
2128,-0.125,-0.665
2129,-0.280,-0.700
2130,-0.455,-0.740
2131,-0.595,-0.815
2132,-0.735,-0.890
2133,-0.880,-0.955
2134,-1.015,-1.010
2135,-1.160,-1.055
2136,-1.355,-1.115
2137,-1.580,-1.200
2138,-1.795,-1.280
2139,-1.975,-1.380
2140,-2.135,-1.530
2141,-2.255,-1.670
2142,-2.300,-1.790
2143,-2.340,-1.895
2144,-2.375,-1.970
2145,-2.395,-2.035
2146,-2.420,-2.130
2147,-2.470,-2.215
2148,-2.565,-2.305
2149,-2.650,-2.390
2150,-2.725,-2.465
2151,-2.770,-2.525
2152,-2.815,-2.565
2153,-2.855,-2.530
2154,-2.875,-2.395
2155,-2.835,-2.240
2156,-2.735,-2.070
2157,-2.540,-1.900
2158,-2.320,-1.720
2159,-2.115,-1.535
2160,-1.920,-1.380
2161,-1.755,-1.235
2162,-1.640,-1.075
2163,-1.565,-0.935
2164,-1.475,-0.810
2165,-1.400,-0.690
2166,-1.355,-0.605
2167,-1.310,-0.515
2168,-1.265,-0.455
2169,-1.240,-0.380
2170,-1.205,-0.305
2171,-1.155,-0.240
2172,-1.100,-0.185
2173,-1.055,-0.155
2174,-1.000,-0.105
2175,-0.910,-0.050
2176,-0.810,-0.010
2177,-0.755,0.015
2178,-0.730,0.030
2179,-0.700,0.055
2180,-0.595,0.090
2181,-0.450,0.110
2182,-0.300,0.155
2183,-0.225,0.160
2184,-0.205,0.180
2185,-0.175,0.175
2186,-0.125,0.180
2187,-0.055,0.195
2188,0.000,0.200
2189,0.020,0.215
2190,0.050,0.230
2191,0.065,0.225
2192,0.080,0.245
2193,0.095,0.245
2194,0.120,0.275
2195,0.165,0.270
2196,0.200,0.280
2197,0.230,0.280
2198,0.255,0.285
2199,0.295,0.300
2200,0.325,0.330
2201,0.360,0.340
2202,0.370,0.355
2203,0.395,0.360
2204,0.410,0.365
2205,0.435,0.380
2206,0.470,0.395
2207,0.515,0.410
2208,0.545,0.425
2209,0.550,0.425
2210,0.590,0.435
2211,0.615,0.465
2212,0.645,0.480
2213,0.700,0.490
2214,0.740,0.505
2215,0.775,0.505
2216,0.810,0.515
2217,0.825,0.540
2218,0.860,0.565
2219,0.900,0.575
2220,0.920,0.590
2221,0.940,0.585
2222,0.955,0.595
2223,0.970,0.605
2224,1.000,0.630
2225,1.025,0.630
2226,1.015,0.635
2227,1.030,0.630
2228,1.020,0.630
2229,1.015,0.640
2230,1.020,0.645
2231,1.030,0.635
2232,1.015,0.630
2233,1.005,0.610
2234,0.995,0.600
2235,0.975,0.590
2236,0.950,0.585
2237,0.945,0.590
2238,0.910,0.560
2239,0.875,0.525
2240,0.835,0.500
2241,0.800,0.490
2242,0.780,0.485
2243,0.750,0.460
2244,0.700,0.415
2245,0.660,0.380
2246,0.600,0.340
2247,0.560,0.325
2248,0.530,0.300
2249,0.495,0.275
2250,0.445,0.245
2251,0.395,0.200
2252,0.355,0.165
2253,0.295,0.150
2254,0.260,0.135
2255,0.225,0.120
2256,0.175,0.080
2257,0.120,0.050
2258,0.060,0.030
2259,0.010,0.020
2260,-0.020,0.020
2261,-0.055,0.005
2262,-0.095,-0.010
2263,-0.140,-0.035
2264,-0.185,-0.050
2265,-0.225,-0.055
2266,-0.255,-0.055
2267,-0.270,-0.050
2268,-0.295,-0.060
2269,-0.325,-0.085
2270,-0.355,-0.090
2271,-0.375,-0.090
2272,-0.385,-0.065
2273,-0.405,-0.070
2274,-0.415,-0.070
2275,-0.440,-0.085
2276,-0.460,-0.085
2277,-0.480,-0.080
2278,-0.455,-0.070
2279,-0.460,-0.070
2280,-0.470,-0.065
2281,-0.480,-0.085
2282,-0.490,-0.095
2283,-0.500,-0.085
2284,-0.495,-0.065
2285,-0.495,-0.065
2286,-0.490,-0.060
2287,-0.510,-0.070
2288,-0.520,-0.075
2289,-0.525,-0.070
2290,-0.525,-0.060
2291,-0.515,-0.055
2292,-0.515,-0.055
2293,-0.530,-0.070
2294,-0.525,-0.070
2295,-0.540,-0.065
2296,-0.530,-0.050
2297,-0.525,-0.040
2298,-0.530,-0.045
2299,-0.525,-0.060
2300,-0.535,-0.055
2301,-0.545,-0.055
2302,-0.540,-0.030
2303,-0.525,-0.045
2304,-0.525,-0.030
2305,-0.540,-0.045
2306,-0.535,-0.040
2307,-0.535,-0.015
2308,-0.510,0.020
2309,-0.500,0.040
2310,-0.495,0.060
2311,-0.510,0.085
2312,-0.505,0.100
2313,-0.490,0.120
2314,-0.460,0.130
2315,-0.435,0.130
2316,-0.395,0.160
2317,-0.365,0.155
2318,-0.325,0.175
2319,-0.265,0.200
2320,-0.240,0.205
2321,-0.200,0.175
2322,-0.180,0.140
2323,-0.175,0.080
2324,-0.180,0.050
2325,-0.170,0.035
2326,-0.130,0.020
2327,-0.100,0.000
2328,-0.095,-0.020
2329,-0.110,-0.040
2330,-0.145,-0.060
2331,-0.180,-0.050
2332,-0.185,-0.065
2333,-0.190,-0.080
2334,-0.190,-0.095
2335,-0.205,-0.100
2336,-0.225,-0.100
2337,-0.220,-0.090
2338,-0.225,-0.085
2339,-0.230,-0.085
2340,-0.250,-0.100
2341,-0.265,-0.110
2342,-0.280,-0.120
2343,-0.315,-0.115
2344,-0.345,-0.095
2345,-0.350,-0.095
2346,-0.390,-0.080
2347,-0.420,-0.090
2348,-0.460,-0.075
2349,-0.485,-0.075
2350,-0.505,-0.075
2351,-0.515,-0.090
2352,-0.535,-0.100
2353,-0.550,-0.110
2354,-0.580,-0.115
2355,-0.600,-0.120
2356,-0.610,-0.120
2357,-0.605,-0.120
2358,-0.615,-0.140
2359,-0.650,-0.145
2360,-0.675,-0.145
2361,-0.680,-0.135
2362,-0.680,-0.130
2363,-0.655,-0.125
2364,-0.660,-0.140
2365,-0.665,-0.145
2366,-0.655,-0.150
2367,-0.650,-0.140
2368,-0.645,-0.125
2369,-0.640,-0.135
2370,-0.650,-0.130
2371,-0.670,-0.135
2372,-0.670,-0.150
2373,-0.700,-0.145
2374,-0.690,-0.135
2375,-0.675,-0.125
2376,-0.670,-0.140
2377,-0.675,-0.150
2378,-0.685,-0.155
2379,-0.690,-0.135
2380,-0.685,-0.130
2381,-0.690,-0.125
2382,-0.690,-0.130
2383,-0.700,-0.150
2384,-0.700,-0.145
2385,-0.690,-0.145
2386,-0.680,-0.125
2387,-0.665,-0.130
2388,-0.675,-0.140
2389,-0.690,-0.145
2390,-0.685,-0.150
2391,-0.685,-0.150
2392,-0.680,-0.145
2393,-0.660,-0.140
2394,-0.665,-0.145
2395,-0.670,-0.150
2396,-0.680,-0.160
2397,-0.690,-0.150
2398,-0.670,-0.145
2399,-0.640,-0.145
2400,-0.645,-0.165
2401,-0.635,-0.190
2402,-0.630,-0.220
2403,-0.610,-0.305
2404,-0.580,-0.575
2405,-0.530,-0.995
2406,-0.430,-1.135
2407,-0.225,-0.905
2408,0.230,-0.625
2409,0.865,-0.500
2410,1.410,-0.480
2411,1.475,-0.465
2412,1.265,-0.450
2413,1.080,-0.430
2414,0.980,-0.435
2415,0.920,-0.445
2416,0.880,-0.445
2417,0.790,-0.465
2418,0.680,-0.475
2419,0.590,-0.495
2420,0.495,-0.505
2421,0.420,-0.520
2422,0.345,-0.530
2423,0.250,-0.545
2424,0.145,-0.570
2425,0.020,-0.605
2426,-0.090,-0.625
2427,-0.230,-0.655
2428,-0.345,-0.685
2429,-0.460,-0.745
2430,-0.600,-0.830
2431,-0.775,-0.910
2432,-0.940,-0.970
2433,-1.115,-1.010
2434,-1.275,-1.045
2435,-1.450,-1.095
2436,-1.610,-1.230
2437,-1.820,-1.375
2438,-2.005,-1.530
2439,-2.140,-1.650
2440,-2.215,-1.720
2441,-2.245,-1.790
2442,-2.270,-1.855
2443,-2.300,-1.930
2444,-2.350,-2.010
2445,-2.400,-2.090
2446,-2.470,-2.125
2447,-2.550,-2.215
2448,-2.625,-2.275
2449,-2.690,-2.360
2450,-2.750,-2.415
2451,-2.795,-2.335
2452,-2.800,-2.200
2453,-2.735,-2.040
2454,-2.625,-1.870
2455,-2.480,-1.705
2456,-2.310,-1.535
2457,-2.130,-1.355
2458,-1.925,-1.195
2459,-1.725,-1.050
2460,-1.610,-0.910
2461,-1.520,-0.800
2462,-1.480,-0.675
2463,-1.400,-0.565
2464,-1.315,-0.475
2465,-1.245,-0.415
2466,-1.185,-0.325
2467,-1.135,-0.285
2468,-1.110,-0.215
2469,-1.075,-0.175
2470,-1.060,-0.110
2471,-1.035,-0.090
2472,-1.000,-0.070
2473,-0.945,-0.045
2474,-0.890,-0.025
2475,-0.825,0.025
2476,-0.750,0.065
2477,-0.685,0.095
2478,-0.610,0.130
2479,-0.560,0.150
2480,-0.495,0.165
2481,-0.410,0.200
2482,-0.320,0.220
2483,-0.260,0.245
2484,-0.195,0.255
2485,-0.140,0.255
2486,-0.110,0.260
2487,-0.040,0.275
2488,0.005,0.285
2489,0.040,0.290
2490,0.060,0.310
2491,0.070,0.315
2492,0.080,0.320
2493,0.100,0.335
2494,0.140,0.345
2495,0.165,0.360
2496,0.195,0.370
2497,0.190,0.355
2498,0.200,0.370
2499,0.215,0.385
2500,0.245,0.400
2501,0.280,0.410
2502,0.305,0.420
2503,0.310,0.435
2504,0.325,0.440
2505,0.355,0.455
2506,0.390,0.480
2507,0.440,0.490
2508,0.455,0.500
2509,0.475,0.510
2510,0.490,0.505
2511,0.515,0.535
2512,0.555,0.560
2513,0.595,0.560
2514,0.615,0.570
2515,0.635,0.585
2516,0.665,0.585
2517,0.685,0.615
2518,0.715,0.625
2519,0.755,0.640
2520,0.775,0.650
2521,0.795,0.650
2522,0.810,0.670
2523,0.820,0.680
2524,0.855,0.710
2525,0.875,0.710
2526,0.885,0.710
2527,0.880,0.710
2528,0.895,0.705
2529,0.905,0.715
2530,0.915,0.715
2531,0.920,0.720
2532,0.925,0.720
2533,0.910,0.695
2534,0.900,0.685
2535,0.880,0.695
2536,0.880,0.700
2537,0.870,0.675
2538,0.840,0.645
2539,0.815,0.635
2540,0.790,0.615
2541,0.770,0.595
2542,0.745,0.575
2543,0.730,0.560
2544,0.700,0.535
2545,0.660,0.510
2546,0.605,0.460
2547,0.565,0.445
2548,0.545,0.420
2549,0.510,0.395
2550,0.470,0.365
2551,0.420,0.335
2552,0.365,0.310
2553,0.325,0.260
2554,0.285,0.250
2555,0.245,0.220
2556,0.210,0.195
2557,0.155,0.160
2558,0.095,0.140
2559,0.055,0.130
2560,0.025,0.140
2561,0.000,0.115
2562,-0.045,0.130
2563,-0.090,0.120
2564,-0.110,0.140
2565,-0.130,0.160
2566,-0.150,0.165
2567,-0.150,0.185
2568,-0.180,0.160
2569,-0.190,0.155
2570,-0.205,0.150
2571,-0.190,0.160
2572,-0.160,0.180
2573,-0.125,0.200
2574,-0.095,0.175
2575,-0.080,0.155
2576,-0.070,0.130
2577,-0.085,0.100
2578,-0.075,0.075
2579,-0.055,0.045
2580,-0.050,0.040
2581,-0.070,-0.005
2582,-0.075,-0.005
2583,-0.105,-0.025
2584,-0.150,-0.035
2585,-0.155,-0.040
2586,-0.205,-0.060
2587,-0.225,-0.070
2588,-0.250,-0.080
2589,-0.240,-0.070
2590,-0.245,-0.045
2591,-0.220,-0.035
2592,-0.235,-0.035
2593,-0.270,-0.040
2594,-0.290,-0.035
2595,-0.315,-0.030
2596,-0.315,-0.025
2597,-0.325,-0.030
2598,-0.360,-0.035
2599,-0.395,-0.040
2600,-0.425,-0.030
2601,-0.460,-0.005
2602,-0.480,0.015
2603,-0.505,0.025
2604,-0.535,0.010
2605,-0.560,-0.010
2606,-0.595,-0.025
2607,-0.605,-0.010
2608,-0.615,-0.005
2609,-0.610,0.010
2610,-0.625,-0.020
2611,-0.660,-0.025
2612,-0.670,-0.035
2613,-0.690,-0.040
2614,-0.685,-0.015
2615,-0.685,-0.010
2616,-0.695,-0.025
2617,-0.705,-0.035
2618,-0.715,-0.040
2619,-0.710,-0.020
2620,-0.710,-0.005
2621,-0.695,-0.015
2622,-0.695,-0.015
2623,-0.705,-0.020
2624,-0.720,-0.025
2625,-0.720,-0.035
2626,-0.695,-0.010
2627,-0.705,-0.010
2628,-0.715,-0.025
2629,-0.715,-0.025
2630,-0.720,-0.040
2631,-0.725,-0.030
2632,-0.720,-0.020
2633,-0.720,-0.020
2634,-0.725,-0.035
2635,-0.740,-0.055
2636,-0.755,-0.055
2637,-0.755,-0.050
2638,-0.740,-0.035
2639,-0.740,-0.030
2640,-0.740,-0.035
2641,-0.745,-0.045
2642,-0.755,-0.060
2643,-0.755,-0.055
2644,-0.750,-0.040
2645,-0.745,-0.040
2646,-0.755,-0.040
2647,-0.760,-0.055
2648,-0.775,-0.060
2649,-0.770,-0.040
2650,-0.765,-0.030
2651,-0.750,-0.035
2652,-0.745,-0.040
2653,-0.760,-0.040
2654,-0.780,-0.065
2655,-0.765,-0.040
2656,-0.770,-0.035
2657,-0.750,-0.030
2658,-0.755,-0.035
2659,-0.765,-0.045
2660,-0.765,-0.050
2661,-0.765,-0.030
2662,-0.755,-0.015
2663,-0.760,-0.025
2664,-0.765,-0.020
2665,-0.775,-0.040
2666,-0.770,-0.035
2667,-0.770,-0.030
2668,-0.760,-0.020
2669,-0.755,-0.030
2670,-0.745,-0.010
2671,-0.745,-0.025
2672,-0.755,-0.025
2673,-0.745,-0.015
2674,-0.735,0.005
2675,-0.725,-0.010
2676,-0.725,-0.005
2677,-0.735,-0.020
2678,-0.750,-0.010
2679,-0.740,-0.010
2680,-0.730,0.005
2681,-0.720,-0.005
2682,-0.715,0.005
2683,-0.720,-0.005
2684,-0.720,-0.020
2685,-0.720,-0.015
2686,-0.705,-0.005
2687,-0.695,-0.005
2688,-0.695,-0.020
2689,-0.710,-0.025
2690,-0.715,-0.030
2691,-0.715,-0.025
2692,-0.710,-0.005
2693,-0.695,-0.010
2694,-0.685,-0.015
2695,-0.685,-0.030
2696,-0.690,-0.030
2697,-0.680,-0.030
2698,-0.670,-0.020
2699,-0.660,-0.035
2700,-0.660,-0.030
2701,-0.670,-0.045
2702,-0.665,-0.055
2703,-0.645,-0.055
2704,-0.630,-0.050
2705,-0.620,-0.060
2706,-0.625,-0.070
2707,-0.625,-0.095
2708,-0.630,-0.120
2709,-0.605,-0.185
2710,-0.565,-0.400
2711,-0.515,-0.770
2712,-0.420,-0.980
2713,-0.270,-0.870
2714,0.090,-0.615
2715,0.670,-0.455
2716,1.220,-0.425
2717,1.490,-0.420
2718,1.400,-0.410
2719,1.225,-0.385
2720,1.105,-0.395
2721,1.040,-0.390
2722,1.010,-0.390
2723,0.930,-0.400
2724,0.835,-0.420
2725,0.730,-0.445
2726,0.615,-0.465
2727,0.510,-0.485
2728,0.435,-0.500
2729,0.345,-0.520
2730,0.230,-0.530
2731,0.105,-0.555
2732,-0.025,-0.580
2733,-0.155,-0.585
2734,-0.305,-0.620
2735,-0.435,-0.660
2736,-0.595,-0.715
2737,-0.770,-0.795
2738,-0.960,-0.870
2739,-1.140,-0.905
2740,-1.305,-0.940
2741,-1.480,-0.970
2742,-1.650,-1.015
2743,-1.845,-1.125
2744,-2.010,-1.235
2745,-2.165,-1.350
2746,-2.290,-1.470
2747,-2.345,-1.565
2748,-2.390,-1.630
2749,-2.435,-1.695
2750,-2.485,-1.765
2751,-2.520,-1.820
2752,-2.555,-1.895
2753,-2.595,-1.960
2754,-2.670,-2.035
2755,-2.725,-2.115
2756,-2.780,-2.220
2757,-2.835,-2.315
2758,-2.865,-2.325
2759,-2.880,-2.245
2760,-2.885,-2.105
2761,-2.840,-1.980
2762,-2.740,-1.845
2763,-2.600,-1.665
2764,-2.420,-1.515
2765,-2.250,-1.375
2766,-2.075,-1.255
2767,-1.895,-1.135
2768,-1.745,-0.985
2769,-1.640,-0.860
2770,-1.555,-0.725
2771,-1.475,-0.620
2772,-1.390,-0.520
2773,-1.320,-0.430
2774,-1.245,-0.350
2775,-1.170,-0.270
2776,-1.105,-0.195
2777,-1.080,-0.160
2778,-1.060,-0.120
2779,-1.050,-0.085
2780,-1.030,-0.050
2781,-0.980,-0.015
2782,-0.900,0.035
2783,-0.830,0.055
2784,-0.795,0.090
2785,-0.760,0.120
2786,-0.720,0.140
2787,-0.650,0.180
2788,-0.585,0.215
2789,-0.510,0.240
2790,-0.435,0.255
2791,-0.365,0.270
2792,-0.305,0.275
2793,-0.240,0.290
2794,-0.185,0.300
2795,-0.115,0.320
2796,-0.050,0.325
2797,-0.015,0.325
2798,0.030,0.335
2799,0.045,0.340
2800,0.070,0.365
2801,0.090,0.380
2802,0.105,0.385
2803,0.115,0.380
2804,0.115,0.385
2805,0.130,0.400
2806,0.150,0.425
2807,0.185,0.420
2808,0.195,0.430
2809,0.200,0.415
2810,0.220,0.430
2811,0.240,0.445
2812,0.270,0.465
2813,0.300,0.465
2814,0.320,0.485
2815,0.340,0.485
2816,0.355,0.500
2817,0.380,0.510
2818,0.395,0.530
2819,0.440,0.565
2820,0.475,0.550
2821,0.490,0.570
2822,0.520,0.575
2823,0.540,0.600
2824,0.570,0.630
2825,0.605,0.665
2826,0.650,0.700
2827,0.680,0.725
2828,0.705,0.755
2829,0.750,0.800
2830,0.790,0.825
2831,0.830,0.840
2832,0.895,0.865
2833,0.945,0.860
2834,0.985,0.870
2835,1.040,0.890
2836,1.090,0.905
2837,1.145,0.920
2838,1.170,0.900
2839,1.175,0.880
2840,1.190,0.855
2841,1.190,0.825
2842,1.200,0.815
2843,1.230,0.800
2844,1.255,0.775
2845,1.255,0.745
2846,1.230,0.705
2847,1.190,0.685
2848,1.170,0.695
2849,1.140,0.665
2850,1.115,0.635
2851,1.070,0.610
2852,1.035,0.595
2853,1.015,0.585
2854,0.990,0.575
2855,0.960,0.555
2856,0.925,0.520
2857,0.875,0.480
2858,0.810,0.455
2859,0.760,0.425
2860,0.715,0.415
2861,0.665,0.380
2862,0.610,0.355
2863,0.545,0.320
2864,0.470,0.300
2865,0.415,0.295
2866,0.360,0.280
2867,0.300,0.245
2868,0.225,0.205
2869,0.150,0.180
2870,0.085,0.135
2871,0.020,0.125
2872,-0.035,0.110
2873,-0.075,0.090
2874,-0.130,0.065
2875,-0.195,0.040
2876,-0.260,0.025
2877,-0.310,0.025
2878,-0.340,0.025
2879,-0.380,0.020
2880,-0.415,0.005
2881,-0.460,-0.005
2882,-0.485,-0.010
2883,-0.510,-0.015
2884,-0.530,-0.010
2885,-0.535,-0.015
2886,-0.560,-0.025
2887,-0.565,-0.025
2888,-0.595,-0.025
2889,-0.615,-0.020
2890,-0.630,-0.015
2891,-0.645,-0.010
2892,-0.675,-0.025
2893,-0.680,-0.030
2894,-0.710,-0.040
2895,-0.700,-0.030
2896,-0.690,-0.015
2897,-0.695,-0.010
2898,-0.715,-0.020
2899,-0.715,-0.030
2900,-0.725,-0.030
2901,-0.730,-0.030
2902,-0.740,-0.005
2903,-0.735,-0.010
2904,-0.740,-0.005
2905,-0.740,-0.025
2906,-0.755,-0.030
2907,-0.750,-0.005
2908,-0.755,0.010
2909,-0.740,-0.010
2910,-0.760,0.005
2911,-0.785,-0.005
2912,-0.800,0.000
2913,-0.795,0.000
2914,-0.780,0.020
2915,-0.775,0.020
2916,-0.765,0.015
2917,-0.770,0.010
2918,-0.780,0.010
2919,-0.760,0.030
2920,-0.755,0.035
2921,-0.760,0.030
2922,-0.765,0.035
2923,-0.780,0.030
2924,-0.795,0.025
2925,-0.790,0.040
2926,-0.785,0.055
2927,-0.775,0.055
2928,-0.760,0.045
2929,-0.780,0.025
2930,-0.780,0.030
2931,-0.770,0.050
2932,-0.775,0.055
2933,-0.750,0.050
2934,-0.745,0.050
2935,-0.745,0.035
2936,-0.755,0.045
2937,-0.755,0.040
2938,-0.745,0.045
2939,-0.740,0.055
2940,-0.740,0.055
2941,-0.740,0.050
2942,-0.740,0.040
2943,-0.735,0.045
2944,-0.735,0.030
2945,-0.740,0.040
2946,-0.750,0.040
2947,-0.765,0.035
2948,-0.770,0.030
2949,-0.760,0.040
2950,-0.740,0.055
2951,-0.740,0.050
2952,-0.725,0.040
2953,-0.745,0.030
2954,-0.745,0.035
2955,-0.745,0.045
2956,-0.730,0.055
2957,-0.720,0.045
2958,-0.705,0.035
2959,-0.730,0.025
2960,-0.735,0.015
2961,-0.740,0.030
2962,-0.725,0.040
2963,-0.725,0.045
2964,-0.705,0.050
2965,-0.700,0.020
2966,-0.710,0.015
2967,-0.715,0.020
2968,-0.695,0.030
2969,-0.695,0.030
2970,-0.690,0.020
2971,-0.710,0.025
2972,-0.715,0.015
2973,-0.710,0.015
2974,-0.700,0.030
2975,-0.695,0.030
2976,-0.690,0.005
2977,-0.685,0.000
2978,-0.685,0.000
2979,-0.685,0.005
2980,-0.680,0.015
2981,-0.670,0.005
2982,-0.680,0.005
2983,-0.685,-0.015
2984,-0.680,-0.015
2985,-0.685,0.000
2986,-0.690,0.005
2987,-0.690,0.010
2988,-0.675,0.000
2989,-0.670,-0.010
2990,-0.665,0.000
2991,-0.675,0.005
2992,-0.670,0.005
2993,-0.635,0.005
2994,-0.640,-0.005
2995,-0.655,-0.020
2996,-0.665,-0.020
2997,-0.645,0.000
2998,-0.630,0.010
2999,-0.630,-0.015
3000,-0.620,-0.015
3001,-0.630,-0.030
3002,-0.640,-0.025
3003,-0.655,-0.015
3004,-0.650,-0.005
3005,-0.640,-0.010
3006,-0.630,-0.030
3007,-0.630,-0.040
3008,-0.645,-0.040
3009,-0.640,-0.040
3010,-0.630,-0.030
3011,-0.615,-0.045
3012,-0.610,-0.045
3013,-0.610,-0.065
3014,-0.635,-0.060
3015,-0.620,-0.060
3016,-0.600,-0.065
3017,-0.590,-0.065
3018,-0.585,-0.085
3019,-0.580,-0.110
3020,-0.580,-0.145
3021,-0.555,-0.240
3022,-0.525,-0.500
3023,-0.475,-0.890
3024,-0.410,-1.040
3025,-0.270,-0.875
3026,0.040,-0.625
3027,0.590,-0.465
3028,1.145,-0.440
3029,1.415,-0.430
3030,1.360,-0.420
3031,1.180,-0.405
3032,1.045,-0.395
3033,0.995,-0.395
3034,0.940,-0.390
3035,0.860,-0.405
3036,0.770,-0.440
3037,0.665,-0.460
3038,0.555,-0.490
3039,0.450,-0.495
3040,0.340,-0.520
3041,0.235,-0.525
3042,0.120,-0.550
3043,0.015,-0.580
3044,-0.125,-0.605
3045,-0.280,-0.610
3046,-0.425,-0.615
3047,-0.590,-0.645
3048,-0.785,-0.690
3049,-0.990,-0.760
3050,-1.205,-0.815
3051,-1.420,-0.860
3052,-1.620,-0.885
3053,-1.825,-0.935
3054,-2.050,-0.990
3055,-2.225,-1.045
3056,-2.385,-1.130
3057,-2.505,-1.220
3058,-2.600,-1.345
3059,-2.670,-1.455
3060,-2.720,-1.545
3061,-2.755,-1.605
3062,-2.795,-1.675
3063,-2.805,-1.740
3064,-2.830,-1.810
3065,-2.885,-1.900
3066,-2.940,-1.980
3067,-3.005,-2.085
3068,-3.060,-2.180
3069,-3.075,-2.255
3070,-3.095,-2.260
3071,-3.105,-2.175
3072,-3.085,-2.065
3073,-3.015,-1.915
3074,-2.875,-1.760
3075,-2.665,-1.580
3076,-2.440,-1.420
3077,-2.225,-1.300
3078,-2.015,-1.165
3079,-1.850,-1.060
3080,-1.725,-0.920
3081,-1.630,-0.810
3082,-1.550,-0.680
3083,-1.465,-0.585
3084,-1.380,-0.505
3085,-1.325,-0.460
3086,-1.260,-0.385
3087,-1.170,-0.300
3088,-1.105,-0.225
3089,-1.055,-0.165
3090,-1.025,-0.090
3091,-0.980,-0.050
3092,-0.940,0.000
3093,-0.875,0.045
3094,-0.785,0.090
3095,-0.685,0.140
3096,-0.605,0.165
3097,-0.535,0.185
3098,-0.470,0.220
3099,-0.380,0.275
3100,-0.280,0.320
3101,-0.200,0.350
3102,-0.095,0.370
3103,-0.015,0.365
3104,0.065,0.350
3105,0.155,0.340
3106,0.225,0.315
3107,0.300,0.295
3108,0.385,0.275
3109,0.460,0.255
3110,0.530,0.245
3111,0.565,0.245
3112,0.565,0.240
3113,0.575,0.230
3114,0.545,0.225
3115,0.545,0.215
3116,0.530,0.210
3117,0.555,0.230
3118,0.590,0.245
3119,0.620,0.250
3120,0.650,0.260
3121,0.655,0.270
3122,0.640,0.250
3123,0.650,0.285
3124,0.665,0.300
3125,0.695,0.305
3126,0.680,0.315
3127,0.670,0.320
3128,0.675,0.330
3129,0.680,0.355
3130,0.705,0.385
3131,0.720,0.405
3132,0.730,0.415
3133,0.725,0.410
3134,0.725,0.415
3135,0.755,0.425
3136,0.780,0.440
3137,0.795,0.445
3138,0.810,0.445
3139,0.815,0.445
3140,0.815,0.455
3141,0.810,0.475
3142,0.855,0.490
3143,0.875,0.510
3144,0.915,0.500
3145,0.935,0.505
3146,0.940,0.510
3147,0.960,0.525
3148,0.985,0.550
3149,1.010,0.545
3150,1.030,0.555
3151,1.030,0.545
3152,1.025,0.540
3153,1.045,0.575
3154,1.055,0.580
3155,1.060,0.580
3156,1.060,0.575
3157,1.035,0.560
3158,1.015,0.560
3159,1.015,0.560
3160,1.005,0.570
3161,0.990,0.555
3162,0.955,0.535
3163,0.920,0.520
3164,0.885,0.510
3165,0.870,0.500
3166,0.865,0.495
3167,0.845,0.470
3168,0.815,0.440
3169,0.770,0.410
3170,0.715,0.385
3171,0.670,0.370
3172,0.645,0.365
3173,0.600,0.335
3174,0.555,0.310
3175,0.495,0.265
3176,0.445,0.235
3177,0.415,0.220
3178,0.370,0.210
3179,0.330,0.180
3180,0.285,0.150
3181,0.225,0.120
3182,0.160,0.095
3183,0.125,0.085
3184,0.090,0.060
3185,0.040,0.035
3186,-0.010,0.020
3187,-0.060,0.000
3188,-0.115,-0.025
3189,-0.155,-0.030
3190,-0.195,-0.025
3191,-0.215,-0.035
3192,-0.280,-0.040
3193,-0.305,-0.055
3194,-0.355,-0.065
3195,-0.360,-0.060
3196,-0.405,-0.060
3197,-0.440,-0.065
3198,-0.490,-0.065
3199,-0.525,-0.075
3200,-0.560,-0.095
3201,-0.570,-0.070
3202,-0.555,-0.070
3203,-0.555,-0.065
3204,-0.575,-0.065
3205,-0.615,-0.075
3206,-0.625,-0.075
3207,-0.630,-0.070
3208,-0.630,-0.050
3209,-0.635,-0.050
3210,-0.650,-0.050
3211,-0.660,-0.055
3212,-0.665,-0.050
3213,-0.670,-0.035
3214,-0.665,-0.030
3215,-0.660,-0.040
3216,-0.680,-0.030
3217,-0.700,-0.045
3218,-0.710,-0.025
3219,-0.710,-0.020
3220,-0.690,-0.015
3221,-0.685,-0.005
3222,-0.680,-0.010
3223,-0.690,-0.015
3224,-0.690,-0.005
3225,-0.680,-0.005
3226,-0.665,0.005
3227,-0.660,-0.005
3228,-0.670,0.000
3229,-0.680,-0.010
3230,-0.710,-0.005
3231,-0.720,0.005
3232,-0.705,0.020
3233,-0.700,0.020
3234,-0.710,0.025
3235,-0.710,0.010
3236,-0.710,0.005
3237,-0.685,0.020
3238,-0.670,0.020
3239,-0.665,0.025
3240,-0.660,0.015
3241,-0.675,0.010
3242,-0.690,0.015
3243,-0.675,0.010
3244,-0.655,0.020
3245,-0.645,0.020
3246,-0.635,0.020
3247,-0.650,0.005
3248,-0.655,0.005
3249,-0.650,0.005
3250,-0.640,0.020
3251,-0.615,0.015
3252,-0.615,0.000
3253,-0.610,-0.005
3254,-0.630,-0.020
3255,-0.640,-0.005
3256,-0.640,0.000
3257,-0.635,-0.010
3258,-0.625,0.000
3259,-0.625,-0.020
3260,-0.625,-0.025
3261,-0.630,-0.010
3262,-0.625,-0.015
3263,-0.615,-0.020
3264,-0.635,-0.020
3265,-0.640,-0.030
3266,-0.660,-0.035
3267,-0.650,-0.025
3268,-0.625,-0.010
3269,-0.625,-0.030
3270,-0.625,-0.030
3271,-0.640,-0.035
3272,-0.650,-0.035
3273,-0.650,-0.035
3274,-0.635,-0.030
3275,-0.620,-0.025
3276,-0.625,-0.035
3277,-0.640,-0.045
3278,-0.650,-0.050
3279,-0.640,-0.035
3280,-0.630,-0.030
3281,-0.630,-0.030
3282,-0.640,-0.035
3283,-0.645,-0.040
3284,-0.640,-0.050
3285,-0.640,-0.045
3286,-0.620,-0.025
3287,-0.600,-0.030
3288,-0.605,-0.050
3289,-0.610,-0.040
3290,-0.620,-0.040
3291,-0.625,-0.040
3292,-0.620,-0.025
3293,-0.620,-0.030
3294,-0.620,-0.025
3295,-0.615,-0.045
3296,-0.630,-0.050
3297,-0.635,-0.050
3298,-0.610,-0.035
3299,-0.595,-0.035
3300,-0.585,-0.035
3301,-0.590,-0.050
3302,-0.595,-0.050
3303,-0.600,-0.035
3304,-0.610,-0.025
3305,-0.615,-0.030
3306,-0.610,-0.030
3307,-0.605,-0.040
3308,-0.600,-0.055
3309,-0.590,-0.050
3310,-0.595,-0.050
3311,-0.595,-0.045
3312,-0.605,-0.035
3313,-0.620,-0.050
3314,-0.610,-0.055
3315,-0.595,-0.045
3316,-0.580,-0.030
3317,-0.575,-0.050
3318,-0.570,-0.050
3319,-0.580,-0.070
3320,-0.590,-0.070
3321,-0.585,-0.055
3322,-0.575,-0.040
3323,-0.560,-0.055
3324,-0.570,-0.045
3325,-0.580,-0.070
3326,-0.585,-0.075
3327,-0.580,-0.075
3328,-0.575,-0.065
3329,-0.565,-0.065
3330,-0.560,-0.070
3331,-0.565,-0.090
3332,-0.565,-0.105
3333,-0.530,-0.110
3334,-0.515,-0.140
3335,-0.490,-0.210
3336,-0.465,-0.455
3337,-0.445,-0.825
3338,-0.370,-1.005
3339,-0.200,-0.830
3340,0.140,-0.565
3341,0.690,-0.420
3342,1.235,-0.395
3343,1.490,-0.390
3344,1.390,-0.390
3345,1.205,-0.360
3346,1.070,-0.345
3347,1.030,-0.355
3348,0.975,-0.370
3349,0.895,-0.400
3350,0.790,-0.405
3351,0.685,-0.410
3352,0.590,-0.425
3353,0.505,-0.435
3354,0.420,-0.445
3355,0.315,-0.445
3356,0.190,-0.435
3357,0.060,-0.415
3358,-0.095,-0.405
3359,-0.230,-0.410
3360,-0.385,-0.440
3361,-0.540,-0.500
3362,-0.710,-0.560
3363,-0.900,-0.590
3364,-1.075,-0.605
3365,-1.245,-0.620
3366,-1.415,-0.670
3367,-1.585,-0.760
3368,-1.750,-0.885
3369,-1.930,-1.055
3370,-2.055,-1.215
3371,-2.155,-1.335
3372,-2.190,-1.425
3373,-2.220,-1.505
3374,-2.245,-1.585
3375,-2.285,-1.670
3376,-2.325,-1.735
3377,-2.420,-1.835
3378,-2.525,-1.945
3379,-2.615,-2.060
3380,-2.695,-2.165
3381,-2.755,-2.255
3382,-2.815,-2.255
3383,-2.865,-2.165
3384,-2.840,-2.045
3385,-2.770,-1.930
3386,-2.615,-1.770
3387,-2.405,-1.595
3388,-2.165,-1.450
3389,-1.955,-1.320
3390,-1.780,-1.190
3391,-1.625,-1.080
3392,-1.550,-0.965
3393,-1.475,-0.840
3394,-1.420,-0.705
3395,-1.355,-0.610
3396,-1.285,-0.550
3397,-1.250,-0.485
3398,-1.235,-0.415
3399,-1.195,-0.345
3400,-1.165,-0.270
3401,-1.155,-0.225
3402,-1.140,-0.195
3403,-1.135,-0.175
3404,-1.110,-0.155
3405,-1.065,-0.105
3406,-1.010,-0.065
3407,-0.970,-0.030
3408,-0.930,-0.015
3409,-0.885,0.010
3410,-0.805,0.055
3411,-0.700,0.085
3412,-0.620,0.125
3413,-0.540,0.135
3414,-0.480,0.155
3415,-0.425,0.155
3416,-0.390,0.190
3417,-0.340,0.205
3418,-0.295,0.230
3419,-0.230,0.235
3420,-0.175,0.230
3421,-0.125,0.235
3422,-0.105,0.235
3423,-0.085,0.265
3424,-0.070,0.285
3425,-0.045,0.295
3426,-0.030,0.290
3427,-0.010,0.290
3428,0.000,0.295
3429,0.020,0.320
3430,0.045,0.335
3431,0.085,0.345
3432,0.105,0.360
3433,0.100,0.370
3434,0.110,0.355
3435,0.110,0.385
3436,0.130,0.400
3437,0.155,0.415
3438,0.175,0.420
3439,0.190,0.435
3440,0.210,0.440
3441,0.240,0.475
3442,0.270,0.485
3443,0.300,0.500
3444,0.310,0.510
3445,0.330,0.510
3446,0.345,0.515
3447,0.380,0.545
3448,0.420,0.575
3449,0.450,0.590
3450,0.475,0.595
3451,0.490,0.605
3452,0.520,0.620
3453,0.555,0.645
3454,0.600,0.660
3455,0.645,0.675
3456,0.670,0.695
3457,0.680,0.690
3458,0.700,0.695
3459,0.725,0.715
3460,0.740,0.735
3461,0.780,0.740
3462,0.780,0.745
3463,0.795,0.740
3464,0.790,0.745
3465,0.800,0.745
3466,0.825,0.760
3467,0.835,0.755
3468,0.840,0.755
3469,0.840,0.740
3470,0.830,0.730
3471,0.850,0.730
3472,0.840,0.720
3473,0.830,0.715
3474,0.820,0.690
3475,0.795,0.665
3476,0.770,0.645
3477,0.745,0.640
3478,0.750,0.635
3479,0.730,0.605
3480,0.710,0.570
3481,0.675,0.545
3482,0.645,0.520
3483,0.605,0.490
3484,0.580,0.470
3485,0.535,0.445
3486,0.475,0.410
3487,0.455,0.375
3488,0.405,0.345
3489,0.355,0.325
3490,0.315,0.315
3491,0.295,0.285
3492,0.255,0.250
3493,0.215,0.220
3494,0.155,0.190
3495,0.120,0.175
3496,0.075,0.165
3497,0.045,0.145
3498,-0.005,0.125
3499,-0.035,0.100
3500,-0.110,0.075
3501,-0.145,0.080
3502,-0.160,0.065
3503,-0.190,0.065
3504,-0.225,0.040
3505,-0.275,0.035
3506,-0.305,0.025
3507,-0.325,0.015
3508,-0.335,0.035
3509,-0.365,0.025
3510,-0.370,0.025
3511,-0.400,0.015
3512,-0.430,0.020
3513,-0.450,0.030
3514,-0.445,0.015
3515,-0.455,0.015
3516,-0.470,0.015
3517,-0.490,0.005
3518,-0.510,0.000
3519,-0.515,0.010
3520,-0.520,0.030
3521,-0.520,0.020
3522,-0.520,0.020
3523,-0.515,0.010
3524,-0.530,0.010
3525,-0.545,0.025
3526,-0.530,0.035
3527,-0.535,0.020
3528,-0.535,0.020
3529,-0.540,0.015
3530,-0.565,0.020
3531,-0.565,0.025
3532,-0.560,0.030
3533,-0.570,0.030
3534,-0.570,0.035
3535,-0.585,0.020
3536,-0.595,0.030
3537,-0.585,0.025
3538,-0.565,0.055
3539,-0.555,0.060
3540,-0.555,0.055
3541,-0.585,0.045
3542,-0.585,0.030
3543,-0.585,0.055
3544,-0.580,0.050
3545,-0.580,0.050
3546,-0.575,0.060
3547,-0.585,0.060
3548,-0.585,0.045
3549,-0.570,0.055
3550,-0.550,0.060
3551,-0.535,0.060
3552,-0.530,0.050
3553,-0.540,0.045
3554,-0.560,0.050
3555,-0.560,0.055
3556,-0.540,0.070
3557,-0.520,0.070
3558,-0.525,0.055
3559,-0.530,0.050
3560,-0.550,0.060
3561,-0.545,0.050
3562,-0.535,0.065
3563,-0.530,0.055
3564,-0.530,0.065
3565,-0.530,0.040
3566,-0.530,0.030
3567,-0.520,0.060
3568,-0.525,0.060
3569,-0.520,0.060
3570,-0.525,0.040
3571,-0.530,0.040
3572,-0.530,0.030
3573,-0.530,0.040
3574,-0.515,0.050
3575,-0.500,0.050
3576,-0.510,0.045
3577,-0.525,0.025
3578,-0.555,0.015
3579,-0.550,0.030
3580,-0.540,0.050
3581,-0.530,0.035
3582,-0.535,0.035
3583,-0.555,0.020
3584,-0.555,0.015
3585,-0.560,0.025
3586,-0.560,0.035
3587,-0.530,0.030
3588,-0.530,0.025
3589,-0.545,0.015
3590,-0.570,0.025
3591,-0.555,0.025
3592,-0.545,0.035
3593,-0.550,0.025
3594,-0.540,0.015
3595,-0.560,0.010
3596,-0.580,0.015
3597,-0.580,0.010
3598,-0.565,0.020
3599,-0.555,0.020
3600,-0.550,0.015
3601,-0.560,0.005
3602,-0.575,0.000
3603,-0.575,0.015
3604,-0.570,0.025
3605,-0.565,0.020
3606,-0.545,0.015
3607,-0.570,0.015
3608,-0.575,0.015
3609,-0.580,0.020
3610,-0.560,0.020
3611,-0.550,0.015
3612,-0.550,0.015
3613,-0.555,0.010
3614,-0.570,0.005
3615,-0.570,0.015
3616,-0.555,0.030
3617,-0.540,0.025
3618,-0.545,0.030
3619,-0.555,0.035
3620,-0.545,0.050
3621,-0.535,0.090
3622,-0.520,0.135
3623,-0.515,0.145
3624,-0.535,0.165
3625,-0.520,0.165
3626,-0.510,0.185
3627,-0.480,0.205
3628,-0.440,0.225
3629,-0.415,0.240
3630,-0.385,0.255
3631,-0.335,0.270
3632,-0.310,0.260
3633,-0.275,0.240
3634,-0.230,0.205
3635,-0.205,0.150
3636,-0.210,0.105
3637,-0.225,0.060
3638,-0.220,0.035
3639,-0.170,0.030
3640,-0.125,0.030
3641,-0.115,-0.010
3642,-0.140,-0.025
3643,-0.170,-0.035
3644,-0.210,-0.050
3645,-0.220,-0.070
3646,-0.225,-0.080
3647,-0.225,-0.090
3648,-0.210,-0.120
3649,-0.200,-0.265
3650,-0.185,-0.565
3651,-0.150,-0.875
3652,-0.100,-0.860
3653,0.070,-0.620
3654,0.435,-0.420
3655,0.955,-0.365
3656,1.390,-0.375
3657,1.510,-0.340
3658,1.400,-0.325
3659,1.245,-0.295
3660,1.140,-0.285
3661,1.070,-0.305
3662,0.985,-0.325
3663,0.900,-0.340
3664,0.805,-0.365
3665,0.700,-0.395
3666,0.575,-0.410
3667,0.460,-0.450
3668,0.340,-0.465
3669,0.235,-0.480
3670,0.135,-0.500
3671,0.030,-0.520
3672,-0.100,-0.545
3673,-0.270,-0.575
3674,-0.450,-0.610
3675,-0.615,-0.640
3676,-0.805,-0.675
3677,-0.975,-0.750
3678,-1.160,-0.810
3679,-1.360,-0.865
3680,-1.575,-0.900
3681,-1.740,-0.925
3682,-1.900,-0.980
3683,-2.050,-1.065
3684,-2.205,-1.165
3685,-2.300,-1.315
3686,-2.385,-1.440
3687,-2.445,-1.545
3688,-2.485,-1.620
3689,-2.505,-1.680
3690,-2.520,-1.755
3691,-2.545,-1.845
3692,-2.595,-1.920
3693,-2.650,-1.980
3694,-2.710,-2.025
3695,-2.750,-2.110
3696,-2.805,-2.185
3697,-2.885,-2.250
3698,-2.950,-2.290
3699,-3.000,-2.250
3700,-3.015,-2.130
3701,-2.970,-1.985
3702,-2.865,-1.855
3703,-2.690,-1.715
3704,-2.495,-1.570
3705,-2.265,-1.405
3706,-2.060,-1.275
3707,-1.925,-1.155
3708,-1.790,-1.040
3709,-1.660,-0.945
3710,-1.580,-0.830
3711,-1.505,-0.710
3712,-1.435,-0.625
3713,-1.405,-0.565
3714,-1.365,-0.485
3715,-1.330,-0.415
3716,-1.310,-0.355
3717,-1.275,-0.295
3718,-1.250,-0.245
3719,-1.240,-0.185
3720,-1.215,-0.140
3721,-1.190,-0.090
3722,-1.130,-0.060
3723,-1.060,-0.010
3724,-0.975,0.040
3725,-0.905,0.065
3726,-0.850,0.110
3727,-0.815,0.145
3728,-0.755,0.160
3729,-0.695,0.205
3730,-0.615,0.245
3731,-0.530,0.265
3732,-0.450,0.290
3733,-0.385,0.300
3734,-0.330,0.325
3735,-0.260,0.325
3736,-0.195,0.335
3737,-0.125,0.350
3738,-0.080,0.340
3739,-0.045,0.365
3740,-0.035,0.370
3741,-0.020,0.380
3742,0.015,0.410
3743,0.035,0.405
3744,0.065,0.405
3745,0.080,0.415
3746,0.080,0.425
3747,0.110,0.445
3748,0.145,0.460
3749,0.175,0.475
3750,0.205,0.475
3751,0.225,0.485
3752,0.230,0.500
3753,0.265,0.515
3754,0.300,0.540
3755,0.350,0.545
3756,0.375,0.555
3757,0.405,0.550
3758,0.410,0.560
3759,0.435,0.575
3760,0.470,0.590
3761,0.510,0.605
3762,0.535,0.615
3763,0.560,0.620
3764,0.575,0.625
3765,0.610,0.645
3766,0.635,0.665
3767,0.695,0.680
3768,0.735,0.685
3769,0.765,0.690
3770,0.780,0.700
3771,0.790,0.720
3772,0.840,0.740
3773,0.865,0.745
3774,0.900,0.760
3775,0.935,0.750
3776,0.945,0.765
3777,0.950,0.770
3778,0.975,0.790
3779,0.995,0.780
3780,1.010,0.780
3781,1.010,0.770
3782,1.025,0.775
3783,1.035,0.795
3784,1.040,0.795
3785,1.030,0.785
3786,1.030,0.790
3787,1.010,0.760
3788,0.990,0.750
3789,0.985,0.760
3790,0.985,0.745
3791,0.970,0.730
3792,0.945,0.710
3793,0.900,0.680
3794,0.870,0.660
3795,0.840,0.650
3796,0.810,0.615
3797,0.765,0.610
3798,0.740,0.565
3799,0.685,0.535
3800,0.650,0.500
3801,0.630,0.480
3802,0.610,0.460
3803,0.565,0.420
3804,0.505,0.390
3805,0.430,0.360
3806,0.370,0.320
3807,0.330,0.305
3808,0.315,0.290
3809,0.295,0.270
3810,0.240,0.245
3811,0.170,0.220
3812,0.125,0.200
3813,0.070,0.170
3814,0.040,0.155
3815,0.010,0.135
3816,-0.030,0.120
3817,-0.075,0.105
3818,-0.120,0.100
3819,-0.160,0.090
3820,-0.190,0.090
3821,-0.215,0.090
3822,-0.235,0.090
3823,-0.275,0.080
3824,-0.315,0.070
3825,-0.325,0.070
3826,-0.350,0.075
3827,-0.370,0.050
3828,-0.390,0.050
3829,-0.415,0.035
3830,-0.435,0.035
3831,-0.450,0.050
3832,-0.465,0.060
3833,-0.490,0.055
3834,-0.500,0.060
3835,-0.515,0.035
3836,-0.515,0.035
3837,-0.500,0.045
3838,-0.500,0.055
3839,-0.510,0.055
3840,-0.515,0.065
3841,-0.550,0.045
3842,-0.545,0.045
3843,-0.555,0.055
3844,-0.540,0.070
3845,-0.520,0.065
3846,-0.505,0.065
3847,-0.525,0.055
3848,-0.535,0.050
3849,-0.555,0.050
3850,-0.560,0.070
3851,-0.555,0.080
3852,-0.545,0.065
3853,-0.560,0.055
3854,-0.580,0.055
3855,-0.570,0.070
3856,-0.565,0.065
3857,-0.555,0.075
3858,-0.575,0.070
3859,-0.580,0.060
3860,-0.590,0.070
3861,-0.570,0.080
3862,-0.565,0.085
3863,-0.570,0.085
3864,-0.580,0.095
3865,-0.590,0.090
3866,-0.605,0.085
3867,-0.620,0.085
3868,-0.605,0.095
3869,-0.585,0.105
3870,-0.575,0.095
3871,-0.590,0.090
3872,-0.590,0.085
3873,-0.605,0.095
3874,-0.590,0.100
3875,-0.560,0.100
3876,-0.560,0.090
3877,-0.575,0.085
3878,-0.580,0.095
3879,-0.565,0.095
3880,-0.570,0.105
3881,-0.550,0.105
3882,-0.555,0.105
3883,-0.555,0.095
3884,-0.560,0.115
3885,-0.560,0.155
3886,-0.535,0.190
3887,-0.545,0.210
3888,-0.520,0.225
3889,-0.530,0.230
3890,-0.540,0.250
3891,-0.525,0.250
3892,-0.500,0.280
3893,-0.450,0.290
3894,-0.445,0.300
3895,-0.395,0.315
3896,-0.355,0.320
3897,-0.305,0.335
3898,-0.280,0.310
3899,-0.240,0.255
3900,-0.240,0.230
3901,-0.250,0.175
3902,-0.260,0.140
3903,-0.240,0.135
3904,-0.210,0.125
3905,-0.210,0.095
3906,-0.220,0.075
3907,-0.260,0.055
3908,-0.300,0.050
3909,-0.315,0.055
3910,-0.325,0.045
3911,-0.335,0.040
3912,-0.340,0.035
3913,-0.355,0.030
3914,-0.365,0.040
3915,-0.370,0.050
3916,-0.375,0.055
3917,-0.385,0.050
3918,-0.390,0.045
3919,-0.385,0.025
3920,-0.410,0.025
3921,-0.445,0.050
3922,-0.480,0.060
3923,-0.515,0.050
3924,-0.555,0.070
3925,-0.585,0.060
3926,-0.600,0.060
3927,-0.600,0.055
3928,-0.625,0.065
3929,-0.620,0.045
3930,-0.655,0.035
3931,-0.670,0.030
3932,-0.715,0.015
3933,-0.725,0.030
3934,-0.725,0.020
3935,-0.730,0.025
3936,-0.735,0.025
3937,-0.750,0.010
3938,-0.775,0.015
3939,-0.795,0.010
3940,-0.790,0.035
3941,-0.790,0.035
3942,-0.795,0.030
3943,-0.815,0.020
3944,-0.815,0.025
3945,-0.815,0.030
3946,-0.810,0.025
3947,-0.810,0.030
3948,-0.810,0.020
3949,-0.830,0.010
3950,-0.825,0.000
3951,-0.820,0.005
3952,-0.805,0.015
3953,-0.790,0.020
3954,-0.810,0.010
3955,-0.805,0.000
3956,-0.805,0.000
3957,-0.790,-0.005
3958,-0.765,-0.015
3959,-0.730,-0.025
3960,-0.710,-0.120
3961,-0.690,-0.380
3962,-0.640,-0.750
3963,-0.510,-0.835
3964,-0.230,-0.590
3965,0.295,-0.360
3966,0.920,-0.270
3967,1.345,-0.270
3968,1.355,-0.270
3969,1.150,-0.250
3970,0.950,-0.225
3971,0.870,-0.240
3972,0.810,-0.250
3973,0.730,-0.280
3974,0.625,-0.315
3975,0.495,-0.310
3976,0.415,-0.320
3977,0.345,-0.335
3978,0.265,-0.365
3979,0.145,-0.390
3980,0.015,-0.410
3981,-0.105,-0.415
3982,-0.245,-0.435
3983,-0.355,-0.480
3984,-0.500,-0.515
3985,-0.640,-0.570
3986,-0.810,-0.650
3987,-0.965,-0.700
3988,-1.120,-0.740
3989,-1.265,-0.780
3990,-1.440,-0.830
3991,-1.595,-0.900
3992,-1.760,-1.005
3993,-1.910,-1.155
3994,-2.070,-1.280
3995,-2.195,-1.415
3996,-2.290,-1.515
3997,-2.340,-1.575
3998,-2.380,-1.645
3999,-2.405,-1.720
4000,-2.425,-1.790
4001,-2.485,-1.855
4002,-2.590,-1.945
4003,-2.690,-2.040
4004,-2.780,-2.130
4005,-2.830,-2.155
4006,-2.880,-2.105
4007,-2.900,-1.995
4008,-2.920,-1.850
4009,-2.855,-1.700
4010,-2.745,-1.545
4011,-2.590,-1.365
4012,-2.430,-1.195
4013,-2.235,-1.055
4014,-2.055,-0.900
4015,-1.900,-0.770
4016,-1.815,-0.635
4017,-1.750,-0.495
4018,-1.670,-0.390
4019,-1.590,-0.300
4020,-1.520,-0.220
4021,-1.475,-0.160
4022,-1.450,-0.090
4023,-1.405,-0.020
4024,-1.375,0.025
4025,-1.355,0.085
4026,-1.320,0.120
4027,-1.275,0.160
4028,-1.210,0.195
4029,-1.145,0.235
4030,-1.060,0.270
4031,-0.985,0.315
4032,-0.925,0.355
4033,-0.865,0.375
4034,-0.815,0.405
4035,-0.745,0.445
4036,-0.665,0.465
4037,-0.570,0.480
4038,-0.495,0.480
4039,-0.450,0.485
4040,-0.405,0.505
4041,-0.340,0.525
4042,-0.275,0.555
4043,-0.235,0.555
4044,-0.205,0.555
4045,-0.205,0.560
4046,-0.195,0.565
4047,-0.160,0.585
4048,-0.130,0.615
4049,-0.110,0.620
4050,-0.105,0.625
4051,-0.090,0.625
4052,-0.085,0.640
4053,-0.050,0.660
4054,-0.020,0.675
4055,0.020,0.680
4056,0.050,0.695
4057,0.085,0.685
4058,0.080,0.710
4059,0.115,0.735
4060,0.130,0.760
4061,0.170,0.775
4062,0.210,0.775
4063,0.240,0.790
4064,0.250,0.800
4065,0.270,0.825
4066,0.295,0.845
4067,0.330,0.850
4068,0.365,0.865
4069,0.390,0.865
4070,0.430,0.885
4071,0.465,0.915
4072,0.505,0.940
4073,0.530,0.940
4074,0.570,0.955
4075,0.595,0.960
4076,0.625,0.960
4077,0.660,0.990
4078,0.685,0.995
4079,0.675,1.010
4080,0.695,1.010
4081,0.695,0.995
4082,0.715,1.005
4083,0.745,1.010
4084,0.765,1.020
4085,0.755,1.005
4086,0.735,0.995
4087,0.715,0.985
4088,0.675,0.985
4089,0.650,0.975
4090,0.650,0.980
4091,0.625,0.960
4092,0.595,0.940
4093,0.580,0.905
4094,0.540,0.885
4095,0.510,0.875
4096,0.495,0.865
4097,0.470,0.815
4098,0.430,0.785
4099,0.375,0.745
4100,0.330,0.720
4101,0.300,0.690
4102,0.260,0.675
4103,0.245,0.630
4104,0.170,0.610
4105,0.110,0.565
4106,0.045,0.540
4107,0.000,0.525
4108,-0.050,0.510
4109,-0.080,0.480
4110,-0.125,0.460
4111,-0.160,0.430
4112,-0.215,0.405
4113,-0.260,0.395
4114,-0.300,0.400
4115,-0.350,0.390
4116,-0.375,0.370
4117,-0.425,0.345
4118,-0.480,0.335
4119,-0.510,0.350
4120,-0.520,0.355
4121,-0.525,0.345
4122,-0.555,0.335
4123,-0.570,0.320
4124,-0.605,0.320
4125,-0.615,0.315
4126,-0.635,0.325
4127,-0.655,0.320
4128,-0.655,0.315
4129,-0.670,0.300
4130,-0.685,0.290
4131,-0.680,0.305
4132,-0.695,0.350
4133,-0.725,0.360
4134,-0.720,0.365
4135,-0.715,0.380
4136,-0.710,0.415
4137,-0.700,0.445
4138,-0.680,0.470
4139,-0.650,0.485
4140,-0.635,0.485
4141,-0.630,0.480
4142,-0.610,0.485
4143,-0.565,0.500
4144,-0.520,0.520
4145,-0.480,0.510
4146,-0.440,0.495
4147,-0.430,0.470
4148,-0.420,0.430
4149,-0.405,0.425
4150,-0.390,0.415
4151,-0.370,0.380
4152,-0.355,0.370
4153,-0.355,0.340
4154,-0.370,0.325
4155,-0.390,0.315
4156,-0.415,0.330
4157,-0.445,0.320
4158,-0.470,0.295
4159,-0.480,0.275
4160,-0.500,0.280
4161,-0.490,0.300
4162,-0.475,0.315
4163,-0.470,0.315
4164,-0.485,0.310
4165,-0.490,0.300
4166,-0.515,0.300
4167,-0.520,0.300
4168,-0.530,0.315
4169,-0.540,0.305
4170,-0.560,0.310
4171,-0.590,0.305
4172,-0.610,0.295
4173,-0.635,0.325
4174,-0.650,0.345
4175,-0.675,0.325
4176,-0.700,0.315
4177,-0.725,0.285
4178,-0.750,0.285
4179,-0.770,0.290
4180,-0.780,0.290
4181,-0.785,0.275
4182,-0.805,0.260
4183,-0.815,0.245
4184,-0.830,0.245
4185,-0.830,0.245
4186,-0.830,0.260
4187,-0.840,0.250
4188,-0.865,0.245
4189,-0.875,0.235
4190,-0.880,0.225
4191,-0.890,0.240
4192,-0.875,0.245
4193,-0.845,0.240
4194,-0.860,0.225
4195,-0.870,0.235
4196,-0.875,0.220
4197,-0.890,0.220
4198,-0.870,0.215
4199,-0.875,0.225
4200,-0.880,0.220
4201,-0.890,0.210
4202,-0.895,0.195
4203,-0.890,0.210
4204,-0.890,0.205
4205,-0.890,0.210
4206,-0.900,0.215
4207,-0.910,0.215
4208,-0.915,0.195
4209,-0.910,0.220
4210,-0.895,0.220
4211,-0.875,0.220
4212,-0.885,0.195
4213,-0.900,0.190
4214,-0.900,0.195
4215,-0.900,0.205
4216,-0.910,0.225
4217,-0.910,0.205
4218,-0.910,0.205
4219,-0.910,0.195
4220,-0.915,0.200
4221,-0.905,0.205
4222,-0.890,0.210
4223,-0.895,0.200
4224,-0.890,0.200
4225,-0.900,0.205
4226,-0.910,0.205
4227,-0.900,0.225
4228,-0.880,0.225
4229,-0.885,0.230
4230,-0.870,0.235
4231,-0.880,0.230
4232,-0.880,0.210
4233,-0.865,0.225
4234,-0.855,0.230
4235,-0.845,0.225
4236,-0.870,0.225
4237,-0.885,0.215
4238,-0.890,0.220
4239,-0.870,0.230
4240,-0.870,0.245
4241,-0.855,0.225
4242,-0.860,0.210
4243,-0.860,0.210
4244,-0.860,0.205
4245,-0.845,0.215
4246,-0.835,0.230
4247,-0.825,0.215
4248,-0.800,0.220
4249,-0.795,0.215
4250,-0.815,0.195
4251,-0.800,0.190
4252,-0.785,0.195
4253,-0.770,0.180
4254,-0.770,0.160
4255,-0.755,0.115
4256,-0.735,-0.020
4257,-0.705,-0.300
4258,-0.630,-0.660
4259,-0.520,-0.715
4260,-0.265,-0.440
4261,0.260,-0.205
4262,0.895,-0.105
4263,1.460,-0.090
4264,1.530,-0.090
4265,1.315,-0.065
4266,1.095,-0.080
4267,1.005,-0.080
4268,0.950,-0.120
4269,0.855,-0.130
4270,0.770,-0.140
4271,0.655,-0.165
4272,0.555,-0.190
4273,0.435,-0.230
4274,0.330,-0.270
4275,0.215,-0.295
4276,0.095,-0.300
4277,-0.025,-0.315
4278,-0.180,-0.350
4279,-0.345,-0.400
4280,-0.525,-0.465
4281,-0.700,-0.525
4282,-0.880,-0.585
4283,-1.080,-0.670
4284,-1.290,-0.735
4285,-1.505,-0.760
4286,-1.685,-0.835
4287,-1.840,-0.910
4288,-2.005,-1.035
4289,-2.155,-1.205
4290,-2.270,-1.330
4291,-2.350,-1.430
4292,-2.405,-1.505
4293,-2.425,-1.585
4294,-2.440,-1.650
4295,-2.475,-1.750
4296,-2.530,-1.825
4297,-2.610,-1.905
4298,-2.695,-2.010
4299,-2.755,-2.100
4300,-2.785,-2.125
4301,-2.800,-2.080
4302,-2.820,-1.955
4303,-2.785,-1.800
4304,-2.725,-1.630
4305,-2.575,-1.440
4306,-2.420,-1.265
4307,-2.235,-1.100
4308,-2.015,-0.935
4309,-1.795,-0.805
4310,-1.675,-0.670
4311,-1.585,-0.535
4312,-1.530,-0.415
4313,-1.450,-0.315
4314,-1.390,-0.240
4315,-1.335,-0.165
4316,-1.290,-0.090
4317,-1.225,-0.010
4318,-1.180,0.045
4319,-1.160,0.080
4320,-1.125,0.115
4321,-1.080,0.140
4322,-1.035,0.180
4323,-0.950,0.220
4324,-0.875,0.260
4325,-0.810,0.300
4326,-0.755,0.315
4327,-0.695,0.340
4328,-0.625,0.370
4329,-0.560,0.410
4330,-0.480,0.435
4331,-0.385,0.445
4332,-0.300,0.455
4333,-0.220,0.455
4334,-0.170,0.460
4335,-0.100,0.485
4336,-0.055,0.520
4337,-0.030,0.510
4338,-0.005,0.525
4339,0.005,0.510
4340,0.020,0.525
4341,0.055,0.550
4342,0.075,0.555
4343,0.100,0.570
4344,0.115,0.560
4345,0.130,0.575
4346,0.160,0.575
4347,0.175,0.595
4348,0.215,0.615
4349,0.250,0.625
4350,0.285,0.625
4351,0.300,0.630
4352,0.330,0.640
4353,0.365,0.660
4354,0.395,0.685
4355,0.425,0.690
4356,0.455,0.685
4357,0.485,0.690
4358,0.505,0.710
4359,0.545,0.725
4360,0.575,0.755
4361,0.615,0.760
4362,0.655,0.755
4363,0.690,0.785
4364,0.720,0.795
4365,0.740,0.825
4366,0.780,0.840
4367,0.810,0.825
4368,0.840,0.830
4369,0.870,0.835
4370,0.880,0.850
4371,0.900,0.860
4372,0.925,0.880
4373,0.955,0.875
4374,0.960,0.870
4375,0.965,0.880
4376,0.965,0.870
4377,0.985,0.885
4378,1.005,0.895
4379,1.010,0.905
4380,1.000,0.905
4381,0.990,0.910
4382,0.980,0.915
4383,0.980,0.955
4384,0.985,0.960
4385,0.975,0.935
4386,0.955,0.895
4387,0.940,0.865
4388,0.940,0.865
4389,0.955,0.840
4390,0.970,0.835
4391,0.980,0.795
4392,0.965,0.755
4393,0.940,0.675
4394,0.895,0.615
4395,0.880,0.560
4396,0.860,0.510
4397,0.855,0.465
4398,0.790,0.425
4399,0.735,0.375
4400,0.650,0.325
4401,0.570,0.290
4402,0.510,0.280
4403,0.465,0.245
4404,0.400,0.210
4405,0.335,0.175
4406,0.275,0.160
4407,0.245,0.160
4408,0.215,0.170
4409,0.165,0.150
4410,0.105,0.120
4411,0.045,0.105
4412,-0.010,0.110
4413,-0.055,0.110
4414,-0.100,0.115
4415,-0.145,0.120
4416,-0.185,0.095
4417,-0.235,0.080
4418,-0.295,0.090
4419,-0.320,0.105
4420,-0.355,0.100
4421,-0.375,0.095
4422,-0.420,0.085
4423,-0.460,0.080
4424,-0.490,0.070
4425,-0.515,0.075
4426,-0.535,0.080
4427,-0.565,0.065
4428,-0.580,0.030
4429,-0.625,0.020
4430,-0.665,0.030
4431,-0.680,0.030
4432,-0.685,0.055
4433,-0.660,0.035
4434,-0.625,0.030
4435,-0.620,0.035
4436,-0.615,0.040
4437,-0.620,0.040
4438,-0.630,0.050
4439,-0.650,0.040
4440,-0.665,0.060
4441,-0.680,0.050
4442,-0.685,0.055
4443,-0.665,0.060
4444,-0.655,0.075
4445,-0.640,0.050
4446,-0.660,0.055
4447,-0.670,0.045
4448,-0.675,0.050
4449,-0.680,0.060
4450,-0.680,0.070
4451,-0.670,0.060
4452,-0.665,0.055
4453,-0.675,0.050
4454,-0.680,0.030
4455,-0.660,0.045
4456,-0.645,0.060
4457,-0.635,0.070
4458,-0.635,0.065
4459,-0.645,0.045
4460,-0.655,0.045
4461,-0.660,0.050
4462,-0.650,0.055
4463,-0.655,0.035
4464,-0.670,0.030
4465,-0.680,0.035
4466,-0.670,0.030
4467,-0.650,0.030
4468,-0.640,0.045
4469,-0.630,0.045
4470,-0.640,0.045
4471,-0.645,0.040
4472,-0.655,0.035
4473,-0.665,0.045
4474,-0.665,0.035
4475,-0.640,0.030
4476,-0.635,0.025
4477,-0.645,0.035
4478,-0.640,0.035
4479,-0.645,0.055
4480,-0.645,0.060
4481,-0.640,0.035
4482,-0.630,0.035
4483,-0.630,0.040
4484,-0.635,0.035
4485,-0.635,0.065
4486,-0.625,0.065
4487,-0.625,0.055
4488,-0.640,0.045
4489,-0.645,0.065
4490,-0.650,0.055
4491,-0.635,0.060
4492,-0.620,0.060
4493,-0.625,0.060
4494,-0.625,0.055
4495,-0.630,0.060
4496,-0.640,0.065
4497,-0.625,0.065
4498,-0.620,0.080
4499,-0.630,0.070
4500,-0.615,0.070
4501,-0.605,0.060
4502,-0.600,0.065
4503,-0.600,0.070
4504,-0.570,0.090
4505,-0.565,0.085
4506,-0.565,0.065
4507,-0.580,0.070
4508,-0.595,0.050
4509,-0.590,0.070
4510,-0.580,0.090
4511,-0.580,0.085
4512,-0.580,0.075
4513,-0.605,0.075
4514,-0.605,0.080
4515,-0.565,0.080
4516,-0.550,0.085
4517,-0.545,0.065
4518,-0.540,0.080
4519,-0.555,0.065
4520,-0.565,0.060
4521,-0.550,0.070
4522,-0.530,0.100
4523,-0.520,0.090
4524,-0.535,0.080
4525,-0.545,0.055
4526,-0.545,0.035
4527,-0.530,0.025
4528,-0.540,0.045
4529,-0.550,0.050
4530,-0.520,0.030
4531,-0.495,0.020
4532,-0.485,0.030
4533,-0.485,0.060
4534,-0.490,0.075
4535,-0.495,0.065
4536,-0.500,0.045
4537,-0.495,0.045
4538,-0.505,0.015
4539,-0.480,0.020
4540,-0.480,0.030
4541,-0.485,0.020
4542,-0.480,0.010
4543,-0.470,0.000
4544,-0.460,-0.015
4545,-0.435,-0.025
4546,-0.420,-0.050
4547,-0.410,-0.080
4548,-0.360,-0.155
4549,-0.335,-0.425
4550,-0.290,-0.775
4551,-0.180,-0.805
4552,0.100,-0.540
4553,0.635,-0.320
4554,1.270,-0.265
4555,1.770,-0.280
4556,1.810,-0.270
4557,1.620,-0.250
4558,1.490,-0.240
4559,1.425,-0.260
4560,1.365,-0.290
4561,1.285,-0.330
4562,1.140,-0.330
4563,1.030,-0.360
4564,0.940,-0.370
4565,0.850,-0.400
4566,0.755,-0.425
4567,0.640,-0.445
4568,0.495,-0.435
4569,0.350,-0.430
4570,0.190,-0.465
4571,-0.015,-0.520
4572,-0.245,-0.560
4573,-0.465,-0.610
4574,-0.675,-0.640
4575,-0.875,-0.690
4576,-1.080,-0.705
4577,-1.300,-0.735
4578,-1.520,-0.780
4579,-1.695,-0.840
4580,-1.840,-0.930
4581,-1.950,-1.045
4582,-2.015,-1.170
4583,-2.080,-1.255
4584,-2.140,-1.315
4585,-2.200,-1.360
4586,-2.225,-1.475
4587,-2.225,-1.565
4588,-2.255,-1.650
4589,-2.340,-1.715
4590,-2.440,-1.805
4591,-2.525,-1.920
4592,-2.585,-2.045
4593,-2.635,-2.070
4594,-2.680,-2.000
4595,-2.710,-1.855
4596,-2.690,-1.735
4597,-2.605,-1.590
4598,-2.435,-1.415
4599,-2.180,-1.235
4600,-1.955,-1.090
4601,-1.735,-0.985
4602,-1.580,-0.890
4603,-1.460,-0.775
4604,-1.375,-0.675
4605,-1.300,-0.595
4606,-1.260,-0.570
4607,-1.225,-0.525
4608,-1.170,-0.455
4609,-1.095,-0.370
4610,-1.040,-0.310
4611,-1.015,-0.230
4612,-1.020,-0.175
4613,-0.990,-0.105
4614,-0.920,-0.080
4615,-0.850,-0.080
4616,-0.765,-0.050
4617,-0.680,0.010
4618,-0.620,0.030
4619,-0.570,-0.015
4620,-0.530,0.005
4621,-0.480,0.035
4622,-0.410,0.055
4623,-0.325,0.085
4624,-0.200,0.110
4625,-0.090,0.130
4626,-0.025,0.140
4627,0.005,0.145
4628,0.030,0.160
4629,0.070,0.205
4630,0.140,0.240
4631,0.185,0.285
4632,0.235,0.310
4633,0.260,0.310
4634,0.285,0.280
4635,0.335,0.285
4636,0.380,0.335
4637,0.405,0.360
4638,0.415,0.405
4639,0.455,0.415
4640,0.515,0.395
4641,0.610,0.410
4642,0.655,0.410
4643,0.675,0.380
4644,0.695,0.345
4645,0.740,0.305
4646,0.790,0.290
4647,0.845,0.265
4648,0.880,0.255
4649,0.885,0.240
4650,0.900,0.220
4651,0.925,0.230
4652,0.980,0.225
4653,1.015,0.230
4654,1.045,0.225
4655,1.040,0.240
4656,1.020,0.260
4657,1.035,0.305
4658,1.045,0.325
4659,1.095,0.355
4660,1.140,0.350
4661,1.175,0.340
4662,1.190,0.325
4663,1.215,0.355
4664,1.250,0.400
4665,1.270,0.455
4666,1.255,0.455
4667,1.250,0.390
4668,1.230,0.370
4669,1.240,0.375
4670,1.235,0.400
4671,1.215,0.420
4672,1.185,0.415
4673,1.155,0.385
4674,1.155,0.365
4675,1.140,0.380
4676,1.130,0.360
4677,1.135,0.360
4678,1.145,0.370
4679,1.115,0.360
4680,1.080,0.345
4681,1.055,0.295
4682,1.020,0.260
4683,0.990,0.225
4684,0.930,0.200
4685,0.865,0.180
4686,0.820,0.175
4687,0.815,0.165
4688,0.815,0.125
4689,0.790,0.090
4690,0.710,0.060
4691,0.610,0.000
4692,0.535,-0.040
4693,0.525,-0.045
4694,0.510,-0.060
4695,0.500,-0.065
4696,0.455,-0.075
4697,0.385,-0.070
4698,0.360,-0.085
4699,0.330,-0.145
4700,0.250,-0.200
4701,0.130,-0.210
4702,0.060,-0.210
4703,0.035,-0.235
4704,0.065,-0.265
4705,0.070,-0.280
4706,0.020,-0.280
4707,-0.030,-0.270
4708,-0.085,-0.255
4709,-0.120,-0.260
4710,-0.145,-0.270
4711,-0.210,-0.285
4712,-0.285,-0.305
4713,-0.300,-0.315
4714,-0.260,-0.300
4715,-0.220,-0.285
4716,-0.210,-0.285
4717,-0.270,-0.325
4718,-0.330,-0.340
4719,-0.345,-0.340
4720,-0.365,-0.320
4721,-0.390,-0.315
4722,-0.420,-0.315
4723,-0.410,-0.315
4724,-0.390,-0.315
4725,-0.345,-0.300
4726,-0.375,-0.290
4727,-0.400,-0.305
4728,-0.445,-0.315
4729,-0.470,-0.315
4730,-0.490,-0.285
4731,-0.460,-0.245
4732,-0.460,-0.215
4733,-0.455,-0.245
4734,-0.455,-0.280
4735,-0.455,-0.295
4736,-0.465,-0.285
4737,-0.465,-0.260
4738,-0.470,-0.230
4739,-0.495,-0.225
4740,-0.490,-0.245
4741,-0.440,-0.270
4742,-0.425,-0.270
4743,-0.420,-0.250
4744,-0.470,-0.225
4745,-0.510,-0.215
4746,-0.490,-0.230
4747,-0.455,-0.265
4748,-0.415,-0.260
4749,-0.385,-0.255
4750,-0.390,-0.240
4751,-0.410,-0.220
4752,-0.445,-0.235
4753,-0.455,-0.225
4754,-0.445,-0.220
4755,-0.405,-0.230
4756,-0.400,-0.225
4757,-0.425,-0.235
4758,-0.445,-0.235
4759,-0.465,-0.255
4760,-0.440,-0.260
4761,-0.425,-0.235
4762,-0.400,-0.225
4763,-0.395,-0.225
4764,-0.395,-0.245
4765,-0.395,-0.260
4766,-0.390,-0.240
4767,-0.365,-0.220
4768,-0.345,-0.215
4769,-0.320,-0.235
4770,-0.345,-0.245
4771,-0.375,-0.260
4772,-0.410,-0.265
4773,-0.370,-0.270
4774,-0.340,-0.255
4775,-0.320,-0.250
4776,-0.345,-0.255
4777,-0.360,-0.270
4778,-0.355,-0.280
4779,-0.365,-0.265
4780,-0.365,-0.265
4781,-0.390,-0.270
4782,-0.410,-0.275
4783,-0.405,-0.300
4784,-0.420,-0.305
4785,-0.410,-0.290
4786,-0.395,-0.290
4787,-0.380,-0.300
4788,-0.385,-0.310
4789,-0.370,-0.330
4790,-0.340,-0.310
4791,-0.315,-0.300
4792,-0.315,-0.290
4793,-0.355,-0.295
4794,-0.370,-0.300
4795,-0.360,-0.310
4796,-0.345,-0.300
4797,-0.345,-0.285
4798,-0.355,-0.295
4799,-0.355,-0.310
4800,-0.365,-0.330
4801,-0.370,-0.335
4802,-0.375,-0.325
4803,-0.370,-0.310
4804,-0.355,-0.305
4805,-0.330,-0.315
4806,-0.320,-0.325
4807,-0.345,-0.330
4808,-0.360,-0.325
4809,-0.360,-0.330
4810,-0.355,-0.325
4811,-0.350,-0.340
4812,-0.340,-0.335
4813,-0.345,-0.335
4814,-0.355,-0.330
4815,-0.330,-0.330
4816,-0.310,-0.325
4817,-0.295,-0.335
4818,-0.310,-0.330
4819,-0.330,-0.315
4820,-0.365,-0.325
4821,-0.345,-0.315
4822,-0.335,-0.325
4823,-0.320,-0.330
4824,-0.315,-0.330
4825,-0.315,-0.335
4826,-0.310,-0.330
4827,-0.310,-0.330
4828,-0.300,-0.340
4829,-0.300,-0.335
4830,-0.320,-0.345
4831,-0.315,-0.345
4832,-0.330,-0.340
4833,-0.320,-0.330
4834,-0.300,-0.315
4835,-0.305,-0.325
4836,-0.315,-0.335
4837,-0.320,-0.345
4838,-0.310,-0.340
4839,-0.305,-0.345
4840,-0.295,-0.350
4841,-0.290,-0.340
4842,-0.275,-0.340
4843,-0.270,-0.370
4844,-0.270,-0.375
4845,-0.240,-0.365
4846,-0.205,-0.365
4847,-0.195,-0.390
4848,-0.195,-0.535
4849,-0.185,-0.895
4850,-0.140,-1.210
4851,0.015,-1.165
4852,0.360,-0.915
4853,0.930,-0.745
4854,1.545,-0.710
4855,1.935,-0.705
4856,1.975,-0.695
4857,1.885,-0.675
4858,1.765,-0.645
4859,1.710,-0.650
4860,1.655,-0.665
4861,1.570,-0.690
4862,1.455,-0.700
4863,1.345,-0.705
4864,1.245,-0.715
4865,1.155,-0.720
4866,1.045,-0.740
4867,0.930,-0.770
4868,0.785,-0.785
4869,0.630,-0.790
4870,0.475,-0.780
4871,0.295,-0.795
4872,0.105,-0.840
4873,-0.125,-0.875
4874,-0.355,-0.940
4875,-0.585,-0.970
4876,-0.810,-1.010
4877,-1.060,-1.045
4878,-1.310,-1.085
4879,-1.540,-1.130
4880,-1.740,-1.215
4881,-1.900,-1.300
4882,-2.030,-1.415
4883,-2.125,-1.535
4884,-2.230,-1.620
4885,-2.285,-1.690
4886,-2.300,-1.730
4887,-2.285,-1.750
4888,-2.280,-1.795
4889,-2.330,-1.840
4890,-2.420,-1.900
4891,-2.510,-1.960
4892,-2.580,-2.025
4893,-2.625,-2.095
4894,-2.660,-2.110
4895,-2.700,-2.050
4896,-2.705,-1.915
4897,-2.635,-1.770
4898,-2.470,-1.595
4899,-2.210,-1.390
4900,-1.935,-1.225
4901,-1.665,-1.115
4902,-1.430,-1.040
4903,-1.225,-0.980
4904,-1.060,-0.910
4905,-0.945,-0.845
4906,-0.855,-0.740
4907,-0.765,-0.680
4908,-0.680,-0.625
4909,-0.600,-0.575
4910,-0.535,-0.535
4911,-0.495,-0.480
4912,-0.480,-0.435
4913,-0.465,-0.415
4914,-0.470,-0.405
4915,-0.460,-0.390
4916,-0.450,-0.350
4917,-0.395,-0.305
4918,-0.295,-0.280
4919,-0.215,-0.245
4920,-0.155,-0.235
4921,-0.130,-0.220
4922,-0.090,-0.200
4923,-0.030,-0.165
4924,0.005,-0.130
4925,0.065,-0.090
4926,0.115,-0.080
4927,0.140,-0.080
4928,0.160,-0.060
4929,0.215,-0.025
4930,0.255,-0.005
4931,0.310,-0.010
4932,0.320,-0.015
4933,0.310,-0.015
4934,0.305,-0.015
4935,0.325,0.010
4936,0.315,0.015
4937,0.320,0.020
4938,0.325,0.005
4939,0.330,0.005
4940,0.340,0.005
4941,0.340,0.045
4942,0.355,0.065
4943,0.370,0.075
4944,0.385,0.075
4945,0.395,0.085
4946,0.405,0.095
4947,0.435,0.105
4948,0.470,0.125
4949,0.520,0.145
4950,0.525,0.155
4951,0.545,0.150
4952,0.555,0.170
4953,0.585,0.195
4954,0.615,0.230
4955,0.650,0.235
4956,0.670,0.230
4957,0.700,0.235
4958,0.715,0.245
4959,0.755,0.270
4960,0.785,0.295
4961,0.805,0.305
4962,0.825,0.320
4963,0.840,0.320
4964,0.840,0.330
4965,0.880,0.360
4966,0.940,0.370
4967,0.980,0.370
4968,0.995,0.375
4969,0.985,0.370
4970,0.990,0.385
4971,1.020,0.395
4972,1.030,0.425
4973,1.060,0.420
4974,1.045,0.410
4975,1.050,0.415
4976,1.040,0.405
4977,1.040,0.410
4978,1.040,0.415
4979,1.040,0.420
4980,1.020,0.395
4981,0.995,0.375
4982,0.970,0.360
4983,0.960,0.355
4984,0.955,0.350
4985,0.930,0.325
4986,0.875,0.290
4987,0.830,0.255
4988,0.785,0.245
4989,0.775,0.230
4990,0.760,0.215
4991,0.710,0.195
4992,0.675,0.155
4993,0.615,0.115
4994,0.575,0.090
4995,0.535,0.065
4996,0.505,0.050
4997,0.450,0.025
4998,0.415,0.005
4999,0.365,-0.035
5000,0.315,-0.055
5001,0.275,-0.070
5002,0.225,-0.075
5003,0.175,-0.100
5004,0.130,-0.120
5005,0.105,-0.140
5006,0.055,-0.140
5007,0.035,-0.145
5008,-0.015,-0.140
5009,-0.050,-0.155
5010,-0.100,-0.170
5011,-0.130,-0.190
5012,-0.180,-0.195
5013,-0.205,-0.190
5014,-0.230,-0.185
5015,-0.240,-0.205
5016,-0.255,-0.205
5017,-0.285,-0.220
5018,-0.325,-0.220
5019,-0.350,-0.200
5020,-0.360,-0.205
5021,-0.345,-0.200
5022,-0.365,-0.210
5023,-0.390,-0.225
5024,-0.405,-0.220
5025,-0.415,-0.200
5026,-0.420,-0.205
5027,-0.420,-0.195
5028,-0.430,-0.200
5029,-0.425,-0.215
5030,-0.440,-0.195
5031,-0.455,-0.195
5032,-0.435,-0.180
5033,-0.435,-0.195
5034,-0.450,-0.200
5035,-0.465,-0.205
5036,-0.480,-0.195
5037,-0.475,-0.185
5038,-0.455,-0.175
5039,-0.450,-0.185
5040,-0.455,-0.180
5041,-0.470,-0.200
5042,-0.490,-0.170
5043,-0.485,-0.165
5044,-0.485,-0.150
5045,-0.480,-0.165
5046,-0.485,-0.180
5047,-0.495,-0.180
5048,-0.500,-0.185
5049,-0.500,-0.175
5050,-0.500,-0.155
5051,-0.490,-0.160
5052,-0.485,-0.160
5053,-0.485,-0.175
5054,-0.510,-0.170
5055,-0.500,-0.155
5056,-0.490,-0.150
5057,-0.475,-0.160
5058,-0.465,-0.160
5059,-0.470,-0.165
5060,-0.470,-0.165
5061,-0.475,-0.155
5062,-0.470,-0.160
5063,-0.470,-0.160
5064,-0.470,-0.165
5065,-0.470,-0.190
5066,-0.470,-0.185
5067,-0.465,-0.170
5068,-0.470,-0.150
5069,-0.455,-0.170
5070,-0.460,-0.170
5071,-0.455,-0.180
5072,-0.470,-0.180
5073,-0.455,-0.175
5074,-0.430,-0.165
5075,-0.400,-0.175
5076,-0.425,-0.180
5077,-0.440,-0.190
5078,-0.450,-0.185
5079,-0.450,-0.170
5080,-0.455,-0.175
5081,-0.450,-0.190
5082,-0.440,-0.205
5083,-0.455,-0.200
5084,-0.465,-0.200
5085,-0.460,-0.185
5086,-0.460,-0.175
5087,-0.455,-0.185
5088,-0.460,-0.200
5089,-0.475,-0.205
5090,-0.490,-0.210
5091,-0.490,-0.200
5092,-0.485,-0.200
5093,-0.480,-0.200
5094,-0.475,-0.205
5095,-0.455,-0.210
5096,-0.465,-0.205
5097,-0.470,-0.205
5098,-0.475,-0.185
5099,-0.490,-0.200
5100,-0.475,-0.205
5101,-0.485,-0.215
5102,-0.500,-0.205
5103,-0.495,-0.195
5104,-0.490,-0.190
5105,-0.490,-0.200
5106,-0.490,-0.200
5107,-0.490,-0.225
5108,-0.490,-0.210
5109,-0.500,-0.205
5110,-0.485,-0.200
5111,-0.480,-0.195
5112,-0.490,-0.220
5113,-0.495,-0.210
5114,-0.505,-0.210
5115,-0.500,-0.205
5116,-0.490,-0.195
5117,-0.475,-0.215
5118,-0.470,-0.205
5119,-0.475,-0.210
5120,-0.490,-0.205
5121,-0.485,-0.195
5122,-0.485,-0.200
5123,-0.480,-0.200
5124,-0.485,-0.200
5125,-0.480,-0.220
5126,-0.495,-0.210
5127,-0.485,-0.200
5128,-0.480,-0.200
5129,-0.485,-0.190
5130,-0.495,-0.205
5131,-0.505,-0.225
5132,-0.525,-0.210
5133,-0.510,-0.205
5134,-0.485,-0.205
5135,-0.480,-0.205
5136,-0.475,-0.200
5137,-0.475,-0.215
5138,-0.490,-0.205
5139,-0.490,-0.200
5140,-0.485,-0.205
5141,-0.485,-0.205
5142,-0.480,-0.210
5143,-0.470,-0.225
5144,-0.470,-0.210
5145,-0.460,-0.195
5146,-0.455,-0.190
5147,-0.460,-0.205
5148,-0.465,-0.210
5149,-0.450,-0.225
5150,-0.465,-0.225
5151,-0.455,-0.215
5152,-0.455,-0.205
5153,-0.445,-0.215
5154,-0.445,-0.225
5155,-0.445,-0.230
5156,-0.435,-0.220
5157,-0.425,-0.210
5158,-0.375,-0.325
5159,-0.345,-0.625
5160,-0.280,-0.875
5161,-0.150,-0.810
5162,0.135,-0.585
5163,0.645,-0.415
5164,1.215,-0.335
5165,1.630,-0.310
5166,1.735,-0.290
5167,1.635,-0.260
5168,1.520,-0.235
5169,1.480,-0.245
5170,1.460,-0.285
5171,1.400,-0.345
5172,1.325,-0.410
5173,1.210,-0.470
5174,1.135,-0.490
5175,1.080,-0.500
5176,1.035,-0.515
5177,0.960,-0.555
5178,0.845,-0.585
5179,0.710,-0.620
5180,0.560,-0.630
5181,0.405,-0.650
5182,0.250,-0.675
5183,0.090,-0.695
5184,-0.080,-0.750
5185,-0.260,-0.785
5186,-0.470,-0.830
5187,-0.690,-0.890
5188,-0.905,-0.920
5189,-1.125,-0.955
5190,-1.350,-1.005
5191,-1.570,-1.050
5192,-1.760,-1.135
5193,-1.930,-1.230
5194,-2.080,-1.340
5195,-2.190,-1.450
5196,-2.270,-1.555
5197,-2.360,-1.600
5198,-2.420,-1.620
5199,-2.450,-1.655
5200,-2.480,-1.715
5201,-2.535,-1.785
5202,-2.615,-1.850
5203,-2.690,-1.920
5204,-2.755,-1.985
5205,-2.800,-2.050
5206,-2.825,-2.115
5207,-2.865,-2.185
5208,-2.920,-2.190
5209,-2.960,-2.125
5210,-2.955,-2.020
5211,-2.875,-1.880
5212,-2.745,-1.755
5213,-2.580,-1.610
5214,-2.400,-1.490
5215,-2.215,-1.375
5216,-2.065,-1.265
5217,-1.910,-1.145
5218,-1.765,-1.030
5219,-1.650,-0.930
5220,-1.560,-0.845
5221,-1.485,-0.745
5222,-1.440,-0.685
5223,-1.370,-0.605
5224,-1.290,-0.525
5225,-1.215,-0.475
5226,-1.170,-0.420
5227,-1.145,-0.405
5228,-1.155,-0.360
5229,-1.135,-0.295
5230,-1.095,-0.250
5231,-1.030,-0.230
5232,-0.975,-0.205
5233,-0.925,-0.175
5234,-0.850,-0.140
5235,-0.765,-0.105
5236,-0.715,-0.055
5237,-0.660,-0.030
5238,-0.600,0.000
5239,-0.540,0.015
5240,-0.475,0.040
5241,-0.375,0.065
5242,-0.310,0.085
5243,-0.230,0.090
5244,-0.180,0.090
5245,-0.145,0.095
5246,-0.100,0.105
5247,-0.045,0.130
5248,0.010,0.155
5249,0.045,0.165
5250,0.040,0.165
5251,0.055,0.150
5252,0.070,0.175
5253,0.095,0.200
5254,0.105,0.215
5255,0.125,0.230
5256,0.145,0.225
5257,0.155,0.230
5258,0.160,0.230
5259,0.175,0.255
5260,0.205,0.270
5261,0.240,0.290
5262,0.270,0.300
5263,0.290,0.300
5264,0.305,0.335
5265,0.320,0.345
5266,0.345,0.360
5267,0.375,0.370
5268,0.415,0.390
5269,0.415,0.390
5270,0.445,0.405
5271,0.485,0.440
5272,0.525,0.455
5273,0.560,0.455
5274,0.585,0.465
5275,0.610,0.475
5276,0.635,0.495
5277,0.660,0.520
5278,0.705,0.540
5279,0.760,0.560
5280,0.815,0.570
5281,0.855,0.565
5282,0.865,0.580
5283,0.900,0.605
5284,0.920,0.630
5285,0.935,0.655
5286,0.975,0.655
5287,0.985,0.640
5288,1.005,0.650
5289,1.040,0.660
5290,1.055,0.665
5291,1.060,0.660
5292,1.055,0.655
5293,1.045,0.645
5294,1.035,0.645
5295,1.045,0.655
5296,1.070,0.655
5297,1.070,0.645
5298,1.060,0.625
5299,1.030,0.615
5300,1.015,0.605
5301,1.000,0.610
5302,0.985,0.590
5303,0.980,0.570
5304,0.955,0.530
5305,0.900,0.510
5306,0.885,0.490
5307,0.860,0.480
5308,0.835,0.455
5309,0.795,0.425
5310,0.750,0.385
5311,0.710,0.355
5312,0.655,0.325
5313,0.625,0.305
5314,0.595,0.275
5315,0.565,0.250
5316,0.525,0.205
5317,0.480,0.180
5318,0.405,0.165
5319,0.355,0.150
5320,0.320,0.140
5321,0.265,0.120
5322,0.240,0.095
5323,0.185,0.070
5324,0.145,0.045
5325,0.110,0.045
5326,0.065,0.040
5327,0.030,0.020
5328,-0.020,-0.005
5329,-0.085,-0.025
5330,-0.115,-0.035
5331,-0.150,-0.025
5332,-0.175,-0.015
5333,-0.190,-0.035
5334,-0.225,-0.035
5335,-0.240,-0.065
5336,-0.255,-0.040
5337,-0.260,-0.045
5338,-0.270,-0.030
5339,-0.310,-0.040
5340,-0.335,-0.065
5341,-0.360,-0.070
5342,-0.380,-0.075
5343,-0.405,-0.060
5344,-0.405,-0.045
5345,-0.390,-0.050
5346,-0.380,-0.065
5347,-0.410,-0.055
5348,-0.420,-0.055
5349,-0.405,-0.045
5350,-0.405,-0.040
5351,-0.400,-0.035
5352,-0.415,-0.055
5353,-0.435,-0.055
5354,-0.450,-0.055
5355,-0.450,-0.050
5356,-0.435,-0.025
5357,-0.430,-0.020
5358,-0.440,-0.025
5359,-0.445,-0.045
5360,-0.465,-0.030
5361,-0.460,-0.020
5362,-0.440,-0.010
5363,-0.445,0.005
5364,-0.435,-0.015
5365,-0.450,-0.025
5366,-0.455,-0.025
5367,-0.445,0.005
5368,-0.430,0.000
5369,-0.430,0.000
5370,-0.445,-0.005
5371,-0.450,-0.015
5372,-0.450,-0.010
5373,-0.445,0.015
5374,-0.430,0.010
5375,-0.420,0.020
5376,-0.425,0.010
5377,-0.420,0.000
5378,-0.425,0.010
5379,-0.415,0.020
5380,-0.425,0.025
5381,-0.430,0.030
5382,-0.430,0.015
5383,-0.410,0.010
5384,-0.410,0.010
5385,-0.400,0.025
5386,-0.380,0.025
5387,-0.380,0.025
5388,-0.380,0.010
5389,-0.390,0.005
5390,-0.400,0.015
5391,-0.390,0.025
5392,-0.395,0.025
5393,-0.380,0.025
5394,-0.370,0.000
5395,-0.385,0.000
5396,-0.385,0.010
5397,-0.390,0.005
5398,-0.385,0.020
5399,-0.385,0.015
5400,-0.390,0.010
5401,-0.390,-0.005
5402,-0.400,0.000
5403,-0.405,0.015
5404,-0.390,0.010
5405,-0.395,0.010
5406,-0.405,-0.005
5407,-0.420,-0.010
5408,-0.420,-0.010
5409,-0.415,0.000
5410,-0.400,0.005
5411,-0.400,0.005
5412,-0.405,-0.005
5413,-0.420,-0.005
5414,-0.430,-0.005
5415,-0.410,-0.010
5416,-0.405,-0.005
5417,-0.415,-0.005
5418,-0.415,-0.015
5419,-0.425,-0.030
5420,-0.415,-0.025
5421,-0.415,-0.015
5422,-0.415,-0.005
5423,-0.415,-0.020
5424,-0.405,-0.010
5425,-0.410,-0.035
5426,-0.415,-0.020
5427,-0.410,-0.005
5428,-0.400,0.030
5429,-0.400,0.045
5430,-0.395,0.065
5431,-0.395,0.080
5432,-0.395,0.110
5433,-0.375,0.140
5434,-0.350,0.160
5435,-0.335,0.170
5436,-0.325,0.160
5437,-0.305,0.180
5438,-0.280,0.195
5439,-0.235,0.225
5440,-0.180,0.250
5441,-0.135,0.245
5442,-0.110,0.215
5443,-0.110,0.175
5444,-0.105,0.145
5445,-0.090,0.110
5446,-0.070,0.080
5447,-0.045,0.065
5448,-0.030,0.030
5449,-0.005,0.010
5450,0.000,0.000
5451,0.005,-0.010
5452,0.000,-0.020
5453,-0.010,-0.030
5454,-0.050,-0.050
5455,-0.065,-0.070
5456,-0.085,-0.080
5457,-0.075,-0.070
5458,-0.065,-0.055
5459,-0.065,-0.055
5460,-0.075,-0.060
5461,-0.090,-0.065
5462,-0.105,-0.065
5463,-0.105,-0.065
5464,-0.100,-0.075
5465,-0.105,-0.075
5466,-0.140,-0.080
5467,-0.170,-0.095
5468,-0.205,-0.080
5469,-0.225,-0.065
5470,-0.225,-0.055
5471,-0.250,-0.040
5472,-0.270,-0.040
5473,-0.305,-0.050
5474,-0.315,-0.065
5475,-0.325,-0.060
5476,-0.325,-0.060
5477,-0.330,-0.080
5478,-0.345,-0.090
5479,-0.335,-0.185
5480,-0.310,-0.475
5481,-0.255,-0.765
5482,-0.145,-0.790
5483,0.120,-0.590
5484,0.585,-0.410
5485,1.155,-0.385
5486,1.575,-0.370
5487,1.695,-0.345
5488,1.570,-0.315
5489,1.415,-0.315
5490,1.320,-0.320
5491,1.260,-0.350
5492,1.200,-0.355
5493,1.135,-0.375
5494,1.060,-0.375
5495,0.970,-0.390
5496,0.885,-0.410
5497,0.795,-0.420
5498,0.715,-0.430
5499,0.655,-0.450
5500,0.575,-0.465
5501,0.495,-0.495
5502,0.380,-0.515
5503,0.260,-0.545
5504,0.145,-0.580
5505,0.025,-0.595
5506,-0.080,-0.620
5507,-0.205,-0.670
5508,-0.345,-0.745
5509,-0.500,-0.810
5510,-0.625,-0.870
5511,-0.765,-0.895
5512,-0.910,-0.930
5513,-1.100,-0.955
5514,-1.275,-1.035
5515,-1.440,-1.130
5516,-1.615,-1.235
5517,-1.765,-1.355
5518,-1.865,-1.455
5519,-1.940,-1.555
5520,-2.015,-1.620
5521,-2.065,-1.690
5522,-2.115,-1.760
5523,-2.125,-1.815
5524,-2.140,-1.875
5525,-2.205,-1.930
5526,-2.325,-2.005
5527,-2.415,-2.065
5528,-2.490,-2.115
5529,-2.535,-2.160
5530,-2.600,-2.185
5531,-2.645,-2.140
5532,-2.675,-2.070
5533,-2.670,-1.970
5534,-2.585,-1.840
5535,-2.445,-1.700
5536,-2.300,-1.565
5537,-2.165,-1.450
5538,-2.020,-1.325
5539,-1.865,-1.210
5540,-1.720,-1.075
5541,-1.585,-0.980
5542,-1.505,-0.865
5543,-1.465,-0.760
5544,-1.425,-0.685
5545,-1.385,-0.615
5546,-1.350,-0.555
5547,-1.290,-0.475
5548,-1.245,-0.395
5549,-1.185,-0.330
5550,-1.165,-0.285
5551,-1.150,-0.225
5552,-1.145,-0.175
5553,-1.105,-0.110
5554,-1.060,-0.070
5555,-0.995,-0.035
5556,-0.935,0.010
5557,-0.870,0.035
5558,-0.790,0.075
5559,-0.720,0.125
5560,-0.660,0.155
5561,-0.605,0.195
5562,-0.550,0.210
5563,-0.475,0.240
5564,-0.390,0.255
5565,-0.295,0.280
5566,-0.215,0.300
5567,-0.150,0.300
5568,-0.095,0.315
5569,-0.030,0.320
5570,0.020,0.330
5571,0.065,0.340
5572,0.110,0.340
5573,0.140,0.355
5574,0.140,0.360
5575,0.155,0.355
5576,0.170,0.380
5577,0.200,0.395
5578,0.245,0.405
5579,0.255,0.420
5580,0.280,0.405
5581,0.300,0.425
5582,0.310,0.435
5583,0.350,0.460
5584,0.370,0.470
5585,0.400,0.475
5586,0.405,0.480
5587,0.425,0.475
5588,0.450,0.510
5589,0.490,0.525
5590,0.515,0.540
5591,0.540,0.550
5592,0.560,0.545
5593,0.565,0.555
5594,0.585,0.570
5595,0.625,0.605
5596,0.665,0.620
5597,0.690,0.640
5598,0.730,0.635
5599,0.750,0.660
5600,0.760,0.670
5601,0.805,0.700
5602,0.845,0.710
5603,0.875,0.725
5604,0.885,0.730
5605,0.915,0.730
5606,0.940,0.760
5607,0.970,0.765
5608,0.995,0.795
5609,1.030,0.800
5610,1.040,0.795
5611,1.060,0.805
5612,1.070,0.830
5613,1.080,0.840
5614,1.110,0.850
5615,1.100,0.850
5616,1.110,0.845
5617,1.095,0.845
5618,1.095,0.835
5619,1.110,0.840
5620,1.115,0.835
5621,1.105,0.830
5622,1.080,0.810
5623,1.070,0.800
5624,1.045,0.790
5625,1.040,0.785
5626,1.025,0.755
5627,1.020,0.745
5628,0.980,0.710
5629,0.940,0.670
5630,0.905,0.655
5631,0.880,0.640
5632,0.865,0.620
5633,0.825,0.595
5634,0.785,0.535
5635,0.745,0.500
5636,0.705,0.480
5637,0.675,0.445
5638,0.635,0.435
5639,0.595,0.395
5640,0.555,0.350
5641,0.495,0.300
5642,0.445,0.285
5643,0.410,0.270
5644,0.375,0.255
5645,0.335,0.225
5646,0.270,0.185
5647,0.235,0.165
5648,0.195,0.145
5649,0.150,0.140
5650,0.110,0.120
5651,0.070,0.105
5652,0.030,0.085
5653,-0.030,0.065
5654,-0.050,0.055
5655,-0.075,0.080
5656,-0.100,0.065
5657,-0.120,0.070
5658,-0.165,0.045
5659,-0.200,0.020
5660,-0.225,0.035
5661,-0.230,0.040
5662,-0.245,0.040
5663,-0.255,0.045
5664,-0.270,0.040
5665,-0.300,0.020
5666,-0.325,0.020
5667,-0.325,0.040
5668,-0.315,0.030
5669,-0.320,0.045
5670,-0.335,0.035
5671,-0.345,0.025
5672,-0.360,0.025
5673,-0.350,0.035
5674,-0.365,0.050
5675,-0.365,0.050
5676,-0.370,0.035
5677,-0.375,0.030
5678,-0.390,0.030
5679,-0.385,0.045
5680,-0.380,0.040
5681,-0.370,0.050
5682,-0.380,0.030
5683,-0.395,0.040
5684,-0.405,0.040
5685,-0.395,0.050
5686,-0.380,0.050
5687,-0.380,0.045
5688,-0.385,0.045
5689,-0.385,0.055
5690,-0.390,0.045
5691,-0.380,0.060
5692,-0.375,0.075
5693,-0.375,0.070
5694,-0.385,0.070
5695,-0.385,0.060
5696,-0.390,0.060
5697,-0.375,0.075
5698,-0.375,0.090
5699,-0.370,0.105
5700,-0.380,0.120
5701,-0.375,0.140
5702,-0.370,0.175
5703,-0.345,0.210
5704,-0.315,0.245
5705,-0.300,0.255
5706,-0.290,0.250
5707,-0.280,0.250
5708,-0.250,0.265
5709,-0.205,0.315
5710,-0.155,0.350
5711,-0.115,0.365
5712,-0.100,0.360
5713,-0.080,0.300
5714,-0.055,0.280
5715,-0.035,0.225
5716,-0.015,0.195
5717,0.005,0.155
5718,0.035,0.130
5719,0.040,0.100
5720,0.035,0.090
5721,0.030,0.085
5722,0.020,0.065
5723,-0.010,0.050
5724,-0.025,0.025
5725,-0.045,0.010
5726,-0.065,0.005
5727,-0.055,0.010
5728,-0.035,0.025
5729,-0.055,0.015
5730,-0.065,0.000
5731,-0.080,-0.010
5732,-0.100,0.000
5733,-0.105,-0.010
5734,-0.115,-0.005
5735,-0.140,-0.015
5736,-0.175,-0.020
5737,-0.205,-0.015
5738,-0.235,0.000
5739,-0.250,0.025
5740,-0.265,0.035
5741,-0.290,0.045
5742,-0.320,0.020
5743,-0.350,-0.005
5744,-0.380,0.000
5745,-0.380,0.010
5746,-0.400,0.010
5747,-0.410,-0.010
5748,-0.435,-0.010
5749,-0.460,-0.020
5750,-0.490,-0.015
5751,-0.490,-0.005
5752,-0.500,-0.005
5753,-0.510,-0.005
5754,-0.525,-0.025
5755,-0.525,-0.030
5756,-0.535,-0.025
5757,-0.525,0.000
5758,-0.530,-0.005
5759,-0.530,-0.005
5760,-0.530,-0.015
5761,-0.540,-0.015
5762,-0.550,-0.005
5763,-0.545,0.010
5764,-0.525,0.005
5765,-0.530,0.020
5766,-0.535,0.010
5767,-0.540,0.000
5768,-0.550,-0.005
5769,-0.535,0.005
5770,-0.530,0.010
5771,-0.525,0.020
5772,-0.530,0.020
5773,-0.545,0.025
5774,-0.540,0.025
5775,-0.535,0.050
5776,-0.525,0.050
5777,-0.520,0.030
5778,-0.515,0.020
5779,-0.535,0.010
5780,-0.535,0.050
5781,-0.520,0.065
5782,-0.515,0.070
5783,-0.500,0.055
5784,-0.510,0.045
5785,-0.525,0.030
5786,-0.525,0.045
5787,-0.520,0.060
5788,-0.495,0.065
5789,-0.490,0.065
5790,-0.470,0.045
5791,-0.460,0.025
5792,-0.455,0.035
5793,-0.425,0.025
5794,-0.395,-0.160
5795,-0.360,-0.500
5796,-0.260,-0.665
5797,-0.040,-0.495
5798,0.430,-0.255
5799,1.065,-0.145
5800,1.590,-0.145
5801,1.695,-0.140
5802,1.540,-0.130
5803,1.350,-0.120
5804,1.245,-0.115
5805,1.190,-0.110
5806,1.150,-0.130
5807,1.065,-0.140
5808,0.975,-0.160
5809,0.890,-0.200
5810,0.825,-0.200
5811,0.770,-0.210
5812,0.720,-0.225
5813,0.665,-0.250
5814,0.580,-0.295
5815,0.480,-0.335
5816,0.395,-0.355
5817,0.305,-0.365
5818,0.235,-0.405
5819,0.135,-0.450
5820,0.020,-0.530
5821,-0.115,-0.605
5822,-0.250,-0.660
5823,-0.375,-0.695
5824,-0.525,-0.735
5825,-0.640,-0.775
5826,-0.780,-0.845
5827,-0.955,-0.940
5828,-1.125,-1.035
5829,-1.265,-1.125
5830,-1.380,-1.220
5831,-1.480,-1.290
5832,-1.540,-1.375
5833,-1.615,-1.430
5834,-1.660,-1.510
5835,-1.710,-1.560
5836,-1.770,-1.620
5837,-1.860,-1.670
5838,-1.990,-1.740
5839,-2.100,-1.820
5840,-2.170,-1.880
5841,-2.220,-1.930
5842,-2.285,-1.930
5843,-2.350,-1.830
5844,-2.375,-1.715
5845,-2.345,-1.595
5846,-2.240,-1.440
5847,-2.125,-1.275
5848,-2.005,-1.135
5849,-1.885,-1.005
5850,-1.740,-0.890
5851,-1.625,-0.820
5852,-1.540,-0.700
5853,-1.455,-0.590
5854,-1.395,-0.490
5855,-1.300,-0.400
5856,-1.245,-0.345
5857,-1.205,-0.280
5858,-1.165,-0.225
5859,-1.110,-0.155
5860,-1.065,-0.080
5861,-1.030,-0.045
5862,-1.025,-0.010
5863,-1.015,0.005
5864,-0.990,0.050
5865,-0.945,0.105
5866,-0.880,0.145
5867,-0.810,0.170
5868,-0.750,0.200
5869,-0.700,0.225
5870,-0.650,0.270
5871,-0.580,0.305
5872,-0.500,0.340
5873,-0.420,0.370
5874,-0.335,0.395
5875,-0.265,0.395
5876,-0.205,0.425
5877,-0.130,0.445
5878,-0.070,0.455
5879,-0.005,0.455
5880,0.060,0.450
5881,0.095,0.460
5882,0.115,0.475
5883,0.135,0.495
5884,0.155,0.505
5885,0.165,0.515
5886,0.175,0.505
5887,0.195,0.515
5888,0.200,0.535
5889,0.225,0.550
5890,0.260,0.570
5891,0.275,0.580
5892,0.290,0.580
5893,0.300,0.580
5894,0.310,0.590
5895,0.330,0.605
5896,0.365,0.635
5897,0.390,0.635
5898,0.405,0.640
5899,0.420,0.645
5900,0.430,0.670
5901,0.475,0.695
5902,0.490,0.705
5903,0.520,0.710
5904,0.550,0.725
5905,0.560,0.725
5906,0.575,0.745
5907,0.620,0.770
5908,0.640,0.800
5909,0.670,0.815
5910,0.690,0.815
5911,0.715,0.820
5912,0.745,0.850
5913,0.765,0.870
5914,0.800,0.895
5915,0.820,0.900
5916,0.835,0.895
5917,0.855,0.915
5918,0.885,0.940
5919,0.920,0.950
5920,0.920,0.970
5921,0.945,0.965
5922,0.945,0.965
5923,0.960,0.955
5924,0.955,0.970
5925,0.975,0.980
5926,0.985,0.990
5927,0.985,0.980
5928,0.980,0.975
5929,0.970,0.970
5930,0.950,0.975
5931,0.955,0.975
5932,0.955,0.970
5933,0.950,0.950
5934,0.945,0.930
5935,0.920,0.900
5936,0.900,0.885
5937,0.885,0.875
5938,0.855,0.855
5939,0.840,0.820
5940,0.800,0.775
5941,0.765,0.735
5942,0.735,0.700
5943,0.700,0.695
5944,0.685,0.660
5945,0.650,0.635
5946,0.605,0.580
5947,0.570,0.530
5948,0.530,0.515
5949,0.505,0.495
5950,0.475,0.465
5951,0.445,0.450
5952,0.365,0.405
5953,0.315,0.380
5954,0.275,0.360
5955,0.250,0.345
5956,0.220,0.340
5957,0.175,0.315
5958,0.125,0.300
5959,0.085,0.275
5960,0.040,0.265
5961,0.005,0.280
5962,-0.015,0.305
5963,-0.040,0.320
5964,-0.060,0.350
5965,-0.100,0.350
5966,-0.115,0.365
5967,-0.115,0.385
5968,-0.125,0.400
5969,-0.110,0.380
5970,-0.100,0.395
5971,-0.085,0.405
5972,-0.055,0.440
5973,0.005,0.465
5974,0.050,0.450
5975,0.070,0.430
5976,0.070,0.390
5977,0.060,0.340
5978,0.065,0.320
5979,0.070,0.295
5980,0.085,0.280
5981,0.095,0.265
5982,0.070,0.250
5983,0.050,0.225
5984,0.010,0.205
5985,-0.030,0.190
5986,-0.050,0.190
5987,-0.055,0.185
5988,-0.075,0.185
5989,-0.095,0.180
5990,-0.100,0.195
5991,-0.090,0.200
5992,-0.100,0.200
5993,-0.110,0.195
5994,-0.150,0.195
5995,-0.170,0.170
5996,-0.195,0.195
5997,-0.205,0.205
5998,-0.210,0.215
5999,-0.235,0.210
6000,-0.260,0.225
6001,-0.285,0.215
6002,-0.330,0.225
6003,-0.350,0.230
6004,-0.370,0.235
6005,-0.400,0.230
6006,-0.420,0.220
6007,-0.470,0.210
6008,-0.470,0.205
6009,-0.465,0.200
6010,-0.450,0.200
6011,-0.465,0.195
6012,-0.475,0.175
6013,-0.505,0.170
6014,-0.545,0.185
6015,-0.540,0.190
6016,-0.535,0.195
6017,-0.530,0.195
6018,-0.545,0.200
6019,-0.555,0.165
6020,-0.555,0.175
6021,-0.550,0.185
6022,-0.545,0.195
6023,-0.550,0.195
6024,-0.550,0.165
6025,-0.570,0.160
6026,-0.585,0.165
6027,-0.570,0.170
6028,-0.570,0.185
6029,-0.560,0.180
6030,-0.580,0.175
6031,-0.590,0.160
6032,-0.585,0.150
6033,-0.580,0.170
6034,-0.585,0.165
6035,-0.600,0.175
6036,-0.590,0.170
6037,-0.570,0.150
6038,-0.565,0.155
6039,-0.585,0.175
6040,-0.585,0.175
6041,-0.590,0.175
6042,-0.585,0.185
6043,-0.565,0.165
6044,-0.560,0.165
6045,-0.560,0.180
6046,-0.560,0.175
6047,-0.565,0.170
6048,-0.585,0.175
6049,-0.595,0.170
6050,-0.585,0.165
6051,-0.585,0.175
6052,-0.575,0.180
6053,-0.580,0.195
6054,-0.590,0.195
6055,-0.610,0.185
6056,-0.605,0.175
6057,-0.580,0.185
6058,-0.570,0.185
6059,-0.565,0.190
6060,-0.595,0.175
6061,-0.590,0.185
6062,-0.590,0.200
6063,-0.585,0.210
6064,-0.580,0.205
6065,-0.570,0.225
6066,-0.570,0.200
6067,-0.580,0.190
6068,-0.590,0.195
6069,-0.570,0.215
6070,-0.565,0.230
6071,-0.565,0.230
6072,-0.560,0.220
6073,-0.560,0.195
6074,-0.575,0.215
6075,-0.545,0.220
6076,-0.540,0.230
6077,-0.540,0.235
6078,-0.545,0.230
6079,-0.545,0.235
6080,-0.530,0.225
6081,-0.525,0.240
6082,-0.510,0.240
6083,-0.505,0.235
6084,-0.505,0.230
6085,-0.500,0.220
6086,-0.500,0.225
6087,-0.490,0.225
6088,-0.480,0.235
6089,-0.475,0.235
6090,-0.470,0.215
6091,-0.470,0.215
6092,-0.465,0.215
6093,-0.460,0.220
6094,-0.450,0.220
6095,-0.435,0.215
6096,-0.420,0.205
6097,-0.430,0.190
6098,-0.405,0.140
6099,-0.370,-0.105
6100,-0.310,-0.415
6101,-0.210,-0.515
6102,0.035,-0.325
6103,0.485,-0.140
6104,1.115,-0.045
6105,1.590,-0.035
6106,1.720,-0.035
6107,1.565,-0.025
6108,1.385,-0.015
6109,1.275,-0.035
6110,1.210,-0.030
6111,1.140,-0.050
6112,1.060,-0.055
6113,0.965,-0.085
6114,0.875,-0.110
6115,0.775,-0.135
6116,0.675,-0.150
6117,0.595,-0.175
6118,0.490,-0.180
6119,0.360,-0.205
6120,0.220,-0.230
6121,0.070,-0.270
6122,-0.090,-0.310
6123,-0.230,-0.355
6124,-0.385,-0.415
6125,-0.565,-0.485
6126,-0.745,-0.545
6127,-0.930,-0.580
6128,-1.110,-0.630
6129,-1.285,-0.690
6130,-1.445,-0.765
6131,-1.615,-0.885
6132,-1.785,-1.025
6133,-1.930,-1.150
6134,-2.060,-1.225
6135,-2.115,-1.270
6136,-2.145,-1.345
6137,-2.185,-1.440
6138,-2.250,-1.535
6139,-2.335,-1.620
6140,-2.420,-1.700
6141,-2.470,-1.770
6142,-2.520,-1.870
6143,-2.580,-1.920
6144,-2.640,-1.885
6145,-2.685,-1.795
6146,-2.670,-1.650
6147,-2.575,-1.490
6148,-2.425,-1.325
6149,-2.255,-1.175
6150,-2.085,-1.050
6151,-1.890,-0.910
6152,-1.715,-0.800
6153,-1.565,-0.670
6154,-1.460,-0.550
6155,-1.385,-0.445
6156,-1.315,-0.360
6157,-1.240,-0.300
6158,-1.180,-0.205
6159,-1.110,-0.125
6160,-1.065,-0.050
6161,-1.035,-0.005
6162,-1.025,0.040
6163,-1.020,0.080
6164,-1.005,0.145
6165,-0.945,0.190
6166,-0.875,0.240
6167,-0.805,0.290
6168,-0.755,0.310
6169,-0.695,0.340
6170,-0.650,0.375
6171,-0.580,0.425
6172,-0.515,0.465
6173,-0.445,0.490
6174,-0.355,0.495
6175,-0.290,0.520
6176,-0.215,0.545
6177,-0.135,0.570
6178,-0.060,0.565
6179,-0.005,0.580
6180,0.050,0.590
6181,0.105,0.580
6182,0.120,0.610
6183,0.145,0.625
6184,0.175,0.640
6185,0.185,0.650
6186,0.215,0.655
6187,0.235,0.655
6188,0.245,0.675
6189,0.260,0.680
6190,0.265,0.695
6191,0.280,0.705
6192,0.300,0.710
6193,0.325,0.715
6194,0.355,0.745
6195,0.365,0.765
6196,0.405,0.780
6197,0.440,0.790
6198,0.460,0.800
6199,0.465,0.810
6200,0.475,0.830
6201,0.520,0.845
6202,0.555,0.880
6203,0.580,0.880
6204,0.610,0.900
6205,0.625,0.905
6206,0.665,0.930
6207,0.695,0.960
6208,0.720,0.985
6209,0.730,1.000
6210,0.775,1.020
6211,0.795,1.030
6212,0.815,1.085
6213,0.840,1.130
6214,0.865,1.185
6215,0.905,1.225
6216,0.935,1.255
6217,0.960,1.270
6218,0.970,1.310
6219,1.015,1.320
6220,1.050,1.350
6221,1.090,1.375
6222,1.110,1.380
6223,1.125,1.390
6224,1.155,1.415
6225,1.195,1.400
6226,1.220,1.375
6227,1.215,1.315
6228,1.215,1.270
6229,1.215,1.215
6230,1.215,1.185
6231,1.225,1.170
6232,1.220,1.130
6233,1.200,1.075
6234,1.155,1.010
6235,1.090,0.965
6236,1.045,0.905
6237,1.025,0.870
6238,0.995,0.835
6239,0.960,0.805
6240,0.925,0.750
6241,0.880,0.710
6242,0.860,0.675
6243,0.810,0.635
6244,0.775,0.605
6245,0.730,0.570
6246,0.670,0.525
6247,0.595,0.480
6248,0.525,0.460
6249,0.475,0.445
6250,0.425,0.435
6251,0.355,0.410
6252,0.280,0.380
6253,0.190,0.350
6254,0.115,0.330
6255,0.055,0.315
6256,0.010,0.300
6257,-0.045,0.300
6258,-0.100,0.260
6259,-0.170,0.245
6260,-0.210,0.235
6261,-0.230,0.230
6262,-0.270,0.220
6263,-0.320,0.225
6264,-0.365,0.210
6265,-0.415,0.190
6266,-0.435,0.190
6267,-0.450,0.195
6268,-0.460,0.195
6269,-0.470,0.200
6270,-0.490,0.185
6271,-0.515,0.175
6272,-0.535,0.190
6273,-0.545,0.200
6274,-0.535,0.200
6275,-0.535,0.205
6276,-0.545,0.190
6277,-0.555,0.185
6278,-0.580,0.195
6279,-0.570,0.195
6280,-0.580,0.215
6281,-0.575,0.220
6282,-0.590,0.210
6283,-0.605,0.205
6284,-0.615,0.210
6285,-0.600,0.215
6286,-0.595,0.215
6287,-0.600,0.225
6288,-0.605,0.215
6289,-0.620,0.210
6290,-0.625,0.220
6291,-0.615,0.230
6292,-0.605,0.235
6293,-0.610,0.225
6294,-0.625,0.230
6295,-0.625,0.230
6296,-0.620,0.230
6297,-0.625,0.255
6298,-0.630,0.255
6299,-0.625,0.250
6300,-0.625,0.250
6301,-0.620,0.240
6302,-0.615,0.240
6303,-0.610,0.250
6304,-0.600,0.260
6305,-0.600,0.250
6306,-0.605,0.250
6307,-0.615,0.245
6308,-0.610,0.260
6309,-0.600,0.245
6310,-0.605,0.275
6311,-0.600,0.265
6312,-0.605,0.265
6313,-0.595,0.255
6314,-0.610,0.265
6315,-0.605,0.260
6316,-0.590,0.265
6317,-0.585,0.260
6318,-0.590,0.250
6319,-0.590,0.250
6320,-0.600,0.260
6321,-0.580,0.260
6322,-0.570,0.270
6323,-0.580,0.265
6324,-0.605,0.265
6325,-0.610,0.240
6326,-0.605,0.255
6327,-0.590,0.260
6328,-0.585,0.265
6329,-0.580,0.270
6330,-0.580,0.265
6331,-0.585,0.260
6332,-0.585,0.250
6333,-0.575,0.270
6334,-0.575,0.280
6335,-0.575,0.270
6336,-0.570,0.265
6337,-0.585,0.255
6338,-0.585,0.270
6339,-0.580,0.275
6340,-0.565,0.280
6341,-0.565,0.280
6342,-0.560,0.270
6343,-0.560,0.250
6344,-0.570,0.265
6345,-0.550,0.275
6346,-0.555,0.275
6347,-0.545,0.265
6348,-0.550,0.260
6349,-0.555,0.265
6350,-0.555,0.270
6351,-0.555,0.285
6352,-0.540,0.275
6353,-0.535,0.275
6354,-0.535,0.280
6355,-0.545,0.260
6356,-0.540,0.265
6357,-0.535,0.280
6358,-0.530,0.300
6359,-0.515,0.285
6360,-0.525,0.270
6361,-0.525,0.275
6362,-0.525,0.285
6363,-0.515,0.300
6364,-0.490,0.315
6365,-0.495,0.315
6366,-0.490,0.300
6367,-0.505,0.315
6368,-0.515,0.320
6369,-0.485,0.330
6370,-0.480,0.330
6371,-0.480,0.335
6372,-0.485,0.330
6373,-0.505,0.320
6374,-0.505,0.325
6375,-0.475,0.330
6376,-0.465,0.340
6377,-0.465,0.330
6378,-0.460,0.320
6379,-0.460,0.320
6380,-0.460,0.325
6381,-0.440,0.325
6382,-0.430,0.330
6383,-0.425,0.330
6384,-0.435,0.320
6385,-0.430,0.310
6386,-0.435,0.325
6387,-0.440,0.335
6388,-0.425,0.335
6389,-0.415,0.325
6390,-0.415,0.310
6391,-0.410,0.300
6392,-0.415,0.295
6393,-0.400,0.305
6394,-0.370,0.305
6395,-0.355,0.305
6396,-0.345,0.260
6397,-0.325,0.085
6398,-0.295,-0.225
6399,-0.205,-0.390
6400,-0.025,-0.290
6401,0.355,-0.065
6402,0.920,0.035
6403,1.460,0.045
6404,1.715,0.060
6405,1.655,0.085
6406,1.480,0.100
6407,1.370,0.100
6408,1.295,0.090
6409,1.225,0.060
6410,1.140,0.050
6411,1.050,0.045
6412,0.970,0.030
6413,0.870,0.005
6414,0.785,-0.015
6415,0.710,-0.055
6416,0.615,-0.065
6417,0.520,-0.085
6418,0.430,-0.090
6419,0.310,-0.120
6420,0.180,-0.155
6421,0.040,-0.200
6422,-0.100,-0.245
6423,-0.245,-0.285
6424,-0.405,-0.350
6425,-0.605,-0.395
6426,-0.835,-0.450
6427,-1.075,-0.500
6428,-1.285,-0.555
6429,-1.475,-0.625
6430,-1.620,-0.725
6431,-1.745,-0.860
6432,-1.845,-0.990
6433,-1.950,-1.080
6434,-2.010,-1.125
6435,-2.060,-1.175
6436,-2.090,-1.275
6437,-2.135,-1.345
6438,-2.225,-1.460
6439,-2.310,-1.565
6440,-2.365,-1.650
6441,-2.410,-1.745
6442,-2.465,-1.785
6443,-2.525,-1.750
6444,-2.570,-1.640
6445,-2.565,-1.500
6446,-2.480,-1.340
6447,-2.295,-1.170
6448,-2.095,-1.010
6449,-1.895,-0.880
6450,-1.730,-0.800
6451,-1.595,-0.700
6452,-1.460,-0.580
6453,-1.340,-0.475
6454,-1.255,-0.350
6455,-1.170,-0.260
6456,-1.130,-0.190
6457,-1.085,-0.130
6458,-1.050,-0.050
6459,-1.000,0.035
6460,-0.965,0.085
6461,-0.950,0.135
6462,-0.955,0.160
6463,-0.945,0.195
6464,-0.915,0.245
6465,-0.850,0.290
6466,-0.790,0.340
6467,-0.720,0.385
6468,-0.670,0.425
6469,-0.630,0.485
6470,-0.570,0.555
6471,-0.495,0.620
6472,-0.415,0.675
6473,-0.320,0.730
6474,-0.210,0.765
6475,-0.105,0.770
6476,-0.010,0.815
6477,0.080,0.840
6478,0.165,0.880
6479,0.265,0.915
6480,0.345,0.940
6481,0.425,0.925
6482,0.470,0.920
6483,0.510,0.905
6484,0.555,0.850
6485,0.575,0.815
6486,0.610,0.775
6487,0.640,0.745
6488,0.685,0.745
6489,0.720,0.735
6490,0.725,0.730
6491,0.720,0.740
6492,0.695,0.725
6493,0.695,0.720
6494,0.705,0.725
6495,0.740,0.745
6496,0.775,0.765
6497,0.810,0.790
6498,0.825,0.780
6499,0.840,0.780
6500,0.835,0.805
6501,0.860,0.820
6502,0.890,0.850
6503,0.910,0.850
6504,0.910,0.875
6505,0.910,0.885
6506,0.905,0.920
6507,0.935,0.935
6508,0.955,0.970
6509,0.975,0.985
6510,0.965,0.990
6511,0.975,0.990
6512,0.980,1.010
6513,0.995,1.025
6514,1.025,1.045
6515,1.025,1.050
6516,1.035,1.040
6517,1.040,1.035
6518,1.050,1.040
6519,1.060,1.060
6520,1.095,1.080
6521,1.085,1.075
6522,1.085,1.060
6523,1.085,1.060
6524,1.080,1.070
6525,1.075,1.085
6526,1.090,1.080
6527,1.080,1.075
6528,1.070,1.075
6529,1.035,1.045
6530,1.025,1.035
6531,1.030,1.035
6532,1.015,1.025
6533,0.985,0.995
6534,0.950,0.975
6535,0.920,0.935
6536,0.880,0.910
6537,0.860,0.895
6538,0.850,0.880
6539,0.810,0.855
6540,0.770,0.805
6541,0.715,0.770
6542,0.675,0.735
6543,0.655,0.705
6544,0.610,0.690
6545,0.565,0.645
6546,0.525,0.610
6547,0.460,0.565
6548,0.410,0.540
6549,0.380,0.520
6550,0.335,0.495
6551,0.285,0.455
6552,0.230,0.430
6553,0.175,0.415
6554,0.130,0.380
6555,0.105,0.380
6556,0.065,0.375
6557,0.025,0.345
6558,-0.030,0.325
6559,-0.085,0.295
6560,-0.125,0.300
6561,-0.165,0.300
6562,-0.185,0.300
6563,-0.215,0.280
6564,-0.245,0.265
6565,-0.275,0.255
6566,-0.300,0.265
6567,-0.320,0.275
6568,-0.340,0.280
6569,-0.365,0.265
6570,-0.390,0.265
6571,-0.415,0.265
6572,-0.425,0.270
6573,-0.425,0.280
6574,-0.430,0.280
6575,-0.430,0.275
6576,-0.440,0.280
6577,-0.455,0.265
6578,-0.465,0.280
6579,-0.460,0.305
6580,-0.460,0.295
6581,-0.465,0.300
6582,-0.485,0.285
6583,-0.485,0.280
6584,-0.490,0.305
6585,-0.495,0.320
6586,-0.475,0.325
6587,-0.480,0.330
6588,-0.490,0.320
6589,-0.495,0.325
6590,-0.500,0.335
6591,-0.495,0.345
6592,-0.500,0.350
6593,-0.495,0.335
6594,-0.485,0.330
6595,-0.490,0.330
6596,-0.500,0.345
6597,-0.490,0.365
6598,-0.485,0.365
6599,-0.495,0.375
6600,-0.490,0.355
6601,-0.490,0.340
6602,-0.490,0.355
6603,-0.480,0.365
6604,-0.460,0.385
6605,-0.455,0.375
6606,-0.455,0.370
6607,-0.475,0.365
6608,-0.470,0.365
6609,-0.450,0.360
6610,-0.440,0.365
6611,-0.435,0.370
6612,-0.445,0.355
6613,-0.455,0.355
6614,-0.450,0.360
6615,-0.440,0.365
6616,-0.430,0.375
6617,-0.430,0.360
6618,-0.430,0.365
6619,-0.425,0.335
6620,-0.435,0.355
6621,-0.425,0.355
6622,-0.415,0.355
6623,-0.420,0.345
6624,-0.415,0.345
6625,-0.420,0.335
6626,-0.425,0.340
6627,-0.405,0.350
6628,-0.400,0.355
6629,-0.390,0.345
6630,-0.400,0.340
6631,-0.410,0.330
6632,-0.410,0.340
6633,-0.410,0.335
6634,-0.410,0.335
6635,-0.405,0.330
6636,-0.400,0.335
6637,-0.405,0.310
6638,-0.405,0.325
6639,-0.405,0.330
6640,-0.395,0.350
6641,-0.400,0.345
6642,-0.410,0.320
6643,-0.430,0.310
6644,-0.425,0.300
6645,-0.420,0.315
6646,-0.410,0.320
6647,-0.400,0.325
6648,-0.400,0.315
6649,-0.415,0.310
6650,-0.420,0.310
6651,-0.420,0.315
6652,-0.400,0.320
6653,-0.395,0.325
6654,-0.395,0.305
6655,-0.395,0.310
6656,-0.395,0.305
6657,-0.395,0.310
6658,-0.380,0.320
6659,-0.385,0.310
6660,-0.400,0.285
6661,-0.410,0.295
6662,-0.410,0.300
6663,-0.385,0.300
6664,-0.370,0.300
6665,-0.365,0.295
6666,-0.375,0.290
6667,-0.380,0.285
6668,-0.375,0.280
6669,-0.370,0.295
6670,-0.365,0.295
6671,-0.370,0.295
6672,-0.360,0.280
6673,-0.380,0.275
6674,-0.380,0.275
6675,-0.380,0.290
6676,-0.370,0.290
6677,-0.360,0.290
6678,-0.370,0.280
6679,-0.375,0.285
6680,-0.375,0.265
6681,-0.360,0.280
6682,-0.350,0.285
6683,-0.360,0.275
6684,-0.375,0.275
6685,-0.375,0.255
6686,-0.375,0.270
6687,-0.370,0.275
