'sample interval','MLII','V1'
'0.00277778 sec','mV','mV'
0,-0.875,-0.650
1,-0.875,-0.650
2,-0.875,-0.650
3,-0.875,-0.650
4,-0.875,-0.650
5,-0.875,-0.650
6,-0.875,-0.650
7,-0.860,-0.650
8,-0.850,-0.650
9,-0.840,-0.665
10,-0.840,-0.665
11,-0.825,-0.660
12,-0.830,-0.675
13,-0.835,-0.680
14,-0.845,-0.685
15,-0.855,-0.680
16,-0.850,-0.680
17,-0.855,-0.675
18,-0.850,-0.670
19,-0.835,-0.660
20,-0.825,-0.650
21,-0.825,-0.650
22,-0.840,-0.650
23,-0.840,-0.670
24,-0.825,-0.675
25,-0.825,-0.680
26,-0.830,-0.705
27,-0.825,-0.695
28,-0.835,-0.695
29,-0.830,-0.675
30,-0.835,-0.665
31,-0.830,-0.655
32,-0.820,-0.650
33,-0.805,-0.660
34,-0.805,-0.670
35,-0.805,-0.670
36,-0.810,-0.685
37,-0.815,-0.685
38,-0.820,-0.695
39,-0.830,-0.700
40,-0.830,-0.685
41,-0.825,-0.685
42,-0.840,-0.670
43,-0.825,-0.665
44,-0.800,-0.655
45,-0.795,-0.660
46,-0.795,-0.665
47,-0.800,-0.675
48,-0.805,-0.675
49,-0.805,-0.680
50,-0.805,-0.680
51,-0.810,-0.690
52,-0.810,-0.675
53,-0.815,-0.675
54,-0.815,-0.670
55,-0.805,-0.665
56,-0.800,-0.660
57,-0.790,-0.660
58,-0.800,-0.665
59,-0.800,-0.680
60,-0.805,-0.685
61,-0.820,-0.680
62,-0.825,-0.690
63,-0.825,-0.695
64,-0.820,-0.685
65,-0.815,-0.680
66,-0.805,-0.665
67,-0.800,-0.660
68,-0.795,-0.675
69,-0.800,-0.665
70,-0.785,-0.680
71,-0.800,-0.670
72,-0.795,-0.685
73,-0.800,-0.690
74,-0.810,-0.695
75,-0.810,-0.695
76,-0.810,-0.685
77,-0.815,-0.685
78,-0.815,-0.665
79,-0.800,-0.670
80,-0.785,-0.655
81,-0.790,-0.665
82,-0.780,-0.670
83,-0.795,-0.670
84,-0.795,-0.680
85,-0.795,-0.690
86,-0.800,-0.700
87,-0.805,-0.695
88,-0.815,-0.695
89,-0.805,-0.690
90,-0.800,-0.670
91,-0.790,-0.675
92,-0.795,-0.670
93,-0.790,-0.660
94,-0.785,-0.670
95,-0.780,-0.665
96,-0.770,-0.670
97,-0.775,-0.675
98,-0.785,-0.665
99,-0.795,-0.670
100,-0.795,-0.660
101,-0.775,-0.665
102,-0.775,-0.655
103,-0.755,-0.665
104,-0.750,-0.660
105,-0.740,-0.680
106,-0.740,-0.700
107,-0.740,-0.715
108,-0.745,-0.755
109,-0.750,-0.775
110,-0.740,-0.790
111,-0.745,-0.795
112,-0.750,-0.775
113,-0.745,-0.760
114,-0.745,-0.745
115,-0.735,-0.730
116,-0.730,-0.725
117,-0.720,-0.725
118,-0.730,-0.740
119,-0.720,-0.740
120,-0.730,-0.740
121,-0.715,-0.745
122,-0.720,-0.740
123,-0.740,-0.725
124,-0.755,-0.710
125,-0.735,-0.690
126,-0.735,-0.675
127,-0.735,-0.670
128,-0.735,-0.655
129,-0.730,-0.660
130,-0.735,-0.670
131,-0.750,-0.670
132,-0.755,-0.690
133,-0.770,-0.680
134,-0.780,-0.685
135,-0.795,-0.700
136,-0.800,-0.695
137,-0.800,-0.685
138,-0.790,-0.685
139,-0.770,-0.670
140,-0.775,-0.665
141,-0.770,-0.670
142,-0.765,-0.665
143,-0.755,-0.660
144,-0.765,-0.660
145,-0.765,-0.650
146,-0.775,-0.640
147,-0.750,-0.655
148,-0.745,-0.670
149,-0.720,-0.725
150,-0.705,-0.810
151,-0.655,-0.935
152,-0.590,-1.105
153,-0.505,-1.285
154,-0.400,-1.500
155,-0.290,-1.680
156,-0.165,-1.810
157,-0.050,-1.875
158,0.045,-1.855
159,0.115,-1.745
160,0.155,-1.595
161,0.195,-1.425
162,0.210,-1.255
163,0.265,-1.150
164,0.285,-1.035
165,0.295,-0.950
166,0.245,-0.885
167,0.180,-0.820
168,0.105,-0.760
169,0.015,-0.715
170,-0.080,-0.695
171,-0.180,-0.675
172,-0.280,-0.670
173,-0.370,-0.660
174,-0.445,-0.640
175,-0.515,-0.630
176,-0.545,-0.625
177,-0.590,-0.625
178,-0.650,-0.620
179,-0.665,-0.605
180,-0.685,-0.620
181,-0.715,-0.630
182,-0.725,-0.630
183,-0.715,-0.640
184,-0.720,-0.625
185,-0.720,-0.615
186,-0.710,-0.610
187,-0.715,-0.600
188,-0.695,-0.590
189,-0.690,-0.590
190,-0.690,-0.605
191,-0.690,-0.605
192,-0.680,-0.605
193,-0.685,-0.610
194,-0.695,-0.620
195,-0.705,-0.620
196,-0.700,-0.615
197,-0.700,-0.600
198,-0.695,-0.610
199,-0.685,-0.595
200,-0.680,-0.590
201,-0.665,-0.585
202,-0.665,-0.585
203,-0.660,-0.600
204,-0.665,-0.605
205,-0.665,-0.605
206,-0.670,-0.625
207,-0.670,-0.620
208,-0.670,-0.615
209,-0.680,-0.605
210,-0.655,-0.595
211,-0.655,-0.605
212,-0.655,-0.580
213,-0.640,-0.580
214,-0.645,-0.595
215,-0.640,-0.605
216,-0.640,-0.610
217,-0.655,-0.620
218,-0.655,-0.615
219,-0.670,-0.625
220,-0.680,-0.620
221,-0.670,-0.620
222,-0.675,-0.605
223,-0.655,-0.605
224,-0.665,-0.595
225,-0.650,-0.595
226,-0.640,-0.600
227,-0.635,-0.600
228,-0.640,-0.605
229,-0.650,-0.620
230,-0.655,-0.615
231,-0.640,-0.625
232,-0.650,-0.625
233,-0.655,-0.615
234,-0.640,-0.610
235,-0.635,-0.600
236,-0.625,-0.600
237,-0.615,-0.605
238,-0.620,-0.610
239,-0.620,-0.600
240,-0.615,-0.615
241,-0.625,-0.620
242,-0.625,-0.630
243,-0.625,-0.625
244,-0.630,-0.620
245,-0.630,-0.630
246,-0.610,-0.610
247,-0.595,-0.610
248,-0.585,-0.595
249,-0.575,-0.595
250,-0.580,-0.595
251,-0.570,-0.600
252,-0.580,-0.620
253,-0.570,-0.625
254,-0.580,-0.640
255,-0.580,-0.635
256,-0.585,-0.640
257,-0.590,-0.620
258,-0.580,-0.620
259,-0.580,-0.620
260,-0.570,-0.625
261,-0.565,-0.620
262,-0.575,-0.620
263,-0.575,-0.625
264,-0.575,-0.635
265,-0.590,-0.635
266,-0.600,-0.650
267,-0.615,-0.660
268,-0.615,-0.650
269,-0.605,-0.655
270,-0.625,-0.645
271,-0.605,-0.630
272,-0.615,-0.630
273,-0.615,-0.620
274,-0.620,-0.635
275,-0.630,-0.645
276,-0.640,-0.645
277,-0.645,-0.655
278,-0.670,-0.660
279,-0.685,-0.675
280,-0.690,-0.660
281,-0.695,-0.665
282,-0.710,-0.650
283,-0.715,-0.645
284,-0.725,-0.640
285,-0.735,-0.640
286,-0.725,-0.640
287,-0.745,-0.640
288,-0.755,-0.660
289,-0.755,-0.660
290,-0.760,-0.675
291,-0.775,-0.675
292,-0.785,-0.675
293,-0.780,-0.675
294,-0.780,-0.665
295,-0.765,-0.660
296,-0.765,-0.650
297,-0.755,-0.645
298,-0.760,-0.645
299,-0.755,-0.650
300,-0.770,-0.660
301,-0.775,-0.670
302,-0.790,-0.675
303,-0.790,-0.675
304,-0.790,-0.670
305,-0.790,-0.660
306,-0.780,-0.650
307,-0.775,-0.650
308,-0.780,-0.645
309,-0.765,-0.640
310,-0.765,-0.645
311,-0.765,-0.655
312,-0.770,-0.670
313,-0.795,-0.660
314,-0.790,-0.665
315,-0.795,-0.670
316,-0.800,-0.670
317,-0.800,-0.655
318,-0.795,-0.645
319,-0.790,-0.645
320,-0.795,-0.640
321,-0.790,-0.625
322,-0.800,-0.640
323,-0.800,-0.650
324,-0.805,-0.660
325,-0.805,-0.665
326,-0.820,-0.660
327,-0.825,-0.675
328,-0.840,-0.670
329,-0.835,-0.665
330,-0.830,-0.660
331,-0.825,-0.650
332,-0.825,-0.635
333,-0.820,-0.630
334,-0.825,-0.645
335,-0.830,-0.655
336,-0.830,-0.665
337,-0.835,-0.655
338,-0.840,-0.670
339,-0.850,-0.680
340,-0.855,-0.670
341,-0.855,-0.675
342,-0.845,-0.660
343,-0.845,-0.655
344,-0.850,-0.660
345,-0.830,-0.650
346,-0.830,-0.655
347,-0.840,-0.665
348,-0.835,-0.670
349,-0.850,-0.675
350,-0.860,-0.695
351,-0.855,-0.685
352,-0.865,-0.690
353,-0.870,-0.675
354,-0.855,-0.680
355,-0.855,-0.665
356,-0.845,-0.660
357,-0.850,-0.660
358,-0.855,-0.670
359,-0.850,-0.675
360,-0.860,-0.675
361,-0.840,-0.680
362,-0.860,-0.690
363,-0.865,-0.700
364,-0.865,-0.695
365,-0.870,-0.685
366,-0.855,-0.675
367,-0.840,-0.665
368,-0.840,-0.670
369,-0.835,-0.660
370,-0.840,-0.665
371,-0.840,-0.680
372,-0.840,-0.690
373,-0.835,-0.685
374,-0.855,-0.690
375,-0.860,-0.695
376,-0.850,-0.700
377,-0.855,-0.690
378,-0.840,-0.685
379,-0.835,-0.670
380,-0.830,-0.670
381,-0.820,-0.665
382,-0.825,-0.670
383,-0.830,-0.675
384,-0.835,-0.685
385,-0.835,-0.700
386,-0.830,-0.700
387,-0.850,-0.695
388,-0.865,-0.705
389,-0.850,-0.700
390,-0.840,-0.685
391,-0.835,-0.695
392,-0.820,-0.675
393,-0.815,-0.680
394,-0.815,-0.690
395,-0.805,-0.685
396,-0.820,-0.695
397,-0.825,-0.705
398,-0.825,-0.710
399,-0.830,-0.710
400,-0.830,-0.705
401,-0.825,-0.705
402,-0.825,-0.685
403,-0.820,-0.675
404,-0.820,-0.680
405,-0.815,-0.670
406,-0.805,-0.675
407,-0.805,-0.680
408,-0.815,-0.695
409,-0.825,-0.705
410,-0.835,-0.705
411,-0.840,-0.705
412,-0.840,-0.715
413,-0.835,-0.700
414,-0.835,-0.685
415,-0.830,-0.680
416,-0.825,-0.680
417,-0.815,-0.680
418,-0.810,-0.675
419,-0.805,-0.690
420,-0.820,-0.690
421,-0.825,-0.695
422,-0.830,-0.715
423,-0.825,-0.705
424,-0.830,-0.715
425,-0.825,-0.705
426,-0.825,-0.690
427,-0.815,-0.690
428,-0.815,-0.680
429,-0.790,-0.675
430,-0.800,-0.680
431,-0.810,-0.680
432,-0.815,-0.685
433,-0.805,-0.695
434,-0.820,-0.705
435,-0.815,-0.710
436,-0.825,-0.705
437,-0.825,-0.700
438,-0.825,-0.700
439,-0.815,-0.675
440,-0.800,-0.675
441,-0.800,-0.675
442,-0.810,-0.685
443,-0.805,-0.695
444,-0.810,-0.690
445,-0.820,-0.695
446,-0.815,-0.695
447,-0.810,-0.700
448,-0.800,-0.685
449,-0.795,-0.680
450,-0.790,-0.670
451,-0.770,-0.670
452,-0.760,-0.685
453,-0.745,-0.685
454,-0.745,-0.700
455,-0.750,-0.720
456,-0.755,-0.750
457,-0.770,-0.770
458,-0.780,-0.775
459,-0.785,-0.800
460,-0.775,-0.800
461,-0.760,-0.785
462,-0.760,-0.770
463,-0.755,-0.750
464,-0.740,-0.740
465,-0.735,-0.745
466,-0.745,-0.745
467,-0.750,-0.755
468,-0.750,-0.760
469,-0.755,-0.760
470,-0.760,-0.760
471,-0.755,-0.765
472,-0.750,-0.745
473,-0.765,-0.730
474,-0.765,-0.705
475,-0.760,-0.690
476,-0.760,-0.675
477,-0.760,-0.665
478,-0.775,-0.680
479,-0.780,-0.680
480,-0.785,-0.705
481,-0.800,-0.720
482,-0.805,-0.715
483,-0.815,-0.715
484,-0.810,-0.725
485,-0.820,-0.715
486,-0.810,-0.695
487,-0.800,-0.695
488,-0.805,-0.690
489,-0.785,-0.695
490,-0.790,-0.700
491,-0.785,-0.690
492,-0.800,-0.685
493,-0.800,-0.695
494,-0.800,-0.685
495,-0.800,-0.670
496,-0.805,-0.675
497,-0.790,-0.665
498,-0.780,-0.680
499,-0.760,-0.710
500,-0.730,-0.770
501,-0.700,-0.890
502,-0.655,-1.055
503,-0.605,-1.250
504,-0.495,-1.470
505,-0.380,-1.695
506,-0.260,-1.855
507,-0.155,-1.955
508,-0.060,-1.930
509,0.015,-1.815
510,0.055,-1.645
511,0.095,-1.450
512,0.140,-1.270
513,0.180,-1.125
514,0.200,-1.020
515,0.180,-0.935
516,0.135,-0.865
517,0.070,-0.810
518,-0.010,-0.750
519,-0.105,-0.725
520,-0.225,-0.705
521,-0.315,-0.690
522,-0.405,-0.665
523,-0.500,-0.660
524,-0.560,-0.655
525,-0.615,-0.635
526,-0.640,-0.625
527,-0.685,-0.635
528,-0.720,-0.625
529,-0.745,-0.640
530,-0.760,-0.640
531,-0.770,-0.640
532,-0.780,-0.645
533,-0.780,-0.635
534,-0.770,-0.610
535,-0.760,-0.615
536,-0.750,-0.600
537,-0.735,-0.605
538,-0.725,-0.605
539,-0.735,-0.610
540,-0.745,-0.620
541,-0.750,-0.620
542,-0.750,-0.625
543,-0.755,-0.620
544,-0.750,-0.625
545,-0.750,-0.615
546,-0.760,-0.610
547,-0.740,-0.605
548,-0.740,-0.590
549,-0.720,-0.585
550,-0.710,-0.600
551,-0.710,-0.600
552,-0.725,-0.605
553,-0.725,-0.615
554,-0.730,-0.620
555,-0.725,-0.625
556,-0.745,-0.625
557,-0.725,-0.625
558,-0.745,-0.605
559,-0.720,-0.600
560,-0.715,-0.590
561,-0.700,-0.580
562,-0.695,-0.580
563,-0.695,-0.590
564,-0.705,-0.605
565,-0.715,-0.600
566,-0.715,-0.620
567,-0.710,-0.625
568,-0.720,-0.620
569,-0.720,-0.625
570,-0.715,-0.610
571,-0.715,-0.600
572,-0.700,-0.595
573,-0.680,-0.590
574,-0.690,-0.600
575,-0.695,-0.605
576,-0.680,-0.600
577,-0.685,-0.615
578,-0.700,-0.610
579,-0.705,-0.625
580,-0.695,-0.620
581,-0.690,-0.615
582,-0.685,-0.600
583,-0.680,-0.590
584,-0.675,-0.580
585,-0.650,-0.585
586,-0.655,-0.595
587,-0.655,-0.590
588,-0.675,-0.595
589,-0.660,-0.615
590,-0.660,-0.620
591,-0.660,-0.625
592,-0.655,-0.630
593,-0.665,-0.610
594,-0.660,-0.600
595,-0.645,-0.595
596,-0.635,-0.590
597,-0.635,-0.590
598,-0.635,-0.585
599,-0.620,-0.595
600,-0.625,-0.615
601,-0.625,-0.620
602,-0.635,-0.615
603,-0.635,-0.640
604,-0.645,-0.630
605,-0.650,-0.630
606,-0.645,-0.615
607,-0.630,-0.615
608,-0.620,-0.610
609,-0.615,-0.610
610,-0.635,-0.610
611,-0.640,-0.625
612,-0.640,-0.630
613,-0.645,-0.650
614,-0.660,-0.650
615,-0.680,-0.660
616,-0.675,-0.650
617,-0.675,-0.660
618,-0.685,-0.645
619,-0.690,-0.650
620,-0.690,-0.640
621,-0.685,-0.655
622,-0.690,-0.650
623,-0.680,-0.650
624,-0.710,-0.670
625,-0.720,-0.665
626,-0.715,-0.670
627,-0.750,-0.690
628,-0.765,-0.690
629,-0.760,-0.675
630,-0.765,-0.680
631,-0.775,-0.680
632,-0.780,-0.660
633,-0.785,-0.655
634,-0.785,-0.660
635,-0.780,-0.665
636,-0.785,-0.680
637,-0.795,-0.685
638,-0.820,-0.685
639,-0.825,-0.695
640,-0.825,-0.690
641,-0.835,-0.675
642,-0.835,-0.675
643,-0.825,-0.675
644,-0.825,-0.665
645,-0.815,-0.660
646,-0.815,-0.670
647,-0.815,-0.660
648,-0.810,-0.675
649,-0.840,-0.680
650,-0.850,-0.685
651,-0.845,-0.685
652,-0.850,-0.680
653,-0.855,-0.680
654,-0.850,-0.665
655,-0.845,-0.665
656,-0.845,-0.650
657,-0.825,-0.650
658,-0.825,-0.650
659,-0.820,-0.655
660,-0.820,-0.660
661,-0.845,-0.660
662,-0.850,-0.660
663,-0.850,-0.665
664,-0.870,-0.655
665,-0.870,-0.645
666,-0.865,-0.625
667,-0.860,-0.620
668,-0.860,-0.610
669,-0.840,-0.625
670,-0.845,-0.635
671,-0.845,-0.660
672,-0.850,-0.660
673,-0.855,-0.680
674,-0.865,-0.655
675,-0.870,-0.660
676,-0.875,-0.655
677,-0.875,-0.655
678,-0.880,-0.660
679,-0.875,-0.640
680,-0.870,-0.640
681,-0.860,-0.635
682,-0.860,-0.635
683,-0.870,-0.620
684,-0.860,-0.640
685,-0.875,-0.630
686,-0.885,-0.630
687,-0.890,-0.645
688,-0.895,-0.650
689,-0.900,-0.650
690,-0.890,-0.645
691,-0.895,-0.635
692,-0.885,-0.620
693,-0.875,-0.605
694,-0.885,-0.605
695,-0.875,-0.620
696,-0.885,-0.645
697,-0.895,-0.665
698,-0.895,-0.685
699,-0.900,-0.700
700,-0.905,-0.700
701,-0.900,-0.700
702,-0.895,-0.670
703,-0.895,-0.655
704,-0.875,-0.645
705,-0.875,-0.630
706,-0.875,-0.625
707,-0.865,-0.620
708,-0.870,-0.615
709,-0.870,-0.610
710,-0.880,-0.625
711,-0.890,-0.640
712,-0.895,-0.675
713,-0.890,-0.690
714,-0.890,-0.720
715,-0.890,-0.720
716,-0.885,-0.710
717,-0.870,-0.700
718,-0.865,-0.685
719,-0.865,-0.680
720,-0.880,-0.680
721,-0.880,-0.680
722,-0.885,-0.705
723,-0.895,-0.695
724,-0.905,-0.690
725,-0.910,-0.675
726,-0.905,-0.665
727,-0.885,-0.655
728,-0.895,-0.655
729,-0.865,-0.650
730,-0.865,-0.660
731,-0.860,-0.660
732,-0.875,-0.660
733,-0.885,-0.665
734,-0.900,-0.680
735,-0.905,-0.685
736,-0.900,-0.690
737,-0.890,-0.675
738,-0.895,-0.685
739,-0.900,-0.670
740,-0.895,-0.660
741,-0.895,-0.660
742,-0.895,-0.660
743,-0.895,-0.655
744,-0.895,-0.640
745,-0.890,-0.655
746,-0.915,-0.670
747,-0.905,-0.665
748,-0.910,-0.670
749,-0.915,-0.675
750,-0.920,-0.660
751,-0.920,-0.665
752,-0.915,-0.650
753,-0.920,-0.650
754,-0.910,-0.650
755,-0.910,-0.655
756,-0.920,-0.660
757,-0.920,-0.650
758,-0.945,-0.635
759,-0.955,-0.635
760,-0.960,-0.625
761,-0.970,-0.610
762,-0.970,-0.610
763,-0.980,-0.620
764,-0.975,-0.625
765,-0.980,-0.645
766,-0.970,-0.655
767,-0.955,-0.670
768,-0.960,-0.680
769,-0.975,-0.665
770,-0.980,-0.625
771,-0.990,-0.600
772,-0.990,-0.600
773,-1.000,-0.630
774,-0.995,-0.675
775,-0.995,-0.730
776,-0.985,-0.740
777,-0.990,-0.720
778,-0.995,-0.690
779,-1.005,-0.660
780,-1.005,-0.625
781,-1.005,-0.610
782,-1.020,-0.645
783,-1.020,-0.680
784,-1.020,-0.730
785,-1.025,-0.745
786,-1.020,-0.740
787,-1.025,-0.720
788,-1.010,-0.690
789,-1.010,-0.660
790,-1.010,-0.650
791,-0.995,-0.650
792,-1.000,-0.655
793,-1.000,-0.670
794,-1.015,-0.680
795,-1.020,-0.685
796,-1.040,-0.690
797,-1.035,-0.675
798,-1.030,-0.675
799,-1.030,-0.660
800,-1.020,-0.645
801,-1.005,-0.635
802,-1.005,-0.625
803,-1.010,-0.615
804,-1.025,-0.605
805,-1.030,-0.595
806,-1.020,-0.605
807,-1.025,-0.615
808,-1.015,-0.660
809,-1.010,-0.675
810,-1.000,-0.680
811,-0.995,-0.650
812,-0.995,-0.615
813,-0.980,-0.630
814,-0.965,-0.690
815,-0.965,-0.765
816,-0.980,-0.830
817,-0.990,-0.870
818,-0.995,-0.850
819,-1.005,-0.815
820,-1.010,-0.775
821,-0.995,-0.740
822,-0.995,-0.710
823,-0.995,-0.715
824,-0.995,-0.710
825,-0.990,-0.715
826,-0.995,-0.720
827,-0.990,-0.725
828,-0.995,-0.725
829,-1.000,-0.720
830,-0.990,-0.710
831,-1.000,-0.705
832,-1.005,-0.700
833,-1.005,-0.680
834,-1.015,-0.670
835,-1.025,-0.685
836,-1.015,-0.680
837,-1.035,-0.695
838,-1.035,-0.680
839,-1.035,-0.690
840,-1.055,-0.690
841,-1.070,-0.705
842,-1.080,-0.690
843,-1.080,-0.680
844,-1.075,-0.695
845,-1.065,-0.705
846,-1.065,-0.695
847,-1.060,-0.700
848,-1.060,-0.700
849,-1.060,-0.685
850,-1.060,-0.685
851,-1.050,-0.680
852,-1.055,-0.670
853,-1.055,-0.655
854,-1.050,-0.660
855,-1.060,-0.640
856,-1.050,-0.635
857,-1.050,-0.665
858,-1.030,-0.710
859,-1.010,-0.760
860,-0.990,-0.855
861,-0.935,-0.965
862,-0.865,-1.115
863,-0.800,-1.305
864,-0.700,-1.495
865,-0.625,-1.675
866,-0.535,-1.840
867,-0.445,-1.910
868,-0.360,-1.915
869,-0.285,-1.820
870,-0.235,-1.660
871,-0.190,-1.480
872,-0.155,-1.315
873,-0.105,-1.185
874,-0.080,-1.085
875,-0.070,-1.000
876,-0.120,-0.915
877,-0.175,-0.840
878,-0.250,-0.770
879,-0.355,-0.720
880,-0.485,-0.700
881,-0.600,-0.670
882,-0.705,-0.665
883,-0.800,-0.645
884,-0.870,-0.635
885,-0.920,-0.630
886,-0.970,-0.635
887,-0.985,-0.630
888,-1.010,-0.635
889,-1.045,-0.625
890,-1.055,-0.640
891,-1.060,-0.630
892,-1.075,-0.665
893,-1.070,-0.645
894,-1.040,-0.635
895,-1.035,-0.615
896,-1.020,-0.610
897,-1.020,-0.600
898,-1.005,-0.605
899,-1.015,-0.605
900,-1.015,-0.600
901,-1.010,-0.590
902,-1.015,-0.595
903,-1.030,-0.615
904,-1.020,-0.640
905,-1.020,-0.665
906,-1.015,-0.660
907,-1.005,-0.645
908,-0.990,-0.630
909,-0.980,-0.610
910,-0.985,-0.590
911,-0.980,-0.590
912,-0.975,-0.590
913,-0.995,-0.625
914,-0.995,-0.655
915,-0.985,-0.670
916,-0.990,-0.655
917,-0.985,-0.645
918,-0.980,-0.615
919,-0.975,-0.620
920,-0.970,-0.605
921,-0.955,-0.600
922,-0.945,-0.600
923,-0.940,-0.615
924,-0.945,-0.630
925,-0.950,-0.630
926,-0.950,-0.640
927,-0.970,-0.635
928,-0.985,-0.635
929,-0.990,-0.625
930,-0.965,-0.625
931,-0.960,-0.605
932,-0.945,-0.605
933,-0.940,-0.615
934,-0.935,-0.615
935,-0.940,-0.620
936,-0.940,-0.635
937,-0.930,-0.645
938,-0.930,-0.650
939,-0.930,-0.645
940,-0.945,-0.635
941,-0.930,-0.605
942,-0.930,-0.595
943,-0.920,-0.605
944,-0.915,-0.590
945,-0.910,-0.575
946,-0.905,-0.590
947,-0.895,-0.600
948,-0.900,-0.615
949,-0.900,-0.635
950,-0.905,-0.655
951,-0.910,-0.655
952,-0.910,-0.640
953,-0.900,-0.630
954,-0.895,-0.625
955,-0.875,-0.635
956,-0.875,-0.630
957,-0.855,-0.630
958,-0.850,-0.620
959,-0.850,-0.625
960,-0.855,-0.620
961,-0.850,-0.625
962,-0.855,-0.630
963,-0.860,-0.640
964,-0.860,-0.665
965,-0.855,-0.660
966,-0.855,-0.645
967,-0.850,-0.645
968,-0.850,-0.630
969,-0.845,-0.630
970,-0.830,-0.645
971,-0.840,-0.645
972,-0.840,-0.645
973,-0.845,-0.660
974,-0.855,-0.680
975,-0.865,-0.665
976,-0.875,-0.675
977,-0.880,-0.650
978,-0.870,-0.655
979,-0.865,-0.650
980,-0.860,-0.640
981,-0.860,-0.640
982,-0.865,-0.665
983,-0.885,-0.665
984,-0.885,-0.670
985,-0.885,-0.660
986,-0.905,-0.660
987,-0.925,-0.665
988,-0.915,-0.680
989,-0.915,-0.680
990,-0.930,-0.675
991,-0.945,-0.665
992,-0.950,-0.655
993,-0.945,-0.640
994,-0.950,-0.660
995,-0.955,-0.675
996,-0.955,-0.685
997,-0.965,-0.710
998,-0.985,-0.705
999,-1.000,-0.700
1000,-0.990,-0.690
1001,-1.000,-0.655
1002,-0.990,-0.655
1003,-0.985,-0.655
1004,-0.975,-0.650
1005,-0.970,-0.665
1006,-0.980,-0.690
1007,-0.970,-0.705
1008,-0.975,-0.690
1009,-0.985,-0.680
1010,-1.010,-0.675
1011,-1.010,-0.685
1012,-1.000,-0.685
1013,-0.985,-0.685
1014,-0.980,-0.690
1015,-0.970,-0.680
1016,-0.965,-0.660
1017,-0.955,-0.660
1018,-0.965,-0.665
1019,-0.970,-0.680
1020,-0.980,-0.685
1021,-0.990,-0.665
1022,-0.990,-0.680
1023,-0.995,-0.690
1024,-1.005,-0.680
1025,-1.000,-0.675
1026,-0.995,-0.655
1027,-0.990,-0.640
1028,-0.980,-0.630
1029,-0.970,-0.635
1030,-0.975,-0.655
1031,-0.985,-0.650
1032,-1.000,-0.660
1033,-1.010,-0.680
1034,-1.015,-0.670
1035,-1.015,-0.675
1036,-1.015,-0.675
1037,-1.015,-0.660
1038,-1.015,-0.655
1039,-1.010,-0.655
1040,-1.005,-0.640
1041,-1.000,-0.635
1042,-1.000,-0.640
1043,-1.005,-0.650
1044,-1.005,-0.655
1045,-1.010,-0.660
1046,-1.020,-0.670
1047,-1.025,-0.670
1048,-1.030,-0.665
1049,-1.025,-0.670
1050,-1.020,-0.665
1051,-1.010,-0.675
1052,-1.010,-0.665
1053,-1.000,-0.670
1054,-0.995,-0.670
1055,-0.995,-0.675
1056,-1.010,-0.670
1057,-1.010,-0.675
1058,-1.015,-0.680
1059,-1.015,-0.675
1060,-1.015,-0.690
1061,-1.015,-0.670
1062,-1.010,-0.655
1063,-1.000,-0.655
1064,-0.995,-0.650
1065,-1.000,-0.660
1066,-1.000,-0.660
1067,-0.995,-0.665
1068,-1.000,-0.670
1069,-1.005,-0.685
1070,-1.005,-0.685
1071,-1.035,-0.695
1072,-1.025,-0.695
1073,-1.015,-0.680
1074,-1.010,-0.675
1075,-0.995,-0.670
1076,-0.985,-0.665
1077,-0.965,-0.670
1078,-0.975,-0.695
1079,-0.975,-0.690
1080,-0.985,-0.710
1081,-0.985,-0.715
1082,-1.000,-0.705
1083,-1.000,-0.695
1084,-0.985,-0.690
1085,-0.975,-0.685
1086,-0.965,-0.675
1087,-0.975,-0.665
1088,-0.950,-0.665
1089,-0.955,-0.680
1090,-0.950,-0.680
1091,-0.950,-0.680
1092,-0.955,-0.685
1093,-0.955,-0.690
1094,-0.965,-0.705
1095,-0.965,-0.700
1096,-0.975,-0.710
1097,-0.965,-0.685
1098,-0.955,-0.675
1099,-0.945,-0.670
1100,-0.935,-0.675
1101,-0.925,-0.685
1102,-0.950,-0.695
1103,-0.945,-0.680
1104,-0.930,-0.680
1105,-0.935,-0.695
1106,-0.945,-0.695
1107,-0.970,-0.710
1108,-0.960,-0.705
1109,-0.950,-0.705
1110,-0.955,-0.690
1111,-0.950,-0.685
1112,-0.930,-0.690
1113,-0.925,-0.700
1114,-0.925,-0.695
1115,-0.915,-0.695
1116,-0.915,-0.705
1117,-0.930,-0.700
1118,-0.940,-0.690
1119,-0.940,-0.685
1120,-0.945,-0.680
1121,-0.935,-0.690
1122,-0.930,-0.695
1123,-0.925,-0.695
1124,-0.925,-0.690
1125,-0.915,-0.690
1126,-0.915,-0.690
1127,-0.910,-0.690
1128,-0.915,-0.690
1129,-0.925,-0.700
1130,-0.955,-0.705
1131,-0.945,-0.710
1132,-0.945,-0.705
1133,-0.945,-0.700
1134,-0.930,-0.695
1135,-0.915,-0.700
1136,-0.895,-0.700
1137,-0.895,-0.695
1138,-0.895,-0.700
1139,-0.910,-0.695
1140,-0.900,-0.690
1141,-0.915,-0.710
1142,-0.915,-0.710
1143,-0.925,-0.710
1144,-0.920,-0.715
1145,-0.915,-0.700
1146,-0.915,-0.695
1147,-0.895,-0.680
1148,-0.890,-0.675
1149,-0.880,-0.675
1150,-0.885,-0.670
1151,-0.880,-0.660
1152,-0.870,-0.680
1153,-0.875,-0.690
1154,-0.865,-0.700
1155,-0.855,-0.705
1156,-0.850,-0.715
1157,-0.845,-0.720
1158,-0.840,-0.715
1159,-0.845,-0.710
1160,-0.835,-0.715
1161,-0.840,-0.730
1162,-0.825,-0.765
1163,-0.825,-0.780
1164,-0.830,-0.795
1165,-0.820,-0.795
1166,-0.825,-0.790
1167,-0.835,-0.780
1168,-0.835,-0.770
1169,-0.830,-0.750
1170,-0.830,-0.740
1171,-0.815,-0.730
1172,-0.820,-0.720
1173,-0.805,-0.715
1174,-0.810,-0.730
1175,-0.805,-0.730
1176,-0.805,-0.730
1177,-0.820,-0.720
1178,-0.830,-0.725
1179,-0.845,-0.720
1180,-0.855,-0.715
1181,-0.855,-0.715
1182,-0.860,-0.700
1183,-0.860,-0.695
1184,-0.850,-0.685
1185,-0.860,-0.685
1186,-0.860,-0.690
1187,-0.850,-0.685
1188,-0.850,-0.700
1189,-0.855,-0.725
1190,-0.860,-0.725
1191,-0.865,-0.720
1192,-0.895,-0.700
1193,-0.880,-0.690
1194,-0.875,-0.680
1195,-0.865,-0.670
1196,-0.860,-0.665
1197,-0.835,-0.655
1198,-0.820,-0.655
1199,-0.810,-0.655
1200,-0.815,-0.675
1201,-0.820,-0.715
1202,-0.820,-0.770
1203,-0.800,-0.880
1204,-0.750,-0.990
1205,-0.695,-1.145
1206,-0.620,-1.310
1207,-0.535,-1.460
1208,-0.415,-1.615
1209,-0.300,-1.735
1210,-0.190,-1.815
1211,-0.090,-1.840
1212,-0.025,-1.780
1213,0.040,-1.655
1214,0.070,-1.525
1215,0.095,-1.365
1216,0.130,-1.230
1217,0.160,-1.110
1218,0.175,-1.035
1219,0.175,-0.940
1220,0.140,-0.875
1221,0.090,-0.815
1222,0.020,-0.740
1223,-0.055,-0.710
1224,-0.140,-0.690
1225,-0.240,-0.685
1226,-0.330,-0.690
1227,-0.430,-0.670
1228,-0.520,-0.685
1229,-0.590,-0.660
1230,-0.650,-0.640
1231,-0.700,-0.630
1232,-0.730,-0.620
1233,-0.760,-0.615
1234,-0.780,-0.615
1235,-0.800,-0.620
1236,-0.800,-0.620
1237,-0.800,-0.625
1238,-0.805,-0.640
1239,-0.805,-0.640
1240,-0.800,-0.630
1241,-0.790,-0.605
1242,-0.790,-0.600
1243,-0.790,-0.590
1244,-0.790,-0.590
1245,-0.775,-0.585
1246,-0.770,-0.595
1247,-0.770,-0.610
1248,-0.775,-0.625
1249,-0.780,-0.635
1250,-0.790,-0.635
1251,-0.780,-0.635
1252,-0.775,-0.615
1253,-0.765,-0.620
1254,-0.770,-0.615
1255,-0.765,-0.595
1256,-0.765,-0.595
1257,-0.760,-0.585
1258,-0.755,-0.590
1259,-0.765,-0.595
1260,-0.765,-0.610
1261,-0.755,-0.620
1262,-0.765,-0.620
1263,-0.755,-0.635
1264,-0.755,-0.625
1265,-0.750,-0.620
1266,-0.750,-0.605
1267,-0.745,-0.610
1268,-0.740,-0.595
1269,-0.730,-0.590
1270,-0.725,-0.595
1271,-0.725,-0.595
1272,-0.730,-0.610
1273,-0.735,-0.610
1274,-0.745,-0.610
1275,-0.740,-0.620
1276,-0.740,-0.620
1277,-0.730,-0.615
1278,-0.725,-0.605
1279,-0.730,-0.595
1280,-0.715,-0.585
1281,-0.710,-0.590
1282,-0.715,-0.590
1283,-0.710,-0.600
1284,-0.725,-0.605
1285,-0.715,-0.600
1286,-0.715,-0.610
1287,-0.720,-0.615
1288,-0.725,-0.625
1289,-0.715,-0.605
1290,-0.715,-0.620
1291,-0.705,-0.605
1292,-0.700,-0.600
1293,-0.685,-0.595
1294,-0.680,-0.605
1295,-0.680,-0.600
1296,-0.680,-0.605
1297,-0.690,-0.600
1298,-0.685,-0.610
1299,-0.690,-0.610
1300,-0.695,-0.615
1301,-0.695,-0.605
1302,-0.680,-0.590
1303,-0.675,-0.605
1304,-0.665,-0.595
1305,-0.650,-0.595
1306,-0.660,-0.610
1307,-0.650,-0.625
1308,-0.660,-0.620
1309,-0.665,-0.615
1310,-0.660,-0.625
1311,-0.670,-0.630
1312,-0.670,-0.630
1313,-0.670,-0.620
1314,-0.675,-0.615
1315,-0.665,-0.615
1316,-0.665,-0.615
1317,-0.665,-0.615
1318,-0.665,-0.630
1319,-0.665,-0.625
1320,-0.680,-0.645
1321,-0.685,-0.645
1322,-0.700,-0.640
1323,-0.710,-0.645
1324,-0.715,-0.640
1325,-0.720,-0.645
1326,-0.720,-0.650
1327,-0.715,-0.645
1328,-0.720,-0.650
1329,-0.720,-0.655
1330,-0.745,-0.650
1331,-0.750,-0.655
1332,-0.770,-0.660
1333,-0.775,-0.675
1334,-0.800,-0.665
1335,-0.820,-0.680
1336,-0.820,-0.670
1337,-0.810,-0.650
1338,-0.820,-0.640
1339,-0.820,-0.630
1340,-0.820,-0.625
1341,-0.820,-0.625
1342,-0.830,-0.635
1343,-0.825,-0.650
1344,-0.835,-0.655
1345,-0.850,-0.650
1346,-0.850,-0.645
1347,-0.860,-0.660
1348,-0.845,-0.650
1349,-0.835,-0.650
1350,-0.835,-0.640
1351,-0.835,-0.640
1352,-0.830,-0.635
1353,-0.835,-0.640
1354,-0.840,-0.645
1355,-0.835,-0.640
1356,-0.835,-0.650
1357,-0.845,-0.655
1358,-0.835,-0.655
1359,-0.855,-0.650
1360,-0.840,-0.635
1361,-0.835,-0.630
1362,-0.845,-0.625
1363,-0.830,-0.635
1364,-0.855,-0.630
1365,-0.855,-0.645
1366,-0.835,-0.655
1367,-0.845,-0.645
1368,-0.840,-0.665
1369,-0.845,-0.650
1370,-0.850,-0.645
1371,-0.860,-0.645
1372,-0.860,-0.640
1373,-0.870,-0.635
1374,-0.865,-0.620
1375,-0.855,-0.605
1376,-0.845,-0.590
1377,-0.845,-0.605
1378,-0.850,-0.610
1379,-0.850,-0.620
1380,-0.855,-0.625
1381,-0.870,-0.640
1382,-0.890,-0.650
1383,-0.885,-0.635
1384,-0.885,-0.620
1385,-0.890,-0.610
1386,-0.880,-0.620
1387,-0.880,-0.615
1388,-0.855,-0.605
1389,-0.855,-0.615
1390,-0.855,-0.625
1391,-0.870,-0.625
1392,-0.865,-0.635
1393,-0.875,-0.630
1394,-0.875,-0.645
1395,-0.870,-0.635
1396,-0.885,-0.630
1397,-0.885,-0.630
1398,-0.885,-0.620
1399,-0.880,-0.615
1400,-0.870,-0.615
1401,-0.860,-0.605
1402,-0.855,-0.610
1403,-0.850,-0.610
1404,-0.865,-0.615
1405,-0.875,-0.625
1406,-0.885,-0.635
1407,-0.890,-0.635
1408,-0.885,-0.640
1409,-0.870,-0.640
1410,-0.870,-0.620
1411,-0.855,-0.610
1412,-0.865,-0.605
1413,-0.850,-0.605
1414,-0.850,-0.610
1415,-0.845,-0.630
1416,-0.845,-0.645
1417,-0.855,-0.660
1418,-0.855,-0.660
1419,-0.870,-0.660
1420,-0.865,-0.640
1421,-0.865,-0.640
1422,-0.845,-0.635
1423,-0.845,-0.615
1424,-0.835,-0.610
1425,-0.820,-0.605
1426,-0.815,-0.610
1427,-0.820,-0.620
1428,-0.840,-0.635
1429,-0.835,-0.635
1430,-0.840,-0.650
1431,-0.835,-0.650
1432,-0.835,-0.640
1433,-0.830,-0.625
1434,-0.825,-0.595
1435,-0.820,-0.585
1436,-0.800,-0.590
1437,-0.800,-0.605
1438,-0.810,-0.630
1439,-0.810,-0.645
1440,-0.810,-0.655
1441,-0.815,-0.670
1442,-0.815,-0.665
1443,-0.830,-0.645
1444,-0.820,-0.635
1445,-0.830,-0.625
1446,-0.815,-0.625
1447,-0.810,-0.615
1448,-0.790,-0.600
1449,-0.780,-0.595
1450,-0.780,-0.605
1451,-0.790,-0.620
1452,-0.790,-0.625
1453,-0.805,-0.630
1454,-0.805,-0.640
1455,-0.810,-0.645
1456,-0.805,-0.645
1457,-0.815,-0.630
1458,-0.795,-0.615
1459,-0.785,-0.605
1460,-0.775,-0.595
1461,-0.770,-0.600
1462,-0.780,-0.610
1463,-0.775,-0.620
1464,-0.790,-0.635
1465,-0.790,-0.640
1466,-0.785,-0.635
1467,-0.800,-0.635
1468,-0.805,-0.630
1469,-0.810,-0.620
1470,-0.795,-0.615
1471,-0.785,-0.615
1472,-0.765,-0.605
1473,-0.770,-0.605
1474,-0.765,-0.610
1475,-0.780,-0.620
1476,-0.775,-0.620
1477,-0.785,-0.630
1478,-0.800,-0.640
1479,-0.800,-0.640
1480,-0.805,-0.645
1481,-0.785,-0.640
1482,-0.775,-0.630
1483,-0.765,-0.605
1484,-0.750,-0.595
1485,-0.745,-0.600
1486,-0.750,-0.595
1487,-0.750,-0.605
1488,-0.750,-0.635
1489,-0.755,-0.650
1490,-0.765,-0.655
1491,-0.775,-0.660
1492,-0.780,-0.645
1493,-0.770,-0.630
1494,-0.765,-0.625
1495,-0.760,-0.610
1496,-0.755,-0.600
1497,-0.735,-0.590
1498,-0.740,-0.605
1499,-0.740,-0.595
1500,-0.745,-0.600
1501,-0.745,-0.600
1502,-0.745,-0.625
1503,-0.760,-0.630
1504,-0.750,-0.640
1505,-0.755,-0.620
1506,-0.735,-0.610
1507,-0.720,-0.600
1508,-0.710,-0.590
1509,-0.695,-0.595
1510,-0.695,-0.605
1511,-0.705,-0.625
1512,-0.705,-0.640
1513,-0.720,-0.640
1514,-0.705,-0.660
1515,-0.705,-0.680
1516,-0.700,-0.685
1517,-0.695,-0.685
1518,-0.685,-0.685
1519,-0.675,-0.680
1520,-0.675,-0.675
1521,-0.670,-0.680
1522,-0.665,-0.680
1523,-0.685,-0.675
1524,-0.695,-0.675
1525,-0.695,-0.675
1526,-0.695,-0.665
1527,-0.685,-0.650
1528,-0.690,-0.645
1529,-0.680,-0.625
1530,-0.670,-0.615
1531,-0.675,-0.610
1532,-0.685,-0.600
1533,-0.680,-0.600
1534,-0.695,-0.595
1535,-0.715,-0.600
1536,-0.715,-0.615
1537,-0.730,-0.620
1538,-0.735,-0.625
1539,-0.740,-0.625
1540,-0.750,-0.620
1541,-0.745,-0.605
1542,-0.735,-0.600
1543,-0.730,-0.600
1544,-0.720,-0.590
1545,-0.715,-0.585
1546,-0.700,-0.585
1547,-0.715,-0.585
1548,-0.725,-0.595
1549,-0.715,-0.595
1550,-0.725,-0.595
1551,-0.730,-0.610
1552,-0.725,-0.605
1553,-0.720,-0.600
1554,-0.695,-0.620
1555,-0.680,-0.680
1556,-0.650,-0.785
1557,-0.585,-0.910
1558,-0.515,-1.055
1559,-0.415,-1.225
1560,-0.300,-1.400
1561,-0.170,-1.540
1562,-0.035,-1.630
1563,0.100,-1.645
1564,0.205,-1.590
1565,0.285,-1.490
1566,0.340,-1.365
1567,0.375,-1.225
1568,0.400,-1.095
1569,0.435,-0.975
1570,0.430,-0.875
1571,0.405,-0.820
1572,0.340,-0.750
1573,0.270,-0.695
1574,0.200,-0.660
1575,0.130,-0.645
1576,0.050,-0.625
1577,-0.035,-0.620
1578,-0.130,-0.610
1579,-0.220,-0.570
1580,-0.300,-0.545
1581,-0.385,-0.520
1582,-0.480,-0.515
1583,-0.555,-0.535
1584,-0.630,-0.585
1585,-0.670,-0.605
1586,-0.705,-0.620
1587,-0.710,-0.610
1588,-0.710,-0.580
1589,-0.695,-0.560
1590,-0.695,-0.540
1591,-0.675,-0.530
1592,-0.655,-0.530
1593,-0.650,-0.535
1594,-0.640,-0.540
1595,-0.655,-0.555
1596,-0.660,-0.555
1597,-0.670,-0.560
1598,-0.680,-0.570
1599,-0.680,-0.565
1600,-0.675,-0.540
1601,-0.680,-0.535
1602,-0.670,-0.530
1603,-0.665,-0.515
1604,-0.655,-0.525
1605,-0.645,-0.530
1606,-0.650,-0.550
1607,-0.660,-0.555
1608,-0.665,-0.570
1609,-0.665,-0.560
1610,-0.670,-0.575
1611,-0.665,-0.555
1612,-0.665,-0.545
1613,-0.665,-0.540
1614,-0.665,-0.540
1615,-0.655,-0.540
1616,-0.660,-0.550
1617,-0.660,-0.535
1618,-0.660,-0.560
1619,-0.650,-0.560
1620,-0.640,-0.560
1621,-0.645,-0.545
1622,-0.645,-0.535
1623,-0.645,-0.530
1624,-0.655,-0.540
1625,-0.650,-0.560
1626,-0.650,-0.585
1627,-0.650,-0.610
1628,-0.640,-0.590
1629,-0.640,-0.580
1630,-0.615,-0.570
1631,-0.615,-0.545
1632,-0.615,-0.555
1633,-0.630,-0.560
1634,-0.640,-0.570
1635,-0.650,-0.565
1636,-0.655,-0.565
1637,-0.650,-0.560
1638,-0.635,-0.545
1639,-0.630,-0.535
1640,-0.635,-0.520
1641,-0.620,-0.520
1642,-0.625,-0.545
1643,-0.620,-0.570
1644,-0.625,-0.580
1645,-0.630,-0.590
1646,-0.625,-0.590
1647,-0.635,-0.575
1648,-0.640,-0.565
1649,-0.640,-0.550
1650,-0.635,-0.545
1651,-0.615,-0.545
1652,-0.625,-0.540
1653,-0.610,-0.560
1654,-0.605,-0.560
1655,-0.610,-0.560
1656,-0.620,-0.590
1657,-0.630,-0.590
1658,-0.645,-0.595
1659,-0.635,-0.590
1660,-0.640,-0.585
1661,-0.640,-0.565
1662,-0.640,-0.545
1663,-0.630,-0.550
1664,-0.635,-0.545
1665,-0.615,-0.550
1666,-0.615,-0.550
1667,-0.620,-0.550
1668,-0.635,-0.565
1669,-0.640,-0.560
1670,-0.650,-0.565
1671,-0.665,-0.565
1672,-0.680,-0.555
1673,-0.685,-0.595
1674,-0.685,-0.625
1675,-0.680,-0.645
1676,-0.685,-0.630
1677,-0.685,-0.615
1678,-0.695,-0.605
1679,-0.705,-0.575
1680,-0.730,-0.575
1681,-0.760,-0.565
1682,-0.775,-0.580
1683,-0.790,-0.610
1684,-0.795,-0.615
1685,-0.815,-0.630
1686,-0.810,-0.630
1687,-0.800,-0.610
1688,-0.790,-0.600
1689,-0.780,-0.580
1690,-0.795,-0.565
1691,-0.805,-0.570
1692,-0.810,-0.595
1693,-0.830,-0.605
1694,-0.830,-0.610
1695,-0.835,-0.620
1696,-0.855,-0.600
1697,-0.850,-0.585
1698,-0.840,-0.580
1699,-0.835,-0.575
1700,-0.840,-0.580
1701,-0.850,-0.585
1702,-0.855,-0.600
1703,-0.850,-0.600
1704,-0.845,-0.625
1705,-0.845,-0.630
1706,-0.845,-0.630
1707,-0.865,-0.630
1708,-0.860,-0.615
1709,-0.860,-0.595
1710,-0.870,-0.585
1711,-0.855,-0.585
1712,-0.855,-0.570
1713,-0.835,-0.575
1714,-0.850,-0.555
1715,-0.850,-0.545
1716,-0.845,-0.540
1717,-0.870,-0.555
1718,-0.875,-0.560
1719,-0.885,-0.605
1720,-0.895,-0.630
1721,-0.880,-0.645
1722,-0.865,-0.640
1723,-0.865,-0.605
1724,-0.860,-0.580
1725,-0.845,-0.575
1726,-0.860,-0.590
1727,-0.870,-0.590
1728,-0.880,-0.600
1729,-0.880,-0.615
1730,-0.885,-0.615
1731,-0.900,-0.605
1732,-0.895,-0.615
1733,-0.885,-0.565
1734,-0.895,-0.545
1735,-0.895,-0.545
1736,-0.875,-0.555
1737,-0.880,-0.575
1738,-0.885,-0.580
1739,-0.895,-0.585
1740,-0.900,-0.580
1741,-0.905,-0.580
1742,-0.905,-0.595
1743,-0.910,-0.635
1744,-0.925,-0.640
1745,-0.930,-0.640
1746,-0.905,-0.630
1747,-0.910,-0.615
1748,-0.895,-0.580
1749,-0.900,-0.550
1750,-0.910,-0.555
1751,-0.915,-0.560
1752,-0.900,-0.575
1753,-0.910,-0.595
1754,-0.920,-0.625
1755,-0.950,-0.640
1756,-0.955,-0.630
1757,-0.940,-0.630
1758,-0.935,-0.610
1759,-0.925,-0.605
1760,-0.935,-0.590
1761,-0.915,-0.570
1762,-0.920,-0.580
1763,-0.915,-0.600
1764,-0.930,-0.605
1765,-0.935,-0.610
1766,-0.940,-0.605
1767,-0.945,-0.615
1768,-0.935,-0.615
1769,-0.940,-0.615
1770,-0.935,-0.615
1771,-0.935,-0.610
1772,-0.925,-0.600
1773,-0.910,-0.575
1774,-0.915,-0.580
1775,-0.935,-0.595
1776,-0.925,-0.605
1777,-0.915,-0.615
1778,-0.925,-0.620
1779,-0.925,-0.625
1780,-0.925,-0.615
1781,-0.930,-0.610
1782,-0.910,-0.605
1783,-0.920,-0.600
1784,-0.920,-0.600
1785,-0.910,-0.605
1786,-0.905,-0.615
1787,-0.910,-0.615
1788,-0.920,-0.625
1789,-0.920,-0.640
1790,-0.920,-0.625
1791,-0.930,-0.630
1792,-0.925,-0.630
1793,-0.925,-0.605
1794,-0.915,-0.605
1795,-0.910,-0.610
1796,-0.905,-0.610
1797,-0.895,-0.600
1798,-0.895,-0.590
1799,-0.910,-0.595
1800,-0.915,-0.595
1801,-0.930,-0.605
1802,-0.935,-0.625
1803,-0.935,-0.640
1804,-0.940,-0.645
1805,-0.930,-0.630
1806,-0.925,-0.615
1807,-0.910,-0.615
1808,-0.910,-0.580
1809,-0.890,-0.585
1810,-0.890,-0.590
1811,-0.905,-0.595
1812,-0.910,-0.620
1813,-0.905,-0.640
1814,-0.915,-0.645
1815,-0.920,-0.650
1816,-0.935,-0.640
1817,-0.940,-0.625
1818,-0.925,-0.605
1819,-0.910,-0.595
1820,-0.905,-0.595
1821,-0.895,-0.605
1822,-0.890,-0.630
1823,-0.895,-0.625
1824,-0.900,-0.630
1825,-0.895,-0.625
1826,-0.895,-0.620
1827,-0.900,-0.640
1828,-0.905,-0.645
1829,-0.905,-0.650
1830,-0.895,-0.625
1831,-0.890,-0.615
1832,-0.885,-0.600
1833,-0.890,-0.600
1834,-0.880,-0.610
1835,-0.895,-0.595
1836,-0.915,-0.615
1837,-0.905,-0.620
1838,-0.920,-0.625
1839,-0.920,-0.615
1840,-0.915,-0.630
1841,-0.915,-0.625
1842,-0.905,-0.610
1843,-0.900,-0.610
1844,-0.895,-0.600
1845,-0.885,-0.590
1846,-0.870,-0.600
1847,-0.880,-0.585
1848,-0.890,-0.590
1849,-0.885,-0.595
1850,-0.885,-0.610
1851,-0.895,-0.640
1852,-0.895,-0.645
1853,-0.900,-0.640
1854,-0.900,-0.630
1855,-0.895,-0.625
1856,-0.900,-0.600
1857,-0.880,-0.595
1858,-0.850,-0.580
1859,-0.845,-0.590
1860,-0.845,-0.595
1861,-0.845,-0.615
1862,-0.840,-0.610
1863,-0.845,-0.615
1864,-0.850,-0.630
1865,-0.850,-0.650
1866,-0.850,-0.675
1867,-0.835,-0.700
1868,-0.825,-0.685
1869,-0.805,-0.690
1870,-0.805,-0.665
1871,-0.810,-0.655
1872,-0.810,-0.665
1873,-0.825,-0.680
1874,-0.830,-0.680
1875,-0.840,-0.695
1876,-0.855,-0.680
1877,-0.855,-0.660
1878,-0.835,-0.645
1879,-0.835,-0.650
1880,-0.825,-0.645
1881,-0.800,-0.635
1882,-0.810,-0.635
1883,-0.815,-0.615
1884,-0.815,-0.620
1885,-0.830,-0.610
1886,-0.840,-0.605
1887,-0.835,-0.605
1888,-0.855,-0.625
1889,-0.875,-0.610
1890,-0.860,-0.630
1891,-0.885,-0.640
1892,-0.885,-0.625
1893,-0.875,-0.610
1894,-0.870,-0.600
1895,-0.860,-0.600
1896,-0.860,-0.595
1897,-0.865,-0.595
1898,-0.875,-0.590
1899,-0.870,-0.600
1900,-0.885,-0.595
1901,-0.885,-0.600
1902,-0.880,-0.605
1903,-0.865,-0.605
1904,-0.855,-0.590
1905,-0.835,-0.575
1906,-0.835,-0.575
1907,-0.830,-0.575
1908,-0.830,-0.595
1909,-0.820,-0.655
1910,-0.800,-0.760
1911,-0.770,-0.885
1912,-0.705,-1.050
1913,-0.620,-1.215
1914,-0.510,-1.370
1915,-0.365,-1.510
1916,-0.235,-1.585
1917,-0.105,-1.605
1918,0.015,-1.580
1919,0.100,-1.490
1920,0.155,-1.390
1921,0.205,-1.280
1922,0.215,-1.160
1923,0.240,-1.075
1924,0.245,-0.995
1925,0.245,-0.920
1926,0.220,-0.845
1927,0.175,-0.770
1928,0.125,-0.710
1929,0.075,-0.645
1930,0.020,-0.615
1931,-0.045,-0.595
1932,-0.130,-0.595
1933,-0.220,-0.590
1934,-0.300,-0.600
1935,-0.390,-0.590
1936,-0.485,-0.590
1937,-0.575,-0.590
1938,-0.645,-0.580
1939,-0.710,-0.580
1940,-0.755,-0.550
1941,-0.780,-0.550
1942,-0.805,-0.535
1943,-0.805,-0.535
1944,-0.815,-0.535
1945,-0.805,-0.545
1946,-0.820,-0.565
1947,-0.825,-0.565
1948,-0.825,-0.570
1949,-0.825,-0.565
1950,-0.820,-0.550
1951,-0.815,-0.540
1952,-0.805,-0.525
1953,-0.800,-0.515
1954,-0.805,-0.510
1955,-0.805,-0.510
1956,-0.805,-0.520
1957,-0.795,-0.520
1958,-0.810,-0.545
1959,-0.815,-0.560
1960,-0.805,-0.565
1961,-0.815,-0.575
1962,-0.795,-0.565
1963,-0.790,-0.550
1964,-0.785,-0.555
1965,-0.785,-0.545
1966,-0.775,-0.540
1967,-0.765,-0.545
1968,-0.765,-0.540
1969,-0.775,-0.545
1970,-0.780,-0.550
1971,-0.785,-0.555
1972,-0.785,-0.565
1973,-0.780,-0.550
1974,-0.785,-0.540
1975,-0.775,-0.530
1976,-0.775,-0.505
1977,-0.745,-0.500
1978,-0.740,-0.530
1979,-0.740,-0.555
1980,-0.745,-0.570
1981,-0.755,-0.575
1982,-0.770,-0.585
1983,-0.760,-0.560
1984,-0.755,-0.540
1985,-0.755,-0.530
1986,-0.750,-0.525
1987,-0.745,-0.540
1988,-0.740,-0.550
1989,-0.720,-0.555
1990,-0.720,-0.550
1991,-0.725,-0.550
1992,-0.740,-0.545
1993,-0.740,-0.545
1994,-0.735,-0.555
1995,-0.740,-0.570
1996,-0.735,-0.575
1997,-0.750,-0.580
1998,-0.735,-0.570
1999,-0.725,-0.545
2000,-0.710,-0.530
2001,-0.695,-0.520
2002,-0.685,-0.525
2003,-0.685,-0.530
2004,-0.705,-0.535
2005,-0.715,-0.540
2006,-0.720,-0.565
2007,-0.715,-0.570
2008,-0.710,-0.565
2009,-0.710,-0.550
2010,-0.700,-0.540
2011,-0.690,-0.525
2012,-0.680,-0.515
2013,-0.670,-0.510
2014,-0.670,-0.525
2015,-0.665,-0.530
2016,-0.680,-0.560
2017,-0.680,-0.570
2018,-0.685,-0.575
2019,-0.685,-0.585
2020,-0.685,-0.575
2021,-0.695,-0.570
2022,-0.690,-0.585
2023,-0.690,-0.585
2024,-0.695,-0.585
2025,-0.685,-0.565
2026,-0.680,-0.585
2027,-0.690,-0.575
2028,-0.695,-0.565
2029,-0.700,-0.560
2030,-0.720,-0.570
2031,-0.720,-0.580
2032,-0.740,-0.595
2033,-0.760,-0.590
2034,-0.755,-0.580
2035,-0.750,-0.575
2036,-0.755,-0.570
2037,-0.750,-0.565
2038,-0.765,-0.575
2039,-0.780,-0.590
2040,-0.790,-0.610
2041,-0.795,-0.610
2042,-0.805,-0.615
2043,-0.820,-0.610
2044,-0.825,-0.610
2045,-0.835,-0.590
2046,-0.835,-0.585
2047,-0.850,-0.580
2048,-0.845,-0.570
2049,-0.835,-0.570
2050,-0.840,-0.565
2051,-0.855,-0.575
2052,-0.865,-0.580
2053,-0.870,-0.590
2054,-0.875,-0.590
2055,-0.880,-0.590
2056,-0.895,-0.595
2057,-0.900,-0.580
2058,-0.895,-0.565
2059,-0.890,-0.565
2060,-0.885,-0.565
2061,-0.865,-0.570
2062,-0.860,-0.585
2063,-0.845,-0.590
2064,-0.850,-0.605
2065,-0.845,-0.600
2066,-0.875,-0.605
2067,-0.880,-0.595
2068,-0.875,-0.585
2069,-0.870,-0.580
2070,-0.865,-0.580
2071,-0.860,-0.575
2072,-0.850,-0.560
2073,-0.840,-0.580
2074,-0.845,-0.575
2075,-0.845,-0.590
2076,-0.850,-0.590
2077,-0.855,-0.605
2078,-0.860,-0.585
2079,-0.865,-0.595
2080,-0.875,-0.585
2081,-0.870,-0.575
2082,-0.875,-0.580
2083,-0.880,-0.570
2084,-0.870,-0.560
2085,-0.865,-0.560
2086,-0.860,-0.560
2087,-0.860,-0.550
2088,-0.860,-0.555
2089,-0.880,-0.570
2090,-0.880,-0.580
2091,-0.890,-0.600
2092,-0.895,-0.605
2093,-0.900,-0.605
2094,-0.890,-0.585
2095,-0.895,-0.565
2096,-0.885,-0.550
2097,-0.875,-0.550
2098,-0.885,-0.550
2099,-0.885,-0.560
2100,-0.895,-0.580
2101,-0.895,-0.600
2102,-0.900,-0.605
2103,-0.915,-0.600
2104,-0.915,-0.585
2105,-0.920,-0.570
2106,-0.920,-0.575
2107,-0.910,-0.570
2108,-0.900,-0.570
2109,-0.895,-0.555
2110,-0.875,-0.570
2111,-0.880,-0.575
2112,-0.880,-0.580
2113,-0.880,-0.575
2114,-0.880,-0.590
2115,-0.900,-0.600
2116,-0.915,-0.590
2117,-0.905,-0.590
2118,-0.900,-0.580
2119,-0.890,-0.580
2120,-0.890,-0.570
2121,-0.875,-0.570
2122,-0.875,-0.570
2123,-0.870,-0.570
2124,-0.870,-0.585
2125,-0.895,-0.590
2126,-0.890,-0.600
2127,-0.880,-0.610
2128,-0.895,-0.595
2129,-0.890,-0.585
2130,-0.885,-0.585
2131,-0.880,-0.570
2132,-0.880,-0.570
2133,-0.880,-0.565
2134,-0.870,-0.575
2135,-0.870,-0.580
2136,-0.865,-0.585
2137,-0.870,-0.590
2138,-0.865,-0.600
2139,-0.870,-0.600
2140,-0.875,-0.595
2141,-0.880,-0.600
2142,-0.865,-0.585
2143,-0.870,-0.575
2144,-0.850,-0.575
2145,-0.850,-0.560
2146,-0.850,-0.575
2147,-0.850,-0.580
2148,-0.850,-0.585
2149,-0.870,-0.600
2150,-0.875,-0.595
2151,-0.860,-0.600
2152,-0.875,-0.590
2153,-0.865,-0.590
2154,-0.855,-0.590
2155,-0.855,-0.575
2156,-0.845,-0.570
2157,-0.835,-0.585
2158,-0.830,-0.590
2159,-0.835,-0.580
2160,-0.845,-0.585
2161,-0.840,-0.585
2162,-0.850,-0.595
2163,-0.870,-0.595
2164,-0.865,-0.595
2165,-0.865,-0.595
2166,-0.845,-0.590
2167,-0.840,-0.570
2168,-0.840,-0.565
2169,-0.830,-0.570
2170,-0.820,-0.580
2171,-0.825,-0.575
2172,-0.830,-0.585
2173,-0.835,-0.600
2174,-0.860,-0.600
2175,-0.860,-0.605
2176,-0.855,-0.605
2177,-0.850,-0.590
2178,-0.835,-0.580
2179,-0.820,-0.580
2180,-0.815,-0.575
2181,-0.810,-0.580
2182,-0.820,-0.580
2183,-0.825,-0.575
2184,-0.820,-0.585
2185,-0.825,-0.590
2186,-0.820,-0.590
2187,-0.825,-0.605
2188,-0.840,-0.590
2189,-0.845,-0.585
2190,-0.845,-0.585
2191,-0.830,-0.570
2192,-0.835,-0.560
2193,-0.820,-0.555
2194,-0.820,-0.550
2195,-0.800,-0.555
2196,-0.810,-0.580
2197,-0.810,-0.585
2198,-0.820,-0.585
2199,-0.840,-0.600
2200,-0.835,-0.580
2201,-0.850,-0.570
2202,-0.830,-0.570
2203,-0.820,-0.565
2204,-0.810,-0.555
2205,-0.805,-0.545
2206,-0.825,-0.560
2207,-0.815,-0.570
2208,-0.825,-0.595
2209,-0.830,-0.580
2210,-0.825,-0.580
2211,-0.835,-0.570
2212,-0.840,-0.570
2213,-0.815,-0.565
2214,-0.810,-0.560
2215,-0.815,-0.565
2216,-0.805,-0.555
2217,-0.780,-0.545
2218,-0.765,-0.550
2219,-0.745,-0.545
2220,-0.735,-0.560
2221,-0.740,-0.575
2222,-0.755,-0.595
2223,-0.770,-0.615
2224,-0.775,-0.635
2225,-0.780,-0.650
2226,-0.770,-0.650
2227,-0.750,-0.650
2228,-0.735,-0.630
2229,-0.725,-0.620
2230,-0.720,-0.625
2231,-0.730,-0.620
2232,-0.725,-0.625
2233,-0.740,-0.625
2234,-0.745,-0.640
2235,-0.750,-0.640
2236,-0.760,-0.625
2237,-0.750,-0.600
2238,-0.740,-0.590
2239,-0.710,-0.580
2240,-0.700,-0.575
2241,-0.700,-0.580
2242,-0.700,-0.595
2243,-0.695,-0.595
2244,-0.695,-0.590
2245,-0.695,-0.590
2246,-0.725,-0.580
2247,-0.735,-0.585
2248,-0.735,-0.585
2249,-0.755,-0.580
2250,-0.745,-0.565
2251,-0.745,-0.575
2252,-0.745,-0.550
2253,-0.735,-0.555
2254,-0.730,-0.550
2255,-0.730,-0.565
2256,-0.725,-0.570
2257,-0.730,-0.575
2258,-0.735,-0.570
2259,-0.730,-0.575
2260,-0.740,-0.570
2261,-0.740,-0.580
2262,-0.730,-0.565
2263,-0.730,-0.545
2264,-0.720,-0.525
2265,-0.710,-0.520
2266,-0.690,-0.520
2267,-0.685,-0.535
2268,-0.670,-0.565
2269,-0.660,-0.650
2270,-0.640,-0.780
2271,-0.600,-0.945
2272,-0.515,-1.150
2273,-0.400,-1.340
2274,-0.245,-1.515
2275,-0.080,-1.615
2276,0.065,-1.640
2277,0.200,-1.580
2278,0.300,-1.455
2279,0.355,-1.300
2280,0.390,-1.155
2281,0.410,-1.030
2282,0.410,-0.925
2283,0.410,-0.860
2284,0.395,-0.780
2285,0.375,-0.715
2286,0.320,-0.640
2287,0.260,-0.590
2288,0.210,-0.550
2289,0.145,-0.520
2290,0.055,-0.515
2291,-0.060,-0.515
2292,-0.170,-0.515
2293,-0.295,-0.525
2294,-0.405,-0.540
2295,-0.500,-0.530
2296,-0.585,-0.520
2297,-0.615,-0.500
2298,-0.655,-0.475
2299,-0.655,-0.475
2300,-0.645,-0.475
2301,-0.635,-0.475
2302,-0.645,-0.490
2303,-0.645,-0.505
2304,-0.640,-0.515
2305,-0.640,-0.515
2306,-0.660,-0.505
2307,-0.665,-0.505
2308,-0.665,-0.510
2309,-0.655,-0.500
2310,-0.660,-0.485
2311,-0.660,-0.475
2312,-0.635,-0.460
2313,-0.620,-0.455
2314,-0.620,-0.455
2315,-0.620,-0.465
2316,-0.630,-0.475
2317,-0.630,-0.485
2318,-0.640,-0.485
2319,-0.660,-0.490
2320,-0.645,-0.495
2321,-0.645,-0.485
2322,-0.635,-0.480
2323,-0.635,-0.475
2324,-0.615,-0.460
2325,-0.600,-0.455
2326,-0.595,-0.460
2327,-0.605,-0.465
2328,-0.600,-0.470
2329,-0.600,-0.470
2330,-0.610,-0.475
2331,-0.620,-0.480
2332,-0.625,-0.470
2333,-0.625,-0.475
2334,-0.625,-0.465
2335,-0.610,-0.470
2336,-0.605,-0.465
2337,-0.585,-0.470
2338,-0.570,-0.475
2339,-0.560,-0.470
2340,-0.560,-0.485
2341,-0.555,-0.480
2342,-0.560,-0.475
2343,-0.575,-0.490
2344,-0.585,-0.480
2345,-0.570,-0.480
2346,-0.570,-0.475
2347,-0.560,-0.475
2348,-0.560,-0.475
2349,-0.555,-0.450
2350,-0.545,-0.455
2351,-0.550,-0.460
2352,-0.530,-0.465
2353,-0.535,-0.475
2354,-0.540,-0.475
2355,-0.535,-0.460
2356,-0.545,-0.465
2357,-0.545,-0.480
2358,-0.545,-0.475
2359,-0.540,-0.475
2360,-0.540,-0.470
2361,-0.530,-0.470
2362,-0.515,-0.465
2363,-0.520,-0.470
2364,-0.505,-0.465
2365,-0.505,-0.465
2366,-0.510,-0.470
2367,-0.515,-0.490
2368,-0.520,-0.485
2369,-0.520,-0.490
2370,-0.520,-0.485
2371,-0.510,-0.465
2372,-0.510,-0.475
2373,-0.500,-0.460
2374,-0.490,-0.465
2375,-0.485,-0.465
2376,-0.475,-0.460
2377,-0.490,-0.475
2378,-0.485,-0.485
2379,-0.500,-0.500
2380,-0.515,-0.520
2381,-0.525,-0.530
2382,-0.530,-0.540
2383,-0.520,-0.535
2384,-0.505,-0.515
2385,-0.495,-0.500
2386,-0.485,-0.505
2387,-0.495,-0.490
2388,-0.515,-0.490
2389,-0.535,-0.505
2390,-0.545,-0.515
2391,-0.550,-0.510
2392,-0.555,-0.505
2393,-0.550,-0.515
2394,-0.555,-0.535
2395,-0.555,-0.555
2396,-0.550,-0.565
2397,-0.550,-0.560
2398,-0.560,-0.550
2399,-0.560,-0.535
2400,-0.585,-0.510
2401,-0.605,-0.500
2402,-0.610,-0.510
2403,-0.620,-0.530
2404,-0.635,-0.520
2405,-0.640,-0.530
2406,-0.655,-0.515
2407,-0.645,-0.530
2408,-0.660,-0.550
2409,-0.660,-0.550
2410,-0.655,-0.580
2411,-0.650,-0.580
2412,-0.655,-0.570
2413,-0.660,-0.570
2414,-0.665,-0.560
2415,-0.685,-0.535
2416,-0.695,-0.530
2417,-0.690,-0.530
2418,-0.690,-0.500
2419,-0.675,-0.490
2420,-0.665,-0.500
2421,-0.660,-0.505
2422,-0.640,-0.545
2423,-0.650,-0.550
2424,-0.640,-0.550
2425,-0.650,-0.550
2426,-0.660,-0.520
2427,-0.670,-0.505
2428,-0.680,-0.490
2429,-0.670,-0.470
2430,-0.680,-0.485
2431,-0.670,-0.495
2432,-0.665,-0.520
2433,-0.660,-0.510
2434,-0.655,-0.530
2435,-0.655,-0.530
2436,-0.665,-0.565
2437,-0.665,-0.565
2438,-0.680,-0.585
2439,-0.690,-0.575
2440,-0.690,-0.575
2441,-0.685,-0.550
2442,-0.680,-0.525
2443,-0.660,-0.505
2444,-0.660,-0.500
2445,-0.665,-0.490
2446,-0.660,-0.525
2447,-0.665,-0.540
2448,-0.675,-0.545
2449,-0.675,-0.550
2450,-0.675,-0.545
2451,-0.690,-0.535
2452,-0.695,-0.540
2453,-0.700,-0.530
2454,-0.705,-0.520
2455,-0.725,-0.510
2456,-0.715,-0.500
2457,-0.705,-0.495
2458,-0.705,-0.510
2459,-0.700,-0.520
2460,-0.705,-0.520
2461,-0.720,-0.535
2462,-0.725,-0.540
2463,-0.725,-0.540
2464,-0.730,-0.540
2465,-0.720,-0.545
2466,-0.710,-0.530
2467,-0.720,-0.525
2468,-0.715,-0.515
2469,-0.705,-0.510
2470,-0.705,-0.510
2471,-0.705,-0.510
2472,-0.710,-0.520
2473,-0.715,-0.535
2474,-0.720,-0.530
2475,-0.715,-0.540
2476,-0.725,-0.545
2477,-0.735,-0.545
2478,-0.720,-0.525
2479,-0.720,-0.535
2480,-0.700,-0.520
2481,-0.695,-0.515
2482,-0.695,-0.525
2483,-0.695,-0.530
2484,-0.700,-0.525
2485,-0.710,-0.540
2486,-0.705,-0.550
2487,-0.720,-0.560
2488,-0.715,-0.555
2489,-0.715,-0.560
2490,-0.705,-0.550
2491,-0.690,-0.540
2492,-0.690,-0.530
2493,-0.685,-0.515
2494,-0.680,-0.540
2495,-0.695,-0.545
2496,-0.685,-0.550
2497,-0.685,-0.560
2498,-0.695,-0.560
2499,-0.695,-0.555
2500,-0.700,-0.555
2501,-0.690,-0.550
2502,-0.695,-0.540
2503,-0.695,-0.545
2504,-0.690,-0.540
2505,-0.680,-0.535
2506,-0.675,-0.545
2507,-0.675,-0.555
2508,-0.675,-0.560
2509,-0.680,-0.575
2510,-0.675,-0.570
2511,-0.680,-0.575
2512,-0.685,-0.570
2513,-0.685,-0.570
2514,-0.685,-0.550
2515,-0.680,-0.555
2516,-0.680,-0.555
2517,-0.670,-0.540
2518,-0.665,-0.545
2519,-0.670,-0.545
2520,-0.660,-0.550
2521,-0.665,-0.555
2522,-0.675,-0.560
2523,-0.680,-0.565
2524,-0.690,-0.570
2525,-0.690,-0.565
2526,-0.680,-0.550
2527,-0.665,-0.555
2528,-0.660,-0.550
2529,-0.665,-0.545
2530,-0.655,-0.545
2531,-0.665,-0.555
2532,-0.670,-0.555
2533,-0.675,-0.570
2534,-0.675,-0.575
2535,-0.705,-0.570
2536,-0.710,-0.565
2537,-0.695,-0.575
2538,-0.695,-0.570
2539,-0.695,-0.565
2540,-0.685,-0.550
2541,-0.665,-0.540
2542,-0.660,-0.540
2543,-0.665,-0.550
2544,-0.670,-0.550
2545,-0.695,-0.555
2546,-0.690,-0.570
2547,-0.690,-0.575
2548,-0.700,-0.575
2549,-0.690,-0.580
2550,-0.690,-0.565
2551,-0.680,-0.555
2552,-0.675,-0.555
2553,-0.680,-0.545
2554,-0.675,-0.550
2555,-0.670,-0.565
2556,-0.665,-0.565
2557,-0.670,-0.565
2558,-0.670,-0.570
2559,-0.695,-0.575
2560,-0.705,-0.580
2561,-0.700,-0.580
2562,-0.695,-0.570
2563,-0.690,-0.565
2564,-0.680,-0.560
2565,-0.675,-0.550
2566,-0.675,-0.545
2567,-0.670,-0.555
2568,-0.685,-0.565
2569,-0.680,-0.585
2570,-0.675,-0.575
2571,-0.685,-0.575
2572,-0.690,-0.570
2573,-0.685,-0.565
2574,-0.680,-0.550
2575,-0.680,-0.550
2576,-0.685,-0.540
2577,-0.660,-0.530
2578,-0.645,-0.540
2579,-0.645,-0.550
2580,-0.625,-0.545
2581,-0.620,-0.560
2582,-0.620,-0.565
2583,-0.630,-0.590
2584,-0.630,-0.595
2585,-0.635,-0.605
2586,-0.635,-0.625
2587,-0.635,-0.645
2588,-0.625,-0.635
2589,-0.615,-0.640
2590,-0.605,-0.640
2591,-0.610,-0.630
2592,-0.610,-0.630
2593,-0.620,-0.625
2594,-0.630,-0.630
2595,-0.630,-0.630
2596,-0.645,-0.635
2597,-0.640,-0.630
2598,-0.635,-0.615
2599,-0.620,-0.605
2600,-0.625,-0.590
2601,-0.600,-0.585
2602,-0.610,-0.575
2603,-0.605,-0.575
2604,-0.615,-0.570
2605,-0.630,-0.570
2606,-0.650,-0.575
2607,-0.660,-0.575
2608,-0.670,-0.575
2609,-0.670,-0.585
2610,-0.680,-0.575
2611,-0.685,-0.570
2612,-0.680,-0.560
2613,-0.675,-0.545
2614,-0.675,-0.555
2615,-0.675,-0.555
2616,-0.685,-0.560
2617,-0.705,-0.570
2618,-0.710,-0.570
2619,-0.715,-0.585
2620,-0.720,-0.585
2621,-0.705,-0.575
2622,-0.690,-0.560
2623,-0.680,-0.540
2624,-0.675,-0.525
2625,-0.650,-0.510
2626,-0.650,-0.500
2627,-0.655,-0.525
2628,-0.650,-0.570
2629,-0.645,-0.660
2630,-0.635,-0.785
2631,-0.595,-0.955
2632,-0.530,-1.145
2633,-0.435,-1.375
2634,-0.315,-1.575
2635,-0.170,-1.745
2636,-0.020,-1.820
2637,0.115,-1.765
2638,0.220,-1.610
2639,0.275,-1.405
2640,0.345,-1.200
2641,0.395,-1.025
2642,0.425,-0.900
2643,0.400,-0.790
2644,0.360,-0.710
2645,0.290,-0.640
2646,0.210,-0.585
2647,0.120,-0.550
2648,0.040,-0.535
2649,-0.055,-0.525
2650,-0.155,-0.535
2651,-0.260,-0.525
2652,-0.350,-0.520
2653,-0.450,-0.530
2654,-0.520,-0.515
2655,-0.570,-0.515
2656,-0.630,-0.525
2657,-0.665,-0.520
2658,-0.675,-0.500
2659,-0.670,-0.495
2660,-0.665,-0.485
2661,-0.670,-0.470
2662,-0.655,-0.475
2663,-0.650,-0.485
2664,-0.650,-0.470
2665,-0.640,-0.490
2666,-0.650,-0.495
2667,-0.660,-0.485
2668,-0.665,-0.495
2669,-0.655,-0.490
2670,-0.660,-0.480
2671,-0.645,-0.480
2672,-0.640,-0.460
2673,-0.630,-0.450
2674,-0.625,-0.455
2675,-0.620,-0.470
2676,-0.630,-0.465
2677,-0.645,-0.475
2678,-0.650,-0.480
2679,-0.655,-0.485
2680,-0.655,-0.490
2681,-0.650,-0.485
2682,-0.645,-0.470
2683,-0.640,-0.460
2684,-0.625,-0.455
2685,-0.625,-0.450
2686,-0.615,-0.455
2687,-0.615,-0.470
2688,-0.615,-0.465
2689,-0.620,-0.475
2690,-0.630,-0.480
2691,-0.625,-0.480
2692,-0.625,-0.475
2693,-0.635,-0.465
2694,-0.630,-0.465
2695,-0.625,-0.465
2696,-0.620,-0.455
2697,-0.620,-0.455
2698,-0.605,-0.470
2699,-0.610,-0.460
2700,-0.600,-0.470
2701,-0.620,-0.465
2702,-0.610,-0.475
2703,-0.610,-0.475
2704,-0.630,-0.475
2705,-0.625,-0.475
2706,-0.625,-0.480
2707,-0.615,-0.465
2708,-0.610,-0.455
2709,-0.595,-0.450
2710,-0.590,-0.455
2711,-0.580,-0.460
2712,-0.585,-0.470
2713,-0.590,-0.475
2714,-0.600,-0.475
2715,-0.600,-0.485
2716,-0.605,-0.480
2717,-0.590,-0.485
2718,-0.595,-0.480
2719,-0.585,-0.460
2720,-0.565,-0.475
2721,-0.565,-0.450
2722,-0.565,-0.455
2723,-0.560,-0.460
2724,-0.585,-0.470
2725,-0.585,-0.465
2726,-0.565,-0.485
2727,-0.570,-0.475
2728,-0.590,-0.485
2729,-0.580,-0.485
2730,-0.580,-0.465
2731,-0.575,-0.475
2732,-0.575,-0.475
2733,-0.570,-0.475
2734,-0.570,-0.470
2735,-0.555,-0.485
2736,-0.555,-0.495
2737,-0.550,-0.510
2738,-0.565,-0.515
2739,-0.575,-0.515
2740,-0.585,-0.510
2741,-0.595,-0.525
2742,-0.595,-0.510
2743,-0.590,-0.500
2744,-0.590,-0.500
2745,-0.585,-0.505
2746,-0.590,-0.515
2747,-0.600,-0.520
2748,-0.600,-0.535
2749,-0.615,-0.545
2750,-0.625,-0.555
2751,-0.640,-0.550
2752,-0.650,-0.555
2753,-0.670,-0.550
2754,-0.675,-0.540
2755,-0.670,-0.545
2756,-0.670,-0.555
2757,-0.665,-0.535
2758,-0.675,-0.535
2759,-0.675,-0.545
2760,-0.685,-0.545
2761,-0.705,-0.545
2762,-0.720,-0.575
2763,-0.735,-0.565
2764,-0.745,-0.570
2765,-0.745,-0.570
2766,-0.745,-0.560
2767,-0.745,-0.545
2768,-0.745,-0.545
2769,-0.735,-0.540
2770,-0.740,-0.555
2771,-0.750,-0.545
2772,-0.755,-0.560
2773,-0.760,-0.560
2774,-0.760,-0.560
2775,-0.775,-0.565
2776,-0.790,-0.565
2777,-0.775,-0.550
2778,-0.785,-0.550
2779,-0.780,-0.555
2780,-0.765,-0.530
2781,-0.770,-0.530
2782,-0.770,-0.525
2783,-0.765,-0.530
2784,-0.770,-0.540
2785,-0.775,-0.535
2786,-0.785,-0.545
2787,-0.790,-0.540
2788,-0.795,-0.560
2789,-0.805,-0.550
2790,-0.805,-0.540
2791,-0.795,-0.535
2792,-0.790,-0.510
2793,-0.785,-0.525
2794,-0.795,-0.520
2795,-0.795,-0.530
2796,-0.795,-0.530
2797,-0.795,-0.530
2798,-0.810,-0.535
2799,-0.825,-0.550
2800,-0.820,-0.540
2801,-0.835,-0.530
2802,-0.835,-0.520
2803,-0.830,-0.525
2804,-0.825,-0.515
2805,-0.815,-0.510
2806,-0.820,-0.515
2807,-0.825,-0.515
2808,-0.830,-0.530
2809,-0.830,-0.530
2810,-0.845,-0.540
2811,-0.845,-0.550
2812,-0.855,-0.535
2813,-0.855,-0.540
2814,-0.860,-0.535
2815,-0.850,-0.530
2816,-0.855,-0.520
2817,-0.850,-0.520
2818,-0.840,-0.535
2819,-0.850,-0.520
2820,-0.850,-0.540
2821,-0.850,-0.555
2822,-0.870,-0.550
2823,-0.880,-0.540
2824,-0.880,-0.560
2825,-0.890,-0.555
2826,-0.880,-0.555
2827,-0.870,-0.540
2828,-0.870,-0.545
2829,-0.860,-0.535
2830,-0.860,-0.535
2831,-0.865,-0.545
2832,-0.870,-0.560
2833,-0.865,-0.560
2834,-0.870,-0.575
2835,-0.875,-0.575
2836,-0.880,-0.570
2837,-0.875,-0.560
2838,-0.875,-0.560
2839,-0.890,-0.545
2840,-0.870,-0.540
2841,-0.865,-0.535
2842,-0.865,-0.535
2843,-0.855,-0.545
2844,-0.850,-0.560
2845,-0.870,-0.565
2846,-0.875,-0.570
2847,-0.875,-0.565
2848,-0.880,-0.570
2849,-0.880,-0.560
2850,-0.880,-0.550
2851,-0.875,-0.555
2852,-0.865,-0.540
2853,-0.860,-0.555
2854,-0.855,-0.560
2855,-0.855,-0.550
2856,-0.855,-0.565
2857,-0.845,-0.580
2858,-0.860,-0.565
2859,-0.870,-0.575
2860,-0.860,-0.580
2861,-0.870,-0.570
2862,-0.885,-0.570
2863,-0.865,-0.560
2864,-0.865,-0.550
2865,-0.850,-0.550
2866,-0.840,-0.550
2867,-0.835,-0.555
2868,-0.835,-0.560
2869,-0.850,-0.575
2870,-0.845,-0.565
2871,-0.860,-0.580
2872,-0.865,-0.575
2873,-0.865,-0.580
2874,-0.870,-0.575
2875,-0.865,-0.565
2876,-0.865,-0.570
2877,-0.845,-0.550
2878,-0.840,-0.545
2879,-0.835,-0.550
2880,-0.825,-0.550
2881,-0.840,-0.565
2882,-0.860,-0.580
2883,-0.870,-0.585
2884,-0.870,-0.575
2885,-0.870,-0.580
2886,-0.860,-0.575
2887,-0.855,-0.565
2888,-0.835,-0.555
2889,-0.825,-0.545
2890,-0.820,-0.550
2891,-0.825,-0.560
2892,-0.830,-0.560
2893,-0.830,-0.560
2894,-0.850,-0.575
2895,-0.860,-0.575
2896,-0.860,-0.580
2897,-0.860,-0.575
2898,-0.855,-0.570
2899,-0.845,-0.555
2900,-0.840,-0.560
2901,-0.840,-0.555
2902,-0.840,-0.550
2903,-0.835,-0.555
2904,-0.845,-0.565
2905,-0.840,-0.580
2906,-0.830,-0.585
2907,-0.855,-0.590
2908,-0.845,-0.580
2909,-0.830,-0.580
2910,-0.850,-0.565
2911,-0.835,-0.550
2912,-0.835,-0.560
2913,-0.830,-0.555
2914,-0.830,-0.560
2915,-0.835,-0.560
2916,-0.835,-0.570
2917,-0.840,-0.585
2918,-0.850,-0.590
2919,-0.850,-0.590
2920,-0.840,-0.590
2921,-0.850,-0.575
2922,-0.840,-0.580
2923,-0.835,-0.570
2924,-0.825,-0.560
2925,-0.825,-0.565
2926,-0.820,-0.565
2927,-0.820,-0.560
2928,-0.810,-0.575
2929,-0.820,-0.575
2930,-0.815,-0.590
2931,-0.825,-0.600
2932,-0.830,-0.595
2933,-0.830,-0.585
2934,-0.830,-0.580
2935,-0.825,-0.565
2936,-0.825,-0.565
2937,-0.815,-0.565
2938,-0.800,-0.560
2939,-0.800,-0.565
2940,-0.805,-0.575
2941,-0.810,-0.570
2942,-0.820,-0.585
2943,-0.820,-0.590
2944,-0.810,-0.575
2945,-0.820,-0.575
2946,-0.805,-0.565
2947,-0.800,-0.560
2948,-0.785,-0.555
2949,-0.765,-0.570
2950,-0.740,-0.580
2951,-0.750,-0.605
2952,-0.755,-0.625
2953,-0.765,-0.650
2954,-0.770,-0.670
2955,-0.775,-0.685
2956,-0.780,-0.695
2957,-0.785,-0.670
2958,-0.785,-0.665
2959,-0.780,-0.650
2960,-0.790,-0.645
2961,-0.775,-0.630
2962,-0.780,-0.625
2963,-0.765,-0.630
2964,-0.770,-0.630
2965,-0.760,-0.645
2966,-0.765,-0.635
2967,-0.775,-0.640
2968,-0.775,-0.640
2969,-0.775,-0.625
2970,-0.770,-0.615
2971,-0.770,-0.590
2972,-0.770,-0.575
2973,-0.770,-0.570
2974,-0.775,-0.560
2975,-0.790,-0.585
2976,-0.785,-0.585
2977,-0.810,-0.585
2978,-0.825,-0.600
2979,-0.830,-0.595
2980,-0.845,-0.605
2981,-0.840,-0.595
2982,-0.840,-0.585
2983,-0.830,-0.575
2984,-0.825,-0.575
2985,-0.815,-0.575
2986,-0.810,-0.580
2987,-0.815,-0.570
2988,-0.810,-0.575
2989,-0.835,-0.590
2990,-0.840,-0.580
2991,-0.845,-0.580
2992,-0.835,-0.590
2993,-0.835,-0.565
2994,-0.830,-0.560
2995,-0.825,-0.540
2996,-0.815,-0.540
2997,-0.800,-0.560
2998,-0.775,-0.625
2999,-0.765,-0.740
3000,-0.730,-0.905
3001,-0.680,-1.120
3002,-0.590,-1.365
3003,-0.485,-1.615
3004,-0.355,-1.830
3005,-0.235,-1.930
3006,-0.105,-1.880
3007,-0.005,-1.740
3008,0.065,-1.535
3009,0.115,-1.330
3010,0.160,-1.145
3011,0.190,-1.005
3012,0.210,-0.915
3013,0.205,-0.840
3014,0.150,-0.775
3015,0.100,-0.710
3016,0.015,-0.660
3017,-0.050,-0.610
3018,-0.130,-0.575
3019,-0.225,-0.560
3020,-0.320,-0.550
3021,-0.415,-0.540
3022,-0.500,-0.535
3023,-0.570,-0.530
3024,-0.635,-0.525
3025,-0.695,-0.525
3026,-0.740,-0.535
3027,-0.780,-0.530
3028,-0.810,-0.535
3029,-0.815,-0.520
3030,-0.820,-0.505
3031,-0.820,-0.495
3032,-0.810,-0.490
3033,-0.805,-0.480
3034,-0.790,-0.495
3035,-0.795,-0.490
3036,-0.795,-0.500
3037,-0.795,-0.495
3038,-0.810,-0.515
3039,-0.825,-0.515
3040,-0.815,-0.510
3041,-0.815,-0.520
3042,-0.805,-0.495
3043,-0.805,-0.485
3044,-0.810,-0.480
3045,-0.805,-0.480
3046,-0.790,-0.480
3047,-0.785,-0.490
3048,-0.795,-0.485
3049,-0.790,-0.490
3050,-0.800,-0.495
3051,-0.795,-0.495
3052,-0.800,-0.495
3053,-0.800,-0.500
3054,-0.790,-0.480
3055,-0.785,-0.480
3056,-0.775,-0.465
3057,-0.770,-0.465
3058,-0.760,-0.475
3059,-0.760,-0.480
3060,-0.755,-0.475
3061,-0.770,-0.485
3062,-0.770,-0.495
3063,-0.785,-0.500
3064,-0.780,-0.495
3065,-0.775,-0.500
3066,-0.780,-0.495
3067,-0.770,-0.490
3068,-0.765,-0.480
3069,-0.760,-0.470
3070,-0.745,-0.465
3071,-0.750,-0.485
3072,-0.755,-0.500
3073,-0.755,-0.495
3074,-0.760,-0.500
3075,-0.770,-0.510
3076,-0.770,-0.505
3077,-0.760,-0.505
3078,-0.775,-0.490
3079,-0.760,-0.485
3080,-0.765,-0.485
3081,-0.750,-0.465
3082,-0.750,-0.485
3083,-0.740,-0.485
3084,-0.745,-0.490
3085,-0.745,-0.495
3086,-0.755,-0.505
3087,-0.750,-0.515
3088,-0.750,-0.505
3089,-0.750,-0.505
3090,-0.745,-0.510
3091,-0.745,-0.495
3092,-0.735,-0.495
3093,-0.720,-0.485
3094,-0.720,-0.485
3095,-0.715,-0.485
3096,-0.705,-0.490
3097,-0.710,-0.500
3098,-0.705,-0.515
3099,-0.730,-0.515
3100,-0.735,-0.525
3101,-0.740,-0.515
3102,-0.730,-0.495
3103,-0.730,-0.495
3104,-0.735,-0.495
3105,-0.710,-0.480
3106,-0.695,-0.490
3107,-0.690,-0.510
3108,-0.695,-0.515
3109,-0.700,-0.520
3110,-0.710,-0.540
3111,-0.730,-0.545
3112,-0.740,-0.550
3113,-0.745,-0.550
3114,-0.735,-0.530
3115,-0.715,-0.535
3116,-0.725,-0.535
3117,-0.720,-0.535
3118,-0.720,-0.530
3119,-0.735,-0.560
3120,-0.745,-0.555
3121,-0.755,-0.560
3122,-0.760,-0.575
3123,-0.785,-0.580
3124,-0.775,-0.575
3125,-0.795,-0.575
3126,-0.800,-0.570
3127,-0.805,-0.560
3128,-0.815,-0.550
3129,-0.820,-0.545
3130,-0.805,-0.545
3131,-0.810,-0.565
3132,-0.820,-0.555
3133,-0.830,-0.570
3134,-0.840,-0.585
3135,-0.870,-0.575
3136,-0.875,-0.595
3137,-0.885,-0.580
3138,-0.880,-0.575
3139,-0.865,-0.560
3140,-0.875,-0.555
3141,-0.880,-0.545
3142,-0.870,-0.560
3143,-0.880,-0.565
3144,-0.890,-0.555
3145,-0.885,-0.560
3146,-0.900,-0.565
3147,-0.910,-0.565
3148,-0.930,-0.575
3149,-0.930,-0.565
3150,-0.925,-0.555
3151,-0.925,-0.560
3152,-0.915,-0.550
3153,-0.920,-0.545
3154,-0.915,-0.540
3155,-0.910,-0.535
3156,-0.930,-0.545
3157,-0.945,-0.545
3158,-0.940,-0.550
3159,-0.955,-0.565
3160,-0.960,-0.555
3161,-0.965,-0.555
3162,-0.960,-0.545
3163,-0.945,-0.535
3164,-0.945,-0.530
3165,-0.940,-0.520
3166,-0.935,-0.515
3167,-0.920,-0.525
3168,-0.930,-0.515
3169,-0.945,-0.540
3170,-0.950,-0.550
3171,-0.965,-0.545
3172,-0.960,-0.545
3173,-0.965,-0.540
3174,-0.965,-0.525
3175,-0.970,-0.525
3176,-0.960,-0.515
3177,-0.960,-0.515
3178,-0.955,-0.515
3179,-0.960,-0.530
3180,-0.970,-0.535
3181,-0.970,-0.530
3182,-0.985,-0.535
3183,-0.985,-0.545
3184,-0.995,-0.540
3185,-1.000,-0.535
3186,-1.005,-0.530
3187,-1.000,-0.535
3188,-0.990,-0.520
3189,-0.990,-0.515
3190,-0.980,-0.520
3191,-0.995,-0.525
3192,-1.000,-0.530
3193,-1.005,-0.530
3194,-1.005,-0.550
3195,-1.000,-0.560
3196,-1.005,-0.560
3197,-1.005,-0.555
3198,-1.005,-0.555
3199,-1.010,-0.545
3200,-1.010,-0.530
3201,-1.005,-0.525
3202,-0.990,-0.520
3203,-0.995,-0.540
3204,-0.990,-0.525
3205,-1.000,-0.540
3206,-1.000,-0.545
3207,-1.005,-0.560
3208,-1.015,-0.570
3209,-1.020,-0.565
3210,-1.025,-0.545
3211,-1.010,-0.545
3212,-1.020,-0.535
3213,-0.995,-0.535
3214,-0.995,-0.535
3215,-0.990,-0.545
3216,-1.000,-0.540
3217,-1.005,-0.545
3218,-1.005,-0.555
3219,-1.015,-0.560
3220,-1.010,-0.565
3221,-1.010,-0.560
3222,-1.010,-0.555
3223,-1.005,-0.550
3224,-1.000,-0.550
3225,-0.985,-0.535
3226,-0.975,-0.540
3227,-0.990,-0.540
3228,-0.985,-0.550
3229,-0.975,-0.560
3230,-0.995,-0.560
3231,-1.000,-0.575
3232,-1.005,-0.560
3233,-1.010,-0.570
3234,-1.010,-0.565
3235,-1.000,-0.550
3236,-1.005,-0.545
3237,-0.990,-0.540
3238,-0.985,-0.540
3239,-0.985,-0.540
3240,-0.980,-0.545
3241,-0.980,-0.555
3242,-0.995,-0.565
3243,-1.005,-0.565
3244,-1.010,-0.580
3245,-1.010,-0.570
3246,-1.020,-0.555
3247,-1.000,-0.555
3248,-0.995,-0.550
3249,-0.985,-0.535
3250,-0.975,-0.545
3251,-0.975,-0.545
3252,-0.985,-0.555
3253,-0.980,-0.550
3254,-0.995,-0.565
3255,-1.005,-0.575
3256,-1.020,-0.580
3257,-1.015,-0.565
3258,-1.010,-0.565
3259,-1.000,-0.565
3260,-0.985,-0.555
3261,-0.980,-0.550
3262,-0.970,-0.550
3263,-0.980,-0.550
3264,-0.965,-0.555
3265,-0.980,-0.565
3266,-0.980,-0.565
3267,-0.990,-0.575
3268,-0.990,-0.570
3269,-0.995,-0.575
3270,-0.995,-0.565
3271,-0.980,-0.560
3272,-0.985,-0.550
3273,-0.970,-0.550
3274,-0.965,-0.535
3275,-0.970,-0.545
3276,-0.975,-0.560
3277,-0.975,-0.560
3278,-1.000,-0.565
3279,-0.995,-0.580
3280,-1.000,-0.570
3281,-0.990,-0.565
3282,-0.990,-0.565
3283,-0.980,-0.555
3284,-0.985,-0.540
3285,-0.970,-0.545
3286,-0.970,-0.540
3287,-0.965,-0.545
3288,-0.965,-0.575
3289,-0.970,-0.570
3290,-0.985,-0.580
3291,-0.975,-0.580
3292,-0.985,-0.570
3293,-0.985,-0.570
3294,-0.985,-0.565
3295,-0.985,-0.550
3296,-0.970,-0.565
3297,-0.965,-0.540
3298,-0.955,-0.535
3299,-0.950,-0.545
3300,-0.955,-0.555
3301,-0.960,-0.575
3302,-0.980,-0.575
3303,-0.975,-0.575
3304,-0.970,-0.575
3305,-0.970,-0.565
3306,-0.975,-0.550
3307,-0.965,-0.555
3308,-0.965,-0.540
3309,-0.955,-0.560
3310,-0.955,-0.545
3311,-0.950,-0.550
3312,-0.945,-0.545
3313,-0.970,-0.555
3314,-0.955,-0.555
3315,-0.945,-0.555
3316,-0.945,-0.555
3317,-0.925,-0.555
3318,-0.925,-0.555
3319,-0.900,-0.555
3320,-0.905,-0.555
3321,-0.890,-0.555
3322,-0.890,-0.575
3323,-0.905,-0.625
3324,-0.910,-0.630
3325,-0.900,-0.655
3326,-0.895,-0.660
3327,-0.890,-0.645
3328,-0.900,-0.640
3329,-0.895,-0.630
3330,-0.905,-0.620
3331,-0.900,-0.610
3332,-0.895,-0.600
3333,-0.890,-0.600
3334,-0.890,-0.600
3335,-0.895,-0.595
3336,-0.895,-0.605
3337,-0.890,-0.590
3338,-0.905,-0.590
3339,-0.905,-0.580
3340,-0.920,-0.570
3341,-0.925,-0.550
3342,-0.930,-0.555
3343,-0.930,-0.545
3344,-0.930,-0.540
3345,-0.920,-0.540
3346,-0.915,-0.540
3347,-0.925,-0.550
3348,-0.925,-0.540
3349,-0.930,-0.550
3350,-0.945,-0.550
3351,-0.960,-0.550
3352,-0.960,-0.565
3353,-0.955,-0.565
3354,-0.960,-0.550
3355,-0.960,-0.545
3356,-0.965,-0.545
3357,-0.940,-0.540
3358,-0.925,-0.530
3359,-0.925,-0.525
3360,-0.920,-0.520
3361,-0.915,-0.525
3362,-0.920,-0.515
3363,-0.920,-0.525
3364,-0.920,-0.540
3365,-0.900,-0.590
3366,-0.890,-0.685
3367,-0.840,-0.810
3368,-0.780,-0.995
3369,-0.700,-1.205
3370,-0.590,-1.410
3371,-0.485,-1.600
3372,-0.360,-1.730
3373,-0.230,-1.790
3374,-0.150,-1.745
3375,-0.080,-1.655
3376,-0.040,-1.510
3377,-0.005,-1.350
3378,0.020,-1.200
3379,0.055,-1.060
3380,0.080,-0.965
3381,0.095,-0.880
3382,0.070,-0.785
3383,0.010,-0.725
3384,-0.060,-0.655
3385,-0.135,-0.610
3386,-0.220,-0.580
3387,-0.300,-0.565
3388,-0.390,-0.550
3389,-0.485,-0.550
3390,-0.570,-0.525
3391,-0.635,-0.495
3392,-0.690,-0.490
3393,-0.750,-0.470
3394,-0.805,-0.470
3395,-0.845,-0.470
3396,-0.880,-0.475
3397,-0.890,-0.485
3398,-0.895,-0.475
3399,-0.905,-0.505
3400,-0.895,-0.480
3401,-0.895,-0.480
3402,-0.900,-0.470
3403,-0.890,-0.465
3404,-0.885,-0.450
3405,-0.870,-0.455
3406,-0.865,-0.450
3407,-0.865,-0.465
3408,-0.865,-0.460
3409,-0.860,-0.465
3410,-0.875,-0.465
3411,-0.885,-0.475
3412,-0.885,-0.485
3413,-0.885,-0.480
3414,-0.890,-0.465
3415,-0.875,-0.460
3416,-0.860,-0.460
3417,-0.850,-0.450
3418,-0.840,-0.465
3419,-0.835,-0.445
3420,-0.830,-0.450
3421,-0.835,-0.455
3422,-0.840,-0.465
3423,-0.835,-0.475
3424,-0.845,-0.480
3425,-0.845,-0.485
3426,-0.840,-0.480
3427,-0.835,-0.470
3428,-0.825,-0.465
3429,-0.815,-0.455
3430,-0.800,-0.445
3431,-0.800,-0.465
3432,-0.810,-0.460
3433,-0.810,-0.480
3434,-0.815,-0.485
3435,-0.825,-0.490
3436,-0.820,-0.500
3437,-0.825,-0.495
3438,-0.815,-0.480
3439,-0.805,-0.465
3440,-0.805,-0.470
3441,-0.800,-0.450
3442,-0.785,-0.460
3443,-0.790,-0.455
3444,-0.790,-0.475
3445,-0.800,-0.485
3446,-0.800,-0.490
3447,-0.805,-0.480
3448,-0.805,-0.490
3449,-0.805,-0.475
3450,-0.810,-0.475
3451,-0.800,-0.465
3452,-0.800,-0.465
3453,-0.790,-0.465
3454,-0.775,-0.450
3455,-0.780,-0.470
3456,-0.780,-0.460
3457,-0.785,-0.485
3458,-0.785,-0.480
3459,-0.780,-0.490
3460,-0.785,-0.485
3461,-0.780,-0.485
3462,-0.780,-0.475
3463,-0.770,-0.470
3464,-0.775,-0.470
3465,-0.755,-0.465
3466,-0.745,-0.455
3467,-0.735,-0.455
3468,-0.735,-0.475
3469,-0.740,-0.490
3470,-0.745,-0.490
3471,-0.755,-0.495
3472,-0.750,-0.505
3473,-0.755,-0.505
3474,-0.760,-0.490
3475,-0.755,-0.490
3476,-0.750,-0.495
3477,-0.735,-0.485
3478,-0.730,-0.490
3479,-0.730,-0.495
3480,-0.735,-0.495
3481,-0.735,-0.505
3482,-0.755,-0.515
3483,-0.765,-0.530
3484,-0.780,-0.520
3485,-0.780,-0.520
3486,-0.780,-0.520
3487,-0.785,-0.505
3488,-0.780,-0.510
3489,-0.780,-0.495
3490,-0.775,-0.505
3491,-0.790,-0.505
3492,-0.800,-0.515
3493,-0.805,-0.515
3494,-0.825,-0.515
3495,-0.835,-0.525
3496,-0.855,-0.530
3497,-0.860,-0.520
3498,-0.865,-0.510
3499,-0.855,-0.510
3500,-0.870,-0.515
3501,-0.865,-0.500
3502,-0.870,-0.505
3503,-0.880,-0.510
3504,-0.900,-0.500
3505,-0.915,-0.530
3506,-0.915,-0.530
3507,-0.925,-0.530
3508,-0.935,-0.530
3509,-0.945,-0.535
3510,-0.950,-0.535
3511,-0.945,-0.525
3512,-0.940,-0.505
3513,-0.935,-0.510
3514,-0.935,-0.500
3515,-0.940,-0.510
3516,-0.940,-0.515
3517,-0.955,-0.520
3518,-0.960,-0.525
3519,-0.965,-0.540
3520,-0.985,-0.540
3521,-0.985,-0.520
3522,-0.985,-0.530
3523,-0.960,-0.520
3524,-0.955,-0.515
3525,-0.955,-0.495
3526,-0.955,-0.495
3527,-0.960,-0.495
3528,-0.965,-0.500
3529,-0.975,-0.515
3530,-0.980,-0.510
3531,-0.975,-0.525
3532,-0.990,-0.525
3533,-1.010,-0.505
3534,-1.010,-0.505
3535,-1.010,-0.490
3536,-1.005,-0.500
3537,-0.990,-0.490
3538,-0.985,-0.490
3539,-0.995,-0.495
3540,-0.985,-0.510
3541,-0.990,-0.510
3542,-1.005,-0.515
3543,-1.010,-0.515
3544,-1.015,-0.530
3545,-1.035,-0.520
3546,-1.025,-0.515
3547,-1.020,-0.500
3548,-1.030,-0.495
3549,-1.020,-0.485
3550,-1.010,-0.490
3551,-1.015,-0.495
3552,-1.010,-0.495
3553,-1.020,-0.500
3554,-1.035,-0.510
3555,-1.040,-0.520
3556,-1.045,-0.520
3557,-1.045,-0.520
3558,-1.065,-0.515
3559,-1.055,-0.500
3560,-1.045,-0.500
3561,-1.030,-0.495
3562,-1.025,-0.490
3563,-1.025,-0.510
3564,-1.020,-0.505
3565,-1.025,-0.515
3566,-1.030,-0.530
3567,-1.050,-0.535
3568,-1.050,-0.530
3569,-1.045,-0.530
3570,-1.045,-0.525
3571,-1.040,-0.515
3572,-1.040,-0.510
3573,-1.030,-0.495
3574,-1.020,-0.500
3575,-1.015,-0.510
3576,-1.020,-0.520
3577,-1.025,-0.525
3578,-1.030,-0.535
3579,-1.040,-0.550
3580,-1.050,-0.540
3581,-1.045,-0.550
3582,-1.050,-0.535
3583,-1.035,-0.525
3584,-1.020,-0.525
3585,-1.025,-0.510
3586,-1.010,-0.510
3587,-1.005,-0.525
3588,-1.005,-0.520
3589,-1.010,-0.535
3590,-1.015,-0.540
3591,-1.010,-0.545
3592,-1.025,-0.555
3593,-1.025,-0.545
3594,-1.025,-0.535
3595,-1.015,-0.535
3596,-1.020,-0.515
3597,-1.005,-0.525
3598,-1.000,-0.520
3599,-1.000,-0.525
3600,-0.990,-0.520
3601,-0.995,-0.540
3602,-1.000,-0.540
3603,-1.000,-0.550
3604,-1.010,-0.550
3605,-1.025,-0.560
3606,-1.015,-0.545
3607,-1.015,-0.535
3608,-1.015,-0.525
3609,-1.005,-0.520
3610,-1.000,-0.515
3611,-1.000,-0.520
3612,-0.990,-0.535
3613,-0.995,-0.530
3614,-1.000,-0.540
3615,-1.005,-0.540
3616,-1.010,-0.545
3617,-1.020,-0.550
3618,-1.010,-0.545
3619,-1.015,-0.535
3620,-1.000,-0.525
3621,-0.990,-0.525
3622,-0.980,-0.520
3623,-0.980,-0.525
3624,-0.975,-0.530
3625,-0.985,-0.545
3626,-1.005,-0.550
3627,-0.995,-0.545
3628,-1.005,-0.545
3629,-1.020,-0.550
3630,-1.025,-0.560
3631,-1.000,-0.525
3632,-0.995,-0.530
3633,-0.985,-0.525
3634,-0.975,-0.525
3635,-0.975,-0.530
3636,-0.980,-0.530
3637,-0.975,-0.535
3638,-1.005,-0.540
3639,-1.000,-0.565
3640,-0.995,-0.555
3641,-1.000,-0.555
3642,-0.995,-0.545
3643,-0.995,-0.545
3644,-0.985,-0.540
3645,-0.990,-0.520
3646,-0.980,-0.525
3647,-0.980,-0.530
3648,-0.985,-0.545
3649,-0.980,-0.550
3650,-0.985,-0.550
3651,-0.995,-0.570
3652,-0.985,-0.565
3653,-1.015,-0.555
3654,-0.990,-0.550
3655,-0.990,-0.535
3656,-0.985,-0.530
3657,-0.975,-0.530
3658,-0.975,-0.530
3659,-0.965,-0.535
3660,-0.975,-0.535
3661,-0.970,-0.560
3662,-0.970,-0.550
3663,-0.985,-0.560
3664,-0.980,-0.560
3665,-0.985,-0.560
3666,-0.985,-0.545
3667,-0.985,-0.555
3668,-0.980,-0.550
3669,-0.970,-0.535
3670,-0.960,-0.530
3671,-0.970,-0.510
3672,-0.960,-0.530
3673,-0.955,-0.540
3674,-0.950,-0.545
3675,-0.960,-0.540
3676,-0.955,-0.545
3677,-0.945,-0.555
3678,-0.955,-0.550
3679,-0.935,-0.535
3680,-0.925,-0.550
3681,-0.905,-0.555
3682,-0.915,-0.580
3683,-0.925,-0.595
3684,-0.905,-0.625
3685,-0.910,-0.635
3686,-0.910,-0.645
3687,-0.915,-0.635
3688,-0.920,-0.645
3689,-0.930,-0.625
3690,-0.930,-0.615
3691,-0.930,-0.590
3692,-0.940,-0.605
3693,-0.930,-0.590
3694,-0.910,-0.595
3695,-0.900,-0.590
3696,-0.905,-0.605
3697,-0.905,-0.595
3698,-0.915,-0.595
3699,-0.915,-0.580
3700,-0.925,-0.570
3701,-0.940,-0.555
3702,-0.940,-0.550
3703,-0.940,-0.545
3704,-0.935,-0.550
3705,-0.925,-0.530
3706,-0.945,-0.540
3707,-0.940,-0.535
3708,-0.950,-0.545
3709,-0.955,-0.550
3710,-0.960,-0.565
3711,-0.975,-0.555
3712,-0.975,-0.560
3713,-0.980,-0.560
3714,-0.975,-0.555
3715,-0.965,-0.545
3716,-0.965,-0.545
3717,-0.955,-0.535
3718,-0.945,-0.540
3719,-0.940,-0.540
3720,-0.940,-0.535
3721,-0.935,-0.515
3722,-0.940,-0.515
3723,-0.940,-0.530
3724,-0.945,-0.540
3725,-0.940,-0.575
3726,-0.940,-0.645
3727,-0.900,-0.780
3728,-0.830,-0.945
3729,-0.775,-1.155
3730,-0.670,-1.365
3731,-0.535,-1.570
3732,-0.400,-1.725
3733,-0.265,-1.785
3734,-0.170,-1.775
3735,-0.085,-1.655
3736,-0.025,-1.510
3737,0.000,-1.320
3738,0.020,-1.155
3739,0.060,-1.005
3740,0.080,-0.890
3741,0.080,-0.825
3742,0.060,-0.740
3743,-0.015,-0.680
3744,-0.070,-0.625
3745,-0.150,-0.590
3746,-0.230,-0.565
3747,-0.310,-0.560
3748,-0.405,-0.565
3749,-0.495,-0.535
3750,-0.580,-0.535
3751,-0.660,-0.515
3752,-0.725,-0.500
3753,-0.775,-0.485
3754,-0.810,-0.480
3755,-0.840,-0.485
3756,-0.885,-0.495
3757,-0.920,-0.495
3758,-0.925,-0.490
3759,-0.935,-0.495
3760,-0.935,-0.490
3761,-0.935,-0.495
3762,-0.935,-0.485
3763,-0.915,-0.480
3764,-0.920,-0.475
3765,-0.915,-0.465
3766,-0.905,-0.475
3767,-0.910,-0.470
3768,-0.910,-0.480
3769,-0.920,-0.475
3770,-0.900,-0.480
3771,-0.910,-0.480
3772,-0.905,-0.500
3773,-0.920,-0.485
3774,-0.905,-0.470
3775,-0.920,-0.460
3776,-0.910,-0.470
3777,-0.905,-0.455
3778,-0.885,-0.455
3779,-0.885,-0.455
3780,-0.895,-0.460
3781,-0.885,-0.470
3782,-0.890,-0.480
3783,-0.895,-0.490
3784,-0.895,-0.480
3785,-0.905,-0.475
3786,-0.895,-0.475
3787,-0.885,-0.480
3788,-0.875,-0.465
3789,-0.885,-0.470
3790,-0.865,-0.465
3791,-0.860,-0.470
3792,-0.855,-0.480
3793,-0.860,-0.485
3794,-0.870,-0.485
3795,-0.880,-0.490
3796,-0.885,-0.500
3797,-0.900,-0.495
3798,-0.900,-0.490
3799,-0.900,-0.485
3800,-0.885,-0.475
3801,-0.885,-0.475
3802,-0.870,-0.460
3803,-0.860,-0.470
3804,-0.845,-0.470
3805,-0.860,-0.490
3806,-0.865,-0.495
3807,-0.855,-0.495
3808,-0.865,-0.505
3809,-0.870,-0.500
3810,-0.870,-0.490
3811,-0.860,-0.500
3812,-0.855,-0.495
3813,-0.855,-0.480
3814,-0.835,-0.470
3815,-0.830,-0.480
3816,-0.840,-0.475
3817,-0.835,-0.485
3818,-0.830,-0.495
3819,-0.845,-0.505
3820,-0.835,-0.515
3821,-0.840,-0.510
3822,-0.840,-0.510
3823,-0.835,-0.490
3824,-0.820,-0.500
3825,-0.805,-0.485
3826,-0.805,-0.490
3827,-0.810,-0.490
3828,-0.790,-0.495
3829,-0.810,-0.510
3830,-0.805,-0.505
3831,-0.815,-0.525
3832,-0.820,-0.515
3833,-0.820,-0.530
3834,-0.810,-0.520
3835,-0.825,-0.515
3836,-0.815,-0.520
3837,-0.800,-0.500
3838,-0.790,-0.515
3839,-0.795,-0.520
3840,-0.800,-0.530
3841,-0.805,-0.535
3842,-0.820,-0.545
3843,-0.820,-0.545
3844,-0.840,-0.540
3845,-0.840,-0.560
3846,-0.845,-0.555
3847,-0.850,-0.545
3848,-0.860,-0.550
3849,-0.855,-0.530
3850,-0.855,-0.525
3851,-0.860,-0.545
3852,-0.880,-0.535
3853,-0.885,-0.550
3854,-0.905,-0.555
3855,-0.900,-0.565
3856,-0.910,-0.560
3857,-0.920,-0.580
3858,-0.925,-0.575
3859,-0.930,-0.555
3860,-0.935,-0.560
3861,-0.935,-0.545
3862,-0.930,-0.540
3863,-0.940,-0.540
3864,-0.955,-0.550
3865,-0.960,-0.560
3866,-0.980,-0.560
3867,-0.990,-0.560
3868,-1.000,-0.575
3869,-1.005,-0.565
3870,-1.005,-0.565
3871,-1.015,-0.550
3872,-1.015,-0.540
3873,-1.005,-0.530
3874,-1.000,-0.535
3875,-0.995,-0.545
3876,-1.000,-0.550
3877,-1.015,-0.555
3878,-1.020,-0.565
3879,-1.040,-0.580
3880,-1.050,-0.570
3881,-1.050,-0.555
3882,-1.045,-0.550
3883,-1.050,-0.555
3884,-1.040,-0.555
3885,-1.035,-0.525
3886,-1.030,-0.535
3887,-1.035,-0.545
3888,-1.045,-0.540
3889,-1.050,-0.540
3890,-1.060,-0.545
3891,-1.045,-0.550
3892,-1.065,-0.550
3893,-1.075,-0.555
3894,-1.070,-0.535
3895,-1.075,-0.540
3896,-1.075,-0.530
3897,-1.075,-0.525
3898,-1.065,-0.530
3899,-1.055,-0.535
3900,-1.065,-0.530
3901,-1.060,-0.540
3902,-1.070,-0.540
3903,-1.085,-0.560
3904,-1.100,-0.560
3905,-1.095,-0.555
3906,-1.100,-0.565
3907,-1.095,-0.545
3908,-1.080,-0.535
3909,-1.075,-0.520
3910,-1.075,-0.520
3911,-1.085,-0.530
3912,-1.090,-0.540
3913,-1.095,-0.545
3914,-1.100,-0.550
3915,-1.115,-0.560
3916,-1.130,-0.570
3917,-1.120,-0.560
3918,-1.120,-0.550
3919,-1.110,-0.540
3920,-1.110,-0.535
3921,-1.110,-0.540
3922,-1.105,-0.540
3923,-1.100,-0.550
3924,-1.105,-0.550
3925,-1.105,-0.570
3926,-1.110,-0.570
3927,-1.115,-0.580
3928,-1.125,-0.595
3929,-1.125,-0.580
3930,-1.115,-0.575
3931,-1.120,-0.565
3932,-1.115,-0.555
3933,-1.105,-0.555
3934,-1.105,-0.555
3935,-1.090,-0.555
3936,-1.095,-0.560
3937,-1.110,-0.565
3938,-1.105,-0.570
3939,-1.115,-0.590
3940,-1.115,-0.580
3941,-1.105,-0.580
3942,-1.105,-0.585
3943,-1.105,-0.575
3944,-1.090,-0.575
3945,-1.105,-0.555
3946,-1.090,-0.560
3947,-1.075,-0.565
3948,-1.080,-0.570
3949,-1.095,-0.575
3950,-1.095,-0.575
3951,-1.105,-0.595
3952,-1.110,-0.590
3953,-1.110,-0.590
3954,-1.105,-0.590
3955,-1.110,-0.570
3956,-1.115,-0.560
3957,-1.115,-0.565
3958,-1.095,-0.565
3959,-1.095,-0.560
3960,-1.080,-0.560
3961,-1.090,-0.560
3962,-1.100,-0.565
3963,-1.095,-0.570
3964,-1.105,-0.585
3965,-1.110,-0.600
3966,-1.100,-0.600
3967,-1.095,-0.585
3968,-1.080,-0.580
3969,-1.085,-0.575
3970,-1.060,-0.560
3971,-1.055,-0.555
3972,-1.060,-0.565
3973,-1.060,-0.565
3974,-1.075,-0.570
3975,-1.080,-0.580
3976,-1.080,-0.570
3977,-1.085,-0.560
3978,-1.080,-0.570
3979,-1.080,-0.575
3980,-1.085,-0.575
3981,-1.075,-0.575
3982,-1.070,-0.580
3983,-1.070,-0.595
3984,-1.055,-0.630
3985,-1.060,-0.660
3986,-1.065,-0.670
3987,-1.055,-0.675
3988,-1.065,-0.665
3989,-1.075,-0.635
3990,-1.075,-0.620
3991,-1.075,-0.610
3992,-1.060,-0.600
3993,-1.050,-0.595
3994,-1.060,-0.595
3995,-1.045,-0.590
3996,-1.045,-0.615
3997,-1.060,-0.610
3998,-1.065,-0.630
3999,-1.070,-0.620
4000,-1.085,-0.615
4001,-1.085,-0.610
4002,-1.085,-0.615
4003,-1.085,-0.615
4004,-1.075,-0.610
4005,-1.065,-0.605
4006,-1.055,-0.610
4007,-1.050,-0.605
4008,-1.045,-0.600
4009,-1.050,-0.610
4010,-1.060,-0.605
4011,-1.065,-0.595
4012,-1.065,-0.605
4013,-1.080,-0.595
4014,-1.075,-0.580
4015,-1.080,-0.575
4016,-1.060,-0.560
4017,-1.060,-0.560
4018,-1.050,-0.585
4019,-1.055,-0.600
4020,-1.055,-0.615
4021,-1.040,-0.620
4022,-1.045,-0.625
4023,-1.050,-0.605
4024,-1.050,-0.630
4025,-1.060,-0.620
4026,-1.045,-0.640
4027,-1.045,-0.645
4028,-1.045,-0.645
4029,-1.030,-0.625
4030,-1.020,-0.600
4031,-1.015,-0.585
4032,-1.010,-0.570
4033,-1.015,-0.575
4034,-1.030,-0.580
4035,-1.035,-0.620
4036,-1.045,-0.640
4037,-1.050,-0.665
4038,-1.040,-0.675
4039,-1.045,-0.650
4040,-1.030,-0.650
4041,-1.020,-0.645
4042,-1.005,-0.625
4043,-1.015,-0.620
4044,-1.010,-0.620
4045,-1.010,-0.610
4046,-1.005,-0.615
4047,-0.985,-0.610
4048,-1.000,-0.630
4049,-0.990,-0.635
4050,-0.970,-0.640
4051,-0.965,-0.635
4052,-0.965,-0.640
4053,-0.975,-0.650
4054,-0.970,-0.650
4055,-0.950,-0.675
4056,-0.950,-0.690
4057,-0.970,-0.690
4058,-0.960,-0.685
4059,-0.965,-0.680
4060,-0.970,-0.675
4061,-0.975,-0.680
4062,-0.975,-0.685
4063,-0.975,-0.705
4064,-0.970,-0.700
4065,-0.965,-0.700
4066,-0.965,-0.685
4067,-0.955,-0.650
4068,-0.965,-0.625
4069,-0.970,-0.625
4070,-0.985,-0.650
4071,-0.975,-0.650
4072,-0.990,-0.670
4073,-1.000,-0.625
4074,-1.020,-0.595
4075,-1.025,-0.575
4076,-1.020,-0.595
4077,-1.035,-0.640
4078,-1.035,-0.655
4079,-1.030,-0.670
4080,-1.040,-0.665
4081,-1.055,-0.650
4082,-1.060,-0.645
4083,-1.065,-0.665
4084,-1.075,-0.675
4085,-1.060,-0.680
4086,-1.055,-0.680
4087,-1.050,-0.665
4088,-1.040,-0.650
4089,-1.055,-0.640
4090,-1.045,-0.625
4091,-1.050,-0.605
4092,-1.050,-0.590
4093,-1.045,-0.595
4094,-1.060,-0.585
4095,-1.040,-0.605
4096,-1.045,-0.640
4097,-1.045,-0.675
4098,-1.045,-0.715
4099,-1.015,-0.795
4100,-0.965,-0.925
4101,-0.890,-1.115
4102,-0.800,-1.360
4103,-0.690,-1.635
4104,-0.550,-1.840
4105,-0.420,-1.910
4106,-0.320,-1.870
4107,-0.240,-1.710
4108,-0.185,-1.535
4109,-0.150,-1.330
4110,-0.105,-1.165
4111,-0.075,-1.040
4112,-0.045,-0.950
4113,-0.045,-0.890
4114,-0.090,-0.815
4115,-0.140,-0.750
4116,-0.225,-0.695
4117,-0.315,-0.665
4118,-0.430,-0.655
4119,-0.550,-0.645
4120,-0.675,-0.625
4121,-0.765,-0.610
4122,-0.835,-0.595
4123,-0.895,-0.565
4124,-0.945,-0.575
4125,-0.990,-0.560
4126,-1.040,-0.570
4127,-1.080,-0.590
4128,-1.115,-0.590
4129,-1.135,-0.595
4130,-1.160,-0.590
4131,-1.155,-0.590
4132,-1.155,-0.580
4133,-1.150,-0.575
4134,-1.165,-0.580
4135,-1.170,-0.570
4136,-1.175,-0.570
4137,-1.180,-0.560
4138,-1.165,-0.545
4139,-1.155,-0.550
4140,-1.155,-0.555
4141,-1.160,-0.550
4142,-1.160,-0.560
4143,-1.170,-0.560
4144,-1.175,-0.560
4145,-1.165,-0.570
4146,-1.170,-0.565
4147,-1.195,-0.560
4148,-1.190,-0.555
4149,-1.185,-0.550
4150,-1.180,-0.530
4151,-1.155,-0.535
4152,-1.160,-0.540
4153,-1.165,-0.550
4154,-1.170,-0.555
4155,-1.175,-0.575
4156,-1.200,-0.580
4157,-1.205,-0.585
4158,-1.195,-0.580
4159,-1.165,-0.560
4160,-1.160,-0.550
4161,-1.145,-0.550
4162,-1.135,-0.545
4163,-1.135,-0.545
4164,-1.145,-0.535
4165,-1.145,-0.555
4166,-1.145,-0.575
4167,-1.155,-0.580
4168,-1.175,-0.575
4169,-1.165,-0.580
4170,-1.170,-0.570
4171,-1.160,-0.555
4172,-1.170,-0.555
4173,-1.155,-0.550
4174,-1.155,-0.550
4175,-1.150,-0.560
4176,-1.140,-0.575
4177,-1.125,-0.570
4178,-1.140,-0.575
4179,-1.145,-0.585
4180,-1.150,-0.580
4181,-1.155,-0.570
4182,-1.165,-0.575
4183,-1.150,-0.565
4184,-1.140,-0.560
4185,-1.130,-0.540
4186,-1.125,-0.545
4187,-1.115,-0.540
4188,-1.110,-0.550
4189,-1.110,-0.575
4190,-1.110,-0.595
4191,-1.120,-0.590
4192,-1.125,-0.595
4193,-1.135,-0.575
4194,-1.140,-0.565
4195,-1.140,-0.550
4196,-1.145,-0.550
4197,-1.130,-0.550
4198,-1.125,-0.530
4199,-1.125,-0.550
4200,-1.135,-0.570
4201,-1.130,-0.575
4202,-1.140,-0.590
4203,-1.150,-0.585
4204,-1.155,-0.590
4205,-1.165,-0.600
4206,-1.170,-0.605
4207,-1.175,-0.605
4208,-1.170,-0.575
4209,-1.175,-0.555
4210,-1.160,-0.540
4211,-1.165,-0.550
4212,-1.170,-0.550
4213,-1.195,-0.565
4214,-1.210,-0.590
4215,-1.220,-0.620
4216,-1.225,-0.615
4217,-1.225,-0.610
4218,-1.245,-0.610
4219,-1.250,-0.615
4220,-1.250,-0.620
4221,-1.265,-0.615
4222,-1.275,-0.595
4223,-1.270,-0.605
4224,-1.280,-0.590
4225,-1.290,-0.600
4226,-1.305,-0.590
4227,-1.325,-0.605
4228,-1.345,-0.605
4229,-1.360,-0.610
4230,-1.360,-0.625
4231,-1.380,-0.625
4232,-1.375,-0.625
4233,-1.380,-0.640
4234,-1.370,-0.630
4235,-1.385,-0.625
4236,-1.395,-0.635
4237,-1.395,-0.625
4238,-1.420,-0.620
4239,-1.425,-0.620
4240,-1.430,-0.630
4241,-1.460,-0.650
4242,-1.465,-0.670
4243,-1.475,-0.670
4244,-1.475,-0.670
4245,-1.480,-0.645
4246,-1.475,-0.630
4247,-1.470,-0.620
4248,-1.475,-0.625
4249,-1.485,-0.625
4250,-1.500,-0.650
4251,-1.520,-0.655
4252,-1.520,-0.655
4253,-1.555,-0.655
4254,-1.560,-0.635
4255,-1.550,-0.615
4256,-1.540,-0.630
4257,-1.535,-0.640
4258,-1.525,-0.655
4259,-1.520,-0.665
4260,-1.525,-0.665
4261,-1.545,-0.660
4262,-1.545,-0.650
4263,-1.555,-0.645
4264,-1.565,-0.640
4265,-1.580,-0.635
4266,-1.585,-0.660
4267,-1.585,-0.655
4268,-1.570,-0.675
4269,-1.565,-0.680
4270,-1.555,-0.660
4271,-1.560,-0.670
4272,-1.575,-0.655
4273,-1.590,-0.650
4274,-1.605,-0.665
4275,-1.620,-0.665
4276,-1.620,-0.665
4277,-1.625,-0.650
4278,-1.615,-0.645
4279,-1.625,-0.630
4280,-1.625,-0.615
4281,-1.625,-0.615
4282,-1.620,-0.615
4283,-1.625,-0.650
4284,-1.630,-0.665
4285,-1.630,-0.685
4286,-1.645,-0.695
4287,-1.655,-0.705
4288,-1.655,-0.705
4289,-1.665,-0.720
4290,-1.675,-0.725
4291,-1.665,-0.695
4292,-1.650,-0.685
4293,-1.635,-0.665
4294,-1.635,-0.670
4295,-1.620,-0.680
4296,-1.615,-0.680
4297,-1.620,-0.670
4298,-1.640,-0.680
4299,-1.640,-0.700
4300,-1.670,-0.720
4301,-1.685,-0.720
4302,-1.685,-0.690
4303,-1.690,-0.680
4304,-1.690,-0.660
4305,-1.685,-0.660
4306,-1.665,-0.685
4307,-1.670,-0.715
4308,-1.660,-0.730
4309,-1.665,-0.740
4310,-1.670,-0.735
4311,-1.660,-0.735
4312,-1.665,-0.740
4313,-1.680,-0.740
4314,-1.685,-0.735
4315,-1.700,-0.740
4316,-1.685,-0.740
4317,-1.685,-0.720
4318,-1.660,-0.705
4319,-1.665,-0.725
4320,-1.650,-0.730
4321,-1.670,-0.750
4322,-1.685,-0.745
4323,-1.690,-0.745
4324,-1.700,-0.745
4325,-1.690,-0.715
4326,-1.695,-0.720
4327,-1.695,-0.715
4328,-1.690,-0.735
4329,-1.695,-0.735
4330,-1.680,-0.730
4331,-1.675,-0.735
4332,-1.665,-0.745
4333,-1.665,-0.760
4334,-1.670,-0.765
4335,-1.680,-0.775
4336,-1.710,-0.760
4337,-1.710,-0.780
4338,-1.690,-0.770
4339,-1.680,-0.770
4340,-1.675,-0.760
4341,-1.680,-0.755
4342,-1.670,-0.740
4343,-1.660,-0.735
4344,-1.660,-0.745
4345,-1.660,-0.745
4346,-1.665,-0.775
4347,-1.675,-0.780
4348,-1.685,-0.790
4349,-1.685,-0.790
4350,-1.695,-0.780
4351,-1.695,-0.765
4352,-1.675,-0.770
4353,-1.670,-0.755
4354,-1.650,-0.760
4355,-1.645,-0.755
4356,-1.665,-0.750
4357,-1.660,-0.770
4358,-1.685,-0.775
4359,-1.685,-0.790
4360,-1.685,-0.800
4361,-1.675,-0.790
4362,-1.675,-0.770
4363,-1.655,-0.750
4364,-1.665,-0.735
4365,-1.675,-0.730
4366,-1.670,-0.740
4367,-1.665,-0.765
4368,-1.675,-0.785
4369,-1.680,-0.780
4370,-1.675,-0.800
4371,-1.670,-0.800
4372,-1.670,-0.790
4373,-1.665,-0.785
4374,-1.675,-0.775
4375,-1.670,-0.785
4376,-1.660,-0.775
4377,-1.665,-0.775
4378,-1.670,-0.780
4379,-1.655,-0.770
4380,-1.665,-0.780
4381,-1.665,-0.780
4382,-1.660,-0.770
4383,-1.660,-0.790
4384,-1.680,-0.770
4385,-1.675,-0.775
4386,-1.685,-0.775
4387,-1.685,-0.785
4388,-1.685,-0.800
4389,-1.695,-0.785
4390,-1.675,-0.785
4391,-1.675,-0.770
4392,-1.675,-0.755
4393,-1.690,-0.750
4394,-1.690,-0.765
4395,-1.685,-0.775
4396,-1.685,-0.805
4397,-1.685,-0.790
4398,-1.670,-0.795
4399,-1.665,-0.780
4400,-1.675,-0.765
4401,-1.670,-0.765
4402,-1.655,-0.760
4403,-1.655,-0.765
4404,-1.645,-0.780
4405,-1.655,-0.810
4406,-1.675,-0.825
4407,-1.665,-0.855
4408,-1.655,-0.875
4409,-1.650,-0.885
4410,-1.645,-0.855
4411,-1.645,-0.845
4412,-1.640,-0.840
4413,-1.645,-0.810
4414,-1.640,-0.795
4415,-1.625,-0.805
4416,-1.640,-0.825
4417,-1.655,-0.825
4418,-1.645,-0.825
4419,-1.660,-0.840
4420,-1.665,-0.825
4421,-1.655,-0.815
4422,-1.665,-0.790
4423,-1.670,-0.780
4424,-1.665,-0.765
4425,-1.670,-0.760
4426,-1.675,-0.745
4427,-1.665,-0.750
4428,-1.675,-0.760
4429,-1.690,-0.775
4430,-1.695,-0.805
4431,-1.725,-0.805
4432,-1.715,-0.810
4433,-1.720,-0.815
4434,-1.710,-0.800
4435,-1.695,-0.780
4436,-1.690,-0.775
4437,-1.700,-0.745
4438,-1.705,-0.745
4439,-1.710,-0.745
4440,-1.715,-0.760
4441,-1.730,-0.775
4442,-1.730,-0.765
4443,-1.720,-0.775
4444,-1.725,-0.765
4445,-1.725,-0.745
4446,-1.715,-0.745
4447,-1.700,-0.740
4448,-1.695,-0.765
4449,-1.695,-0.800
4450,-1.680,-0.835
4451,-1.635,-0.925
4452,-1.605,-1.040
4453,-1.540,-1.205
4454,-1.475,-1.350
4455,-1.375,-1.525
4456,-1.290,-1.645
4457,-1.175,-1.710
4458,-1.065,-1.695
4459,-0.980,-1.620
4460,-0.900,-1.495
4461,-0.860,-1.340
4462,-0.830,-1.210
4463,-0.820,-1.105
4464,-0.840,-1.030
4465,-0.890,-0.955
4466,-0.965,-0.895
4467,-1.030,-0.845
4468,-1.100,-0.815
4469,-1.175,-0.795
4470,-1.245,-0.800
4471,-1.315,-0.780
4472,-1.395,-0.780
4473,-1.465,-0.765
4474,-1.540,-0.750
4475,-1.600,-0.735
4476,-1.640,-0.730
4477,-1.685,-0.730
4478,-1.710,-0.735
4479,-1.730,-0.735
4480,-1.720,-0.730
4481,-1.725,-0.720
4482,-1.730,-0.730
4483,-1.730,-0.750
4484,-1.715,-0.755
4485,-1.705,-0.750
4486,-1.685,-0.750
4487,-1.680,-0.735
4488,-1.670,-0.735
4489,-1.685,-0.740
4490,-1.690,-0.740
4491,-1.705,-0.745
4492,-1.710,-0.740
4493,-1.710,-0.730
4494,-1.700,-0.735
4495,-1.700,-0.725
4496,-1.700,-0.725
4497,-1.690,-0.710
4498,-1.685,-0.720
4499,-1.670,-0.710
4500,-1.665,-0.720
4501,-1.670,-0.725
4502,-1.670,-0.735
4503,-1.685,-0.725
4504,-1.700,-0.715
4505,-1.685,-0.700
4506,-1.685,-0.690
4507,-1.670,-0.670
4508,-1.650,-0.675
4509,-1.650,-0.680
4510,-1.650,-0.710
4511,-1.660,-0.735
4512,-1.665,-0.755
4513,-1.660,-0.765
4514,-1.650,-0.760
4515,-1.650,-0.755
4516,-1.660,-0.755
4517,-1.670,-0.750
4518,-1.675,-0.745
4519,-1.650,-0.735
4520,-1.640,-0.735
4521,-1.635,-0.725
4522,-1.630,-0.720
4523,-1.625,-0.725
4524,-1.630,-0.725
4525,-1.625,-0.735
4526,-1.630,-0.730
4527,-1.640,-0.730
4528,-1.640,-0.730
4529,-1.650,-0.745
4530,-1.650,-0.745
4531,-1.635,-0.735
4532,-1.625,-0.710
4533,-1.605,-0.705
4534,-1.595,-0.705
4535,-1.585,-0.695
4536,-1.590,-0.720
4537,-1.595,-0.730
4538,-1.605,-0.725
4539,-1.605,-0.740
4540,-1.620,-0.725
4541,-1.615,-0.730
4542,-1.610,-0.730
4543,-1.595,-0.715
4544,-1.595,-0.710
4545,-1.580,-0.710
4546,-1.570,-0.705
4547,-1.560,-0.700
4548,-1.560,-0.710
4549,-1.565,-0.715
4550,-1.570,-0.725
4551,-1.580,-0.725
4552,-1.575,-0.725
4553,-1.575,-0.720
4554,-1.575,-0.705
4555,-1.575,-0.705
4556,-1.560,-0.705
4557,-1.550,-0.710
4558,-1.545,-0.705
4559,-1.535,-0.730
4560,-1.530,-0.745
4561,-1.550,-0.755
4562,-1.570,-0.750
4563,-1.575,-0.745
4564,-1.580,-0.730
4565,-1.575,-0.725
4566,-1.560,-0.725
4567,-1.565,-0.725
4568,-1.550,-0.705
4569,-1.565,-0.695
4570,-1.570,-0.690
4571,-1.580,-0.710
4572,-1.585,-0.715
4573,-1.575,-0.715
4574,-1.580,-0.720
4575,-1.590,-0.720
4576,-1.600,-0.740
4577,-1.615,-0.735
4578,-1.625,-0.750
4579,-1.625,-0.745
4580,-1.620,-0.720
4581,-1.630,-0.685
4582,-1.615,-0.680
4583,-1.615,-0.695
4584,-1.630,-0.695
4585,-1.640,-0.715
4586,-1.660,-0.720
4587,-1.675,-0.730
4588,-1.680,-0.735
4589,-1.685,-0.750
4590,-1.675,-0.760
4591,-1.675,-0.745
4592,-1.675,-0.720
4593,-1.655,-0.720
4594,-1.655,-0.695
4595,-1.650,-0.695
4596,-1.655,-0.705
4597,-1.665,-0.715
4598,-1.660,-0.730
4599,-1.670,-0.745
4600,-1.655,-0.760
4601,-1.655,-0.775
4602,-1.665,-0.755
4603,-1.665,-0.725
4604,-1.660,-0.710
4605,-1.665,-0.705
4606,-1.660,-0.700
4607,-1.645,-0.695
4608,-1.650,-0.700
4609,-1.665,-0.700
4610,-1.670,-0.710
4611,-1.675,-0.715
4612,-1.670,-0.735
4613,-1.685,-0.730
4614,-1.675,-0.720
4615,-1.660,-0.705
4616,-1.655,-0.700
4617,-1.635,-0.685
4618,-1.620,-0.680
4619,-1.630,-0.695
4620,-1.630,-0.705
4621,-1.615,-0.710
4622,-1.625,-0.730
4623,-1.635,-0.720
4624,-1.655,-0.725
4625,-1.650,-0.710
4626,-1.660,-0.705
4627,-1.670,-0.690
4628,-1.660,-0.685
4629,-1.645,-0.685
4630,-1.635,-0.680
4631,-1.620,-0.685
4632,-1.615,-0.680
4633,-1.610,-0.675
4634,-1.605,-0.690
4635,-1.615,-0.710
4636,-1.615,-0.715
4637,-1.635,-0.720
4638,-1.620,-0.730
4639,-1.620,-0.710
4640,-1.615,-0.720
4641,-1.615,-0.710
4642,-1.600,-0.700
4643,-1.580,-0.690
4644,-1.585,-0.685
4645,-1.575,-0.690
4646,-1.590,-0.685
4647,-1.600,-0.685
4648,-1.615,-0.705
4649,-1.630,-0.720
4650,-1.610,-0.730
4651,-1.610,-0.715
4652,-1.590,-0.700
4653,-1.585,-0.695
4654,-1.580,-0.685
4655,-1.580,-0.680
4656,-1.585,-0.690
4657,-1.590,-0.680
4658,-1.595,-0.690
4659,-1.590,-0.705
4660,-1.585,-0.705
4661,-1.575,-0.715
4662,-1.570,-0.720
4663,-1.565,-0.700
4664,-1.560,-0.690
4665,-1.565,-0.690
4666,-1.560,-0.685
4667,-1.555,-0.675
4668,-1.550,-0.685
4669,-1.555,-0.700
4670,-1.560,-0.710
4671,-1.565,-0.705
4672,-1.575,-0.710
4673,-1.560,-0.715
4674,-1.565,-0.710
4675,-1.560,-0.705
4676,-1.555,-0.690
4677,-1.550,-0.695
4678,-1.530,-0.685
4679,-1.525,-0.680
4680,-1.525,-0.675
4681,-1.525,-0.680
4682,-1.535,-0.695
4683,-1.535,-0.695
4684,-1.535,-0.710
4685,-1.560,-0.710
4686,-1.535,-0.695
4687,-1.535,-0.695
4688,-1.535,-0.700
4689,-1.525,-0.680
4690,-1.505,-0.690
4691,-1.495,-0.685
4692,-1.500,-0.690
4693,-1.510,-0.690
4694,-1.515,-0.700
4695,-1.540,-0.690
4696,-1.535,-0.705
4697,-1.535,-0.705
4698,-1.545,-0.715
4699,-1.545,-0.695
4700,-1.535,-0.690
4701,-1.525,-0.670
4702,-1.515,-0.685
4703,-1.505,-0.685
4704,-1.500,-0.680
4705,-1.495,-0.685
4706,-1.485,-0.685
4707,-1.490,-0.705
4708,-1.515,-0.705
4709,-1.510,-0.705
4710,-1.525,-0.700
4711,-1.525,-0.680
4712,-1.525,-0.680
4713,-1.500,-0.660
4714,-1.485,-0.665
4715,-1.495,-0.660
4716,-1.485,-0.695
4717,-1.480,-0.710
4718,-1.495,-0.710
4719,-1.505,-0.705
4720,-1.505,-0.705
4721,-1.515,-0.705
4722,-1.505,-0.690
4723,-1.495,-0.695
4724,-1.495,-0.680
4725,-1.485,-0.675
4726,-1.485,-0.670
4727,-1.480,-0.665
4728,-1.485,-0.655
4729,-1.485,-0.670
4730,-1.485,-0.665
4731,-1.490,-0.695
4732,-1.485,-0.710
4733,-1.500,-0.715
4734,-1.490,-0.720
4735,-1.485,-0.695
4736,-1.475,-0.685
4737,-1.465,-0.675
4738,-1.450,-0.665
4739,-1.440,-0.675
4740,-1.440,-0.675
4741,-1.455,-0.655
4742,-1.450,-0.670
4743,-1.460,-0.675
4744,-1.470,-0.690
4745,-1.475,-0.700
4746,-1.485,-0.695
4747,-1.480,-0.685
4748,-1.475,-0.685
4749,-1.460,-0.685
4750,-1.445,-0.675
4751,-1.425,-0.670
4752,-1.425,-0.685
4753,-1.435,-0.675
4754,-1.430,-0.685
4755,-1.430,-0.680
4756,-1.415,-0.680
4757,-1.415,-0.675
4758,-1.405,-0.685
4759,-1.385,-0.680
4760,-1.390,-0.690
4761,-1.385,-0.690
4762,-1.385,-0.705
4763,-1.375,-0.725
4764,-1.360,-0.740
4765,-1.355,-0.745
4766,-1.355,-0.755
4767,-1.365,-0.750
4768,-1.380,-0.745
4769,-1.380,-0.725
4770,-1.385,-0.740
4771,-1.395,-0.730
4772,-1.385,-0.725
4773,-1.380,-0.705
4774,-1.345,-0.705
4775,-1.330,-0.700
4776,-1.330,-0.715
4777,-1.340,-0.710
4778,-1.345,-0.705
4779,-1.360,-0.705
4780,-1.360,-0.695
4781,-1.380,-0.675
4782,-1.365,-0.670
4783,-1.375,-0.660
4784,-1.365,-0.650
4785,-1.370,-0.650
4786,-1.385,-0.645
4787,-1.370,-0.655
4788,-1.370,-0.650
4789,-1.380,-0.655
4790,-1.385,-0.655
4791,-1.390,-0.665
4792,-1.405,-0.675
4793,-1.405,-0.680
4794,-1.395,-0.665
4795,-1.380,-0.665
4796,-1.370,-0.640
4797,-1.360,-0.635
4798,-1.340,-0.630
4799,-1.340,-0.615
4800,-1.360,-0.620
4801,-1.350,-0.625
4802,-1.355,-0.605
4803,-1.350,-0.620
4804,-1.345,-0.635
4805,-1.330,-0.675
4806,-1.300,-0.735
4807,-1.265,-0.830
4808,-1.230,-0.950
4809,-1.185,-1.055
4810,-1.110,-1.200
4811,-1.015,-1.325
4812,-0.935,-1.475
4813,-0.845,-1.585
4814,-0.765,-1.625
4815,-0.685,-1.610
4816,-0.635,-1.545
4817,-0.600,-1.420
4818,-0.570,-1.260
4819,-0.555,-1.125
4820,-0.540,-1.020
4821,-0.515,-0.935
4822,-0.490,-0.870
4823,-0.520,-0.815
4824,-0.570,-0.730
4825,-0.625,-0.690
4826,-0.695,-0.650
4827,-0.780,-0.640
4828,-0.875,-0.640
4829,-0.960,-0.645
4830,-1.045,-0.620
4831,-1.115,-0.605
4832,-1.190,-0.585
4833,-1.225,-0.570
4834,-1.250,-0.555
4835,-1.260,-0.555
4836,-1.270,-0.560
4837,-1.280,-0.565
4838,-1.280,-0.565
4839,-1.280,-0.565
4840,-1.280,-0.580
4841,-1.285,-0.590
4842,-1.290,-0.595
4843,-1.290,-0.580
4844,-1.280,-0.560
4845,-1.265,-0.550
4846,-1.260,-0.555
4847,-1.245,-0.565
4848,-1.250,-0.550
4849,-1.255,-0.560
4850,-1.260,-0.565
4851,-1.260,-0.565
4852,-1.270,-0.555
4853,-1.275,-0.565
4854,-1.265,-0.570
4855,-1.255,-0.570
4856,-1.250,-0.560
4857,-1.245,-0.555
4858,-1.235,-0.540
4859,-1.235,-0.535
4860,-1.230,-0.545
4861,-1.225,-0.530
4862,-1.225,-0.560
4863,-1.230,-0.550
4864,-1.220,-0.560
4865,-1.225,-0.570
4866,-1.220,-0.560
4867,-1.220,-0.550
4868,-1.220,-0.545
4869,-1.205,-0.555
4870,-1.200,-0.545
4871,-1.195,-0.555
4872,-1.195,-0.565
4873,-1.190,-0.560
4874,-1.190,-0.570
4875,-1.195,-0.580
4876,-1.195,-0.575
4877,-1.185,-0.570
4878,-1.185,-0.565
4879,-1.180,-0.550
4880,-1.165,-0.540
4881,-1.170,-0.535
4882,-1.160,-0.525
4883,-1.155,-0.535
4884,-1.170,-0.550
4885,-1.165,-0.550
4886,-1.170,-0.575
4887,-1.160,-0.580
4888,-1.160,-0.570
4889,-1.165,-0.570
4890,-1.175,-0.560
4891,-1.160,-0.560
4892,-1.150,-0.555
4893,-1.140,-0.550
4894,-1.125,-0.545
4895,-1.110,-0.550
4896,-1.110,-0.550
4897,-1.115,-0.540
4898,-1.110,-0.550
4899,-1.110,-0.550
4900,-1.125,-0.565
4901,-1.130,-0.575
4902,-1.130,-0.570
4903,-1.125,-0.555
4904,-1.115,-0.545
4905,-1.105,-0.540
4906,-1.085,-0.530
4907,-1.070,-0.540
4908,-1.070,-0.555
4909,-1.085,-0.555
4910,-1.060,-0.570
4911,-1.070,-0.570
4912,-1.070,-0.570
4913,-1.080,-0.570
4914,-1.065,-0.570
4915,-1.070,-0.565
4916,-1.070,-0.570
4917,-1.070,-0.565
4918,-1.050,-0.565
4919,-1.045,-0.550
4920,-1.055,-0.565
4921,-1.045,-0.560
4922,-1.050,-0.565
4923,-1.070,-0.580
4924,-1.065,-0.590
4925,-1.085,-0.595
4926,-1.085,-0.600
4927,-1.080,-0.595
4928,-1.070,-0.580
4929,-1.060,-0.565
4930,-1.060,-0.565
4931,-1.055,-0.555
4932,-1.065,-0.565
4933,-1.070,-0.570
4934,-1.075,-0.595
4935,-1.095,-0.580
4936,-1.110,-0.580
4937,-1.105,-0.580
4938,-1.120,-0.580
4939,-1.130,-0.585
4940,-1.125,-0.585
4941,-1.130,-0.585
4942,-1.130,-0.585
4943,-1.125,-0.585
4944,-1.135,-0.585
4945,-1.125,-0.590
4946,-1.125,-0.585
4947,-1.130,-0.595
4948,-1.145,-0.605
4949,-1.165,-0.605
4950,-1.175,-0.610
4951,-1.185,-0.585
4952,-1.170,-0.590
4953,-1.170,-0.585
4954,-1.160,-0.570
4955,-1.155,-0.575
4956,-1.155,-0.580
4957,-1.155,-0.580
4958,-1.160,-0.585
4959,-1.155,-0.590
4960,-1.165,-0.585
4961,-1.170,-0.600
4962,-1.165,-0.585
4963,-1.175,-0.585
4964,-1.160,-0.585
4965,-1.155,-0.580
4966,-1.150,-0.565
4967,-1.140,-0.570
4968,-1.165,-0.560
4969,-1.145,-0.560
4970,-1.165,-0.575
4971,-1.155,-0.575
4972,-1.165,-0.580
4973,-1.170,-0.580
4974,-1.170,-0.565
4975,-1.160,-0.570
4976,-1.160,-0.555
4977,-1.160,-0.540
4978,-1.165,-0.545
4979,-1.160,-0.525
4980,-1.160,-0.545
4981,-1.170,-0.535
4982,-1.165,-0.560
4983,-1.180,-0.575
4984,-1.180,-0.575
4985,-1.175,-0.575
4986,-1.175,-0.580
4987,-1.180,-0.570
4988,-1.185,-0.555
4989,-1.185,-0.540
4990,-1.175,-0.540
4991,-1.160,-0.530
4992,-1.150,-0.535
4993,-1.160,-0.535
4994,-1.155,-0.545
4995,-1.175,-0.550
4996,-1.195,-0.570
4997,-1.200,-0.575
4998,-1.205,-0.575
4999,-1.205,-0.560
5000,-1.185,-0.555
5001,-1.180,-0.550
5002,-1.160,-0.535
5003,-1.160,-0.535
5004,-1.150,-0.535
5005,-1.150,-0.535
5006,-1.160,-0.545
5007,-1.160,-0.555
5008,-1.180,-0.565
5009,-1.200,-0.570
5010,-1.200,-0.580
5011,-1.185,-0.575
5012,-1.195,-0.565
5013,-1.150,-0.545
5014,-1.145,-0.530
5015,-1.135,-0.535
5016,-1.130,-0.535
5017,-1.135,-0.545
5018,-1.140,-0.555
5019,-1.160,-0.575
5020,-1.170,-0.585
5021,-1.185,-0.595
5022,-1.170,-0.580
5023,-1.165,-0.565
5024,-1.150,-0.555
5025,-1.145,-0.545
5026,-1.140,-0.530
5027,-1.140,-0.535
5028,-1.140,-0.545
5029,-1.145,-0.555
5030,-1.145,-0.555
5031,-1.145,-0.555
5032,-1.150,-0.565
5033,-1.145,-0.565
5034,-1.160,-0.560
5035,-1.150,-0.550
5036,-1.160,-0.550
5037,-1.160,-0.550
5038,-1.150,-0.555
5039,-1.140,-0.565
5040,-1.125,-0.555
5041,-1.125,-0.565
5042,-1.125,-0.560
5043,-1.130,-0.565
5044,-1.135,-0.580
5045,-1.145,-0.585
5046,-1.145,-0.585
5047,-1.145,-0.570
5048,-1.150,-0.560
5049,-1.150,-0.560
5050,-1.150,-0.560
5051,-1.130,-0.560
5052,-1.115,-0.560
5053,-1.115,-0.555
5054,-1.100,-0.560
5055,-1.110,-0.570
5056,-1.115,-0.585
5057,-1.110,-0.575
5058,-1.130,-0.580
5059,-1.125,-0.570
5060,-1.125,-0.570
5061,-1.120,-0.545
5062,-1.115,-0.545
5063,-1.100,-0.540
5064,-1.110,-0.550
5065,-1.120,-0.565
5066,-1.115,-0.570
5067,-1.110,-0.570
5068,-1.105,-0.580
5069,-1.110,-0.580
5070,-1.100,-0.570
5071,-1.105,-0.575
5072,-1.115,-0.555
5073,-1.110,-0.550
5074,-1.095,-0.550
5075,-1.090,-0.560
5076,-1.100,-0.555
5077,-1.095,-0.550
5078,-1.110,-0.555
5079,-1.115,-0.560
5080,-1.125,-0.570
5081,-1.125,-0.570
5082,-1.120,-0.565
5083,-1.110,-0.570
5084,-1.105,-0.565
5085,-1.095,-0.565
5086,-1.095,-0.560
5087,-1.085,-0.550
5088,-1.070,-0.555
5089,-1.070,-0.555
5090,-1.070,-0.555
5091,-1.080,-0.565
5092,-1.095,-0.565
5093,-1.100,-0.575
5094,-1.115,-0.570
5095,-1.110,-0.560
5096,-1.105,-0.555
5097,-1.090,-0.550
5098,-1.085,-0.555
5099,-1.070,-0.550
5100,-1.060,-0.555
5101,-1.065,-0.555
5102,-1.060,-0.565
5103,-1.075,-0.560
5104,-1.080,-0.565
5105,-1.080,-0.565
5106,-1.090,-0.570
5107,-1.080,-0.580
5108,-1.080,-0.565
5109,-1.060,-0.555
5110,-1.050,-0.540
5111,-1.040,-0.550
5112,-1.050,-0.550
5113,-1.070,-0.560
5114,-1.060,-0.565
5115,-1.070,-0.570
5116,-1.065,-0.570
5117,-1.050,-0.585
5118,-1.040,-0.565
5119,-1.050,-0.560
5120,-1.040,-0.550
5121,-1.035,-0.550
5122,-1.035,-0.535
5123,-1.035,-0.535
5124,-1.025,-0.530
5125,-1.005,-0.540
5126,-1.005,-0.545
5127,-0.985,-0.555
5128,-0.975,-0.575
5129,-0.980,-0.595
5130,-0.990,-0.620
5131,-0.985,-0.635
5132,-0.995,-0.630
5133,-0.980,-0.640
5134,-0.965,-0.635
5135,-0.950,-0.610
5136,-0.945,-0.605
5137,-0.960,-0.605
5138,-0.960,-0.610
5139,-0.965,-0.610
5140,-0.960,-0.630
5141,-0.970,-0.630
5142,-0.965,-0.630
5143,-0.980,-0.615
5144,-0.970,-0.585
5145,-0.950,-0.575
5146,-0.955,-0.580
5147,-0.965,-0.565
5148,-0.950,-0.555
5149,-0.955,-0.550
5150,-0.955,-0.550
5151,-0.965,-0.555
5152,-0.975,-0.555
5153,-0.975,-0.570
5154,-0.985,-0.560
5155,-0.990,-0.545
5156,-0.990,-0.540
5157,-0.990,-0.530
5158,-0.985,-0.525
5159,-0.980,-0.520
5160,-0.980,-0.535
5161,-0.965,-0.535
5162,-0.975,-0.545
5163,-0.980,-0.560
5164,-0.995,-0.560
5165,-0.990,-0.560
5166,-0.975,-0.550
5167,-0.970,-0.525
5168,-0.960,-0.510
5169,-0.950,-0.485
5170,-0.940,-0.485
5171,-0.925,-0.480
5172,-0.920,-0.515
5173,-0.910,-0.565
5174,-0.885,-0.655
5175,-0.850,-0.760
5176,-0.805,-0.920
5177,-0.730,-1.080
5178,-0.645,-1.235
5179,-0.570,-1.395
5180,-0.460,-1.525
5181,-0.355,-1.580
5182,-0.255,-1.565
5183,-0.160,-1.505
5184,-0.110,-1.385
5185,-0.095,-1.245
5186,-0.070,-1.130
5187,-0.050,-1.030
5188,-0.045,-0.940
5189,-0.040,-0.870
5190,-0.090,-0.805
5191,-0.145,-0.740
5192,-0.200,-0.660
5193,-0.265,-0.595
5194,-0.350,-0.540
5195,-0.400,-0.510
5196,-0.500,-0.500
5197,-0.585,-0.510
5198,-0.665,-0.500
5199,-0.735,-0.520
5200,-0.815,-0.525
5201,-0.865,-0.520
5202,-0.900,-0.515
5203,-0.915,-0.510
5204,-0.920,-0.485
5205,-0.910,-0.465
5206,-0.890,-0.465
5207,-0.870,-0.465
5208,-0.865,-0.465
5209,-0.875,-0.470
5210,-0.860,-0.485
5211,-0.870,-0.490
5212,-0.880,-0.485
5213,-0.880,-0.480
5214,-0.885,-0.490
5215,-0.895,-0.460
5216,-0.880,-0.465
5217,-0.880,-0.470
5218,-0.870,-0.470
5219,-0.850,-0.470
5220,-0.840,-0.470
5221,-0.835,-0.475
5222,-0.835,-0.485
5223,-0.835,-0.490
5224,-0.840,-0.500
5225,-0.845,-0.490
5226,-0.855,-0.485
5227,-0.850,-0.480
5228,-0.840,-0.470
5229,-0.830,-0.455
5230,-0.835,-0.460
5231,-0.825,-0.465
5232,-0.815,-0.460
5233,-0.800,-0.475
5234,-0.800,-0.480
5235,-0.810,-0.485
5236,-0.820,-0.495
5237,-0.835,-0.510
5238,-0.840,-0.510
5239,-0.840,-0.515
5240,-0.825,-0.490
5241,-0.795,-0.485
5242,-0.775,-0.470
5243,-0.765,-0.470
5244,-0.765,-0.475
5245,-0.765,-0.480
5246,-0.785,-0.490
5247,-0.800,-0.490
5248,-0.815,-0.485
5249,-0.810,-0.480
5250,-0.795,-0.485
5251,-0.790,-0.480
5252,-0.775,-0.475
5253,-0.770,-0.475
5254,-0.760,-0.475
5255,-0.740,-0.485
5256,-0.740,-0.480
5257,-0.725,-0.490
5258,-0.730,-0.490
5259,-0.740,-0.495
5260,-0.740,-0.490
5261,-0.745,-0.505
5262,-0.755,-0.500
5263,-0.740,-0.495
5264,-0.740,-0.475
5265,-0.720,-0.485
5266,-0.725,-0.475
5267,-0.715,-0.470
5268,-0.720,-0.480
5269,-0.715,-0.495
5270,-0.715,-0.490
5271,-0.715,-0.485
5272,-0.700,-0.485
5273,-0.705,-0.490
5274,-0.705,-0.485
5275,-0.695,-0.480
5276,-0.695,-0.485
5277,-0.690,-0.475
5278,-0.700,-0.470
5279,-0.675,-0.480
5280,-0.675,-0.475
5281,-0.665,-0.480
5282,-0.685,-0.485
5283,-0.685,-0.495
5284,-0.690,-0.510
5285,-0.685,-0.505
5286,-0.705,-0.495
5287,-0.710,-0.495
5288,-0.720,-0.475
5289,-0.690,-0.470
5290,-0.705,-0.470
5291,-0.685,-0.490
5292,-0.680,-0.490
5293,-0.695,-0.490
5294,-0.710,-0.480
5295,-0.725,-0.485
5296,-0.715,-0.500
5297,-0.720,-0.515
5298,-0.735,-0.510
5299,-0.745,-0.505
5300,-0.745,-0.495
5301,-0.745,-0.490
5302,-0.755,-0.480
5303,-0.745,-0.480
5304,-0.745,-0.485
5305,-0.750,-0.485
5306,-0.755,-0.515
5307,-0.770,-0.515
5308,-0.785,-0.515
5309,-0.800,-0.525
5310,-0.805,-0.525
5311,-0.805,-0.515
5312,-0.805,-0.505
5313,-0.800,-0.500
5314,-0.795,-0.495
5315,-0.785,-0.490
5316,-0.785,-0.495
5317,-0.785,-0.485
5318,-0.785,-0.500
5319,-0.785,-0.515
5320,-0.785,-0.525
5321,-0.795,-0.520
5322,-0.810,-0.515
5323,-0.820,-0.510
5324,-0.815,-0.515
5325,-0.805,-0.505
5326,-0.795,-0.485
5327,-0.780,-0.495
5328,-0.775,-0.495
5329,-0.785,-0.485
5330,-0.795,-0.495
5331,-0.805,-0.500
5332,-0.810,-0.510
5333,-0.820,-0.515
5334,-0.805,-0.515
5335,-0.800,-0.505
5336,-0.790,-0.505
5337,-0.805,-0.515
5338,-0.810,-0.480
5339,-0.785,-0.485
5340,-0.790,-0.495
5341,-0.795,-0.480
5342,-0.795,-0.505
5343,-0.795,-0.505
5344,-0.800,-0.515
5345,-0.800,-0.510
5346,-0.810,-0.510
5347,-0.820,-0.495
5348,-0.815,-0.485
5349,-0.815,-0.480
5350,-0.810,-0.480
5351,-0.800,-0.490
5352,-0.815,-0.480
5353,-0.805,-0.505
5354,-0.815,-0.495
5355,-0.815,-0.500
5356,-0.810,-0.505
5357,-0.815,-0.505
5358,-0.840,-0.495
5359,-0.820,-0.500
5360,-0.810,-0.505
5361,-0.820,-0.505
5362,-0.815,-0.515
5363,-0.805,-0.495
5364,-0.810,-0.505
5365,-0.795,-0.485
5366,-0.800,-0.505
5367,-0.820,-0.525
5368,-0.815,-0.540
5369,-0.810,-0.525
5370,-0.810,-0.530
5371,-0.805,-0.525
5372,-0.815,-0.520
5373,-0.800,-0.500
5374,-0.800,-0.505
5375,-0.795,-0.510
5376,-0.790,-0.505
5377,-0.775,-0.500
5378,-0.780,-0.510
5379,-0.790,-0.515
5380,-0.800,-0.535
5381,-0.810,-0.530
5382,-0.815,-0.535
5383,-0.810,-0.525
5384,-0.805,-0.525
5385,-0.800,-0.515
5386,-0.795,-0.500
5387,-0.785,-0.490
5388,-0.775,-0.500
5389,-0.765,-0.525
5390,-0.780,-0.535
5391,-0.795,-0.530
5392,-0.800,-0.530
5393,-0.790,-0.530
5394,-0.800,-0.540
5395,-0.795,-0.520
5396,-0.795,-0.515
5397,-0.785,-0.500
5398,-0.785,-0.505
5399,-0.770,-0.500
5400,-0.770,-0.495
5401,-0.770,-0.510
5402,-0.775,-0.545
5403,-0.780,-0.535
5404,-0.785,-0.540
5405,-0.780,-0.550
5406,-0.780,-0.540
5407,-0.785,-0.540
5408,-0.780,-0.525
5409,-0.755,-0.530
5410,-0.760,-0.500
5411,-0.745,-0.515
5412,-0.755,-0.515
5413,-0.765,-0.510
5414,-0.765,-0.520
5415,-0.765,-0.530
5416,-0.765,-0.540
5417,-0.780,-0.550
5418,-0.765,-0.555
5419,-0.770,-0.535
5420,-0.755,-0.530
5421,-0.760,-0.530
5422,-0.765,-0.510
5423,-0.755,-0.515
5424,-0.745,-0.525
5425,-0.745,-0.525
5426,-0.750,-0.540
5427,-0.755,-0.545
5428,-0.760,-0.550
5429,-0.770,-0.550
5430,-0.765,-0.545
5431,-0.765,-0.540
5432,-0.755,-0.530
5433,-0.755,-0.525
5434,-0.750,-0.510
5435,-0.740,-0.510
5436,-0.730,-0.510
5437,-0.740,-0.525
5438,-0.730,-0.525
5439,-0.745,-0.530
5440,-0.745,-0.545
5441,-0.765,-0.550
5442,-0.770,-0.545
5443,-0.785,-0.545
5444,-0.770,-0.540
5445,-0.750,-0.535
5446,-0.750,-0.520
5447,-0.730,-0.520
5448,-0.720,-0.520
5449,-0.715,-0.520
5450,-0.720,-0.535
5451,-0.715,-0.530
5452,-0.710,-0.540
5453,-0.730,-0.545
5454,-0.735,-0.550
5455,-0.720,-0.530
5456,-0.715,-0.525
5457,-0.715,-0.515
5458,-0.705,-0.520
5459,-0.695,-0.520
5460,-0.700,-0.525
5461,-0.705,-0.530
5462,-0.710,-0.555
5463,-0.720,-0.555
5464,-0.720,-0.535
5465,-0.720,-0.535
5466,-0.695,-0.525
5467,-0.675,-0.535
5468,-0.660,-0.530
5469,-0.650,-0.520
5470,-0.665,-0.520
5471,-0.670,-0.515
5472,-0.665,-0.520
5473,-0.660,-0.520
5474,-0.660,-0.520
5475,-0.660,-0.515
5476,-0.645,-0.525
5477,-0.640,-0.515
5478,-0.640,-0.520
5479,-0.625,-0.520
5480,-0.615,-0.510
5481,-0.590,-0.515
5482,-0.580,-0.520
5483,-0.565,-0.520
5484,-0.570,-0.540
5485,-0.570,-0.560
5486,-0.580,-0.580
5487,-0.570,-0.600
5488,-0.575,-0.610
5489,-0.555,-0.610
5490,-0.565,-0.610
5491,-0.555,-0.585
5492,-0.550,-0.580
5493,-0.535,-0.575
5494,-0.540,-0.565
5495,-0.535,-0.570
5496,-0.525,-0.575
5497,-0.515,-0.580
5498,-0.490,-0.570
5499,-0.495,-0.575
5500,-0.495,-0.565
5501,-0.505,-0.560
5502,-0.510,-0.540
5503,-0.520,-0.540
5504,-0.515,-0.535
5505,-0.530,-0.530
5506,-0.535,-0.530
5507,-0.515,-0.525
5508,-0.515,-0.525
5509,-0.515,-0.530
5510,-0.500,-0.530
5511,-0.520,-0.545
5512,-0.530,-0.550
5513,-0.530,-0.550
5514,-0.530,-0.550
5515,-0.525,-0.550
5516,-0.520,-0.540
5517,-0.510,-0.540
5518,-0.500,-0.535
5519,-0.475,-0.530
5520,-0.460,-0.520
5521,-0.460,-0.515
5522,-0.460,-0.515
5523,-0.460,-0.510
5524,-0.465,-0.520
5525,-0.460,-0.505
5526,-0.455,-0.515
5527,-0.420,-0.535
5528,-0.400,-0.595
5529,-0.375,-0.675
5530,-0.335,-0.790
5531,-0.280,-0.945
5532,-0.205,-1.115
5533,-0.110,-1.285
5534,-0.015,-1.460
5535,0.095,-1.600
5536,0.195,-1.660
5537,0.285,-1.640
5538,0.365,-1.550
5539,0.420,-1.415
5540,0.455,-1.250
5541,0.485,-1.105
5542,0.520,-0.980
5543,0.555,-0.885
5544,0.590,-0.815
5545,0.580,-0.735
5546,0.560,-0.675
5547,0.505,-0.615
5548,0.460,-0.570
5549,0.385,-0.525
5550,0.305,-0.515
5551,0.225,-0.500
5552,0.135,-0.500
5553,0.060,-0.485
5554,-0.020,-0.485
5555,-0.105,-0.470
5556,-0.170,-0.485
5557,-0.220,-0.460
5558,-0.275,-0.470
5559,-0.305,-0.465
5560,-0.330,-0.470
5561,-0.320,-0.470
5562,-0.325,-0.470
5563,-0.315,-0.450
5564,-0.315,-0.455
5565,-0.295,-0.440
5566,-0.280,-0.430
5567,-0.275,-0.435
5568,-0.285,-0.435
5569,-0.275,-0.440
5570,-0.275,-0.445
5571,-0.275,-0.445
5572,-0.285,-0.450
5573,-0.290,-0.455
5574,-0.290,-0.450
5575,-0.285,-0.435
5576,-0.290,-0.435
5577,-0.265,-0.435
5578,-0.270,-0.415
5579,-0.245,-0.405
5580,-0.255,-0.410
5581,-0.235,-0.430
5582,-0.250,-0.435
5583,-0.260,-0.440
5584,-0.265,-0.445
5585,-0.250,-0.455
5586,-0.255,-0.460
5587,-0.240,-0.440
5588,-0.235,-0.420
5589,-0.225,-0.430
5590,-0.215,-0.420
5591,-0.210,-0.420
5592,-0.200,-0.425
5593,-0.210,-0.420
5594,-0.205,-0.435
5595,-0.215,-0.435
5596,-0.225,-0.450
5597,-0.220,-0.460
5598,-0.210,-0.460
5599,-0.205,-0.450
5600,-0.200,-0.455
5601,-0.180,-0.455
5602,-0.180,-0.435
5603,-0.170,-0.425
5604,-0.175,-0.445
5605,-0.175,-0.430
5606,-0.180,-0.445
5607,-0.175,-0.455
5608,-0.175,-0.455
5609,-0.190,-0.460
5610,-0.190,-0.455
5611,-0.185,-0.455
5612,-0.185,-0.455
5613,-0.165,-0.445
5614,-0.160,-0.445
5615,-0.150,-0.440
5616,-0.145,-0.440
5617,-0.150,-0.440
5618,-0.150,-0.445
5619,-0.150,-0.460
5620,-0.145,-0.450
5621,-0.140,-0.460
5622,-0.145,-0.460
5623,-0.145,-0.455
5624,-0.135,-0.440
5625,-0.120,-0.435
5626,-0.105,-0.435
5627,-0.110,-0.420
5628,-0.105,-0.440
5629,-0.115,-0.450
5630,-0.100,-0.465
5631,-0.110,-0.455
5632,-0.105,-0.485
5633,-0.115,-0.490
5634,-0.095,-0.465
5635,-0.100,-0.460
5636,-0.095,-0.455
5637,-0.085,-0.450
5638,-0.090,-0.460
5639,-0.090,-0.465
5640,-0.075,-0.485
5641,-0.075,-0.485
5642,-0.065,-0.485
5643,-0.085,-0.500
5644,-0.095,-0.495
5645,-0.095,-0.515
5646,-0.100,-0.510
5647,-0.085,-0.505
5648,-0.085,-0.510
5649,-0.080,-0.500
5650,-0.080,-0.515
5651,-0.075,-0.505
5652,-0.075,-0.505
5653,-0.090,-0.515
5654,-0.090,-0.525
5655,-0.100,-0.530
5656,-0.115,-0.530
5657,-0.125,-0.525
5658,-0.135,-0.525
5659,-0.145,-0.525
5660,-0.150,-0.520
5661,-0.140,-0.515
5662,-0.145,-0.495
5663,-0.150,-0.490
5664,-0.140,-0.500
5665,-0.150,-0.505
5666,-0.170,-0.515
5667,-0.170,-0.520
5668,-0.180,-0.525
5669,-0.180,-0.520
5670,-0.185,-0.520
5671,-0.190,-0.510
5672,-0.185,-0.510
5673,-0.185,-0.505
5674,-0.185,-0.485
5675,-0.175,-0.490
5676,-0.175,-0.485
5677,-0.180,-0.500
5678,-0.175,-0.495
5679,-0.185,-0.500
5680,-0.190,-0.505
5681,-0.200,-0.505
5682,-0.195,-0.505
5683,-0.190,-0.495
5684,-0.195,-0.490
5685,-0.190,-0.480
5686,-0.200,-0.475
5687,-0.180,-0.465
5688,-0.180,-0.470
5689,-0.185,-0.465
5690,-0.185,-0.475
5691,-0.185,-0.470
5692,-0.195,-0.485
5693,-0.210,-0.500
5694,-0.215,-0.490
5695,-0.210,-0.495
5696,-0.215,-0.490
5697,-0.195,-0.480
5698,-0.195,-0.465
5699,-0.180,-0.455
5700,-0.180,-0.455
5701,-0.175,-0.450
5702,-0.190,-0.470
5703,-0.205,-0.475
5704,-0.225,-0.500
5705,-0.235,-0.480
5706,-0.230,-0.495
5707,-0.230,-0.465
5708,-0.225,-0.470
5709,-0.220,-0.470
5710,-0.220,-0.465
5711,-0.220,-0.465
5712,-0.220,-0.480
5713,-0.220,-0.480
5714,-0.225,-0.480
5715,-0.235,-0.480
5716,-0.230,-0.490
5717,-0.240,-0.500
5718,-0.235,-0.495
5719,-0.230,-0.495
5720,-0.225,-0.480
5721,-0.220,-0.480
5722,-0.220,-0.470
5723,-0.215,-0.475
5724,-0.210,-0.465
5725,-0.220,-0.485
5726,-0.210,-0.495
5727,-0.215,-0.485
5728,-0.215,-0.515
5729,-0.220,-0.505
5730,-0.200,-0.505
5731,-0.205,-0.500
5732,-0.200,-0.480
5733,-0.210,-0.485
5734,-0.195,-0.470
5735,-0.180,-0.475
5736,-0.185,-0.485
5737,-0.165,-0.485
5738,-0.170,-0.490
5739,-0.170,-0.500
5740,-0.170,-0.505
5741,-0.190,-0.515
5742,-0.185,-0.510
5743,-0.180,-0.510
5744,-0.180,-0.510
5745,-0.170,-0.500
5746,-0.160,-0.490
5747,-0.150,-0.475
5748,-0.150,-0.490
5749,-0.145,-0.485
5750,-0.145,-0.505
5751,-0.160,-0.505
5752,-0.160,-0.505
5753,-0.175,-0.510
5754,-0.175,-0.510
5755,-0.175,-0.500
5756,-0.165,-0.495
5757,-0.155,-0.495
5758,-0.150,-0.485
5759,-0.145,-0.475
5760,-0.135,-0.480
5761,-0.140,-0.495
5762,-0.145,-0.495
5763,-0.155,-0.500
5764,-0.150,-0.495
5765,-0.160,-0.500
5766,-0.155,-0.505
5767,-0.160,-0.495
5768,-0.150,-0.495
5769,-0.150,-0.510
5770,-0.140,-0.485
5771,-0.130,-0.480
5772,-0.135,-0.475
5773,-0.135,-0.480
5774,-0.125,-0.485
5775,-0.130,-0.495
5776,-0.145,-0.510
5777,-0.140,-0.510
5778,-0.145,-0.510
5779,-0.150,-0.500
5780,-0.150,-0.485
5781,-0.155,-0.490
5782,-0.145,-0.480
5783,-0.125,-0.480
5784,-0.120,-0.490
5785,-0.130,-0.480
5786,-0.125,-0.500
5787,-0.140,-0.505
5788,-0.145,-0.505
5789,-0.155,-0.505
5790,-0.155,-0.520
5791,-0.165,-0.505
5792,-0.165,-0.500
5793,-0.160,-0.480
5794,-0.150,-0.485
5795,-0.120,-0.470
5796,-0.120,-0.475
5797,-0.110,-0.500
5798,-0.115,-0.495
5799,-0.125,-0.520
5800,-0.125,-0.510
5801,-0.140,-0.525
5802,-0.145,-0.525
5803,-0.150,-0.515
5804,-0.140,-0.505
5805,-0.135,-0.490
5806,-0.130,-0.500
5807,-0.115,-0.490
5808,-0.110,-0.490
5809,-0.110,-0.495
5810,-0.120,-0.495
5811,-0.125,-0.500
5812,-0.150,-0.515
5813,-0.130,-0.515
5814,-0.135,-0.520
5815,-0.140,-0.510
5816,-0.125,-0.505
5817,-0.125,-0.490
5818,-0.125,-0.485
5819,-0.120,-0.475
5820,-0.110,-0.485
5821,-0.105,-0.495
5822,-0.105,-0.490
5823,-0.120,-0.510
5824,-0.125,-0.515
5825,-0.130,-0.510
5826,-0.135,-0.510
5827,-0.135,-0.500
5828,-0.125,-0.505
5829,-0.110,-0.505
5830,-0.115,-0.490
5831,-0.105,-0.475
5832,-0.105,-0.475
5833,-0.110,-0.485
5834,-0.120,-0.485
5835,-0.120,-0.495
5836,-0.100,-0.505
5837,-0.100,-0.500
5838,-0.080,-0.515
5839,-0.070,-0.525
5840,-0.075,-0.510
5841,-0.055,-0.525
5842,-0.055,-0.540
5843,-0.055,-0.540
5844,-0.050,-0.560
5845,-0.060,-0.575
5846,-0.070,-0.585
5847,-0.070,-0.590
5848,-0.080,-0.595
5849,-0.075,-0.585
5850,-0.080,-0.580
5851,-0.080,-0.570
5852,-0.080,-0.575
5853,-0.070,-0.560
5854,-0.065,-0.555
5855,-0.060,-0.550
5856,-0.050,-0.545
5857,-0.050,-0.535
5858,-0.060,-0.525
5859,-0.065,-0.525
5860,-0.075,-0.525
5861,-0.095,-0.510
5862,-0.100,-0.500
5863,-0.105,-0.510
5864,-0.105,-0.495
5865,-0.110,-0.495
5866,-0.115,-0.490
5867,-0.125,-0.485
5868,-0.110,-0.495
5869,-0.115,-0.495
5870,-0.110,-0.490
5871,-0.125,-0.500
5872,-0.135,-0.510
5873,-0.145,-0.510
5874,-0.140,-0.515
5875,-0.150,-0.510
5876,-0.160,-0.505
5877,-0.140,-0.495
5878,-0.130,-0.480
5879,-0.120,-0.475
5880,-0.130,-0.465
5881,-0.105,-0.470
5882,-0.105,-0.460
5883,-0.110,-0.460
5884,-0.105,-0.505
5885,-0.105,-0.535
5886,-0.095,-0.625
5887,-0.085,-0.755
5888,-0.055,-0.905
5889,0.015,-1.080
5890,0.095,-1.275
5891,0.185,-1.460
5892,0.295,-1.640
5893,0.380,-1.760
5894,0.495,-1.810
5895,0.565,-1.740
5896,0.615,-1.620
5897,0.645,-1.445
5898,0.680,-1.265
5899,0.715,-1.115
5900,0.765,-0.980
5901,0.805,-0.865
5902,0.830,-0.760
5903,0.815,-0.675
5904,0.765,-0.595
5905,0.695,-0.545
5906,0.625,-0.500
5907,0.555,-0.485
5908,0.465,-0.480
5909,0.375,-0.475
5910,0.285,-0.470
5911,0.195,-0.465
5912,0.120,-0.440
5913,0.070,-0.430
5914,0.030,-0.415
5915,-0.010,-0.410
5916,-0.045,-0.400
5917,-0.080,-0.400
5918,-0.115,-0.420
5919,-0.115,-0.425
5920,-0.115,-0.425
5921,-0.120,-0.415
5922,-0.115,-0.405
5923,-0.115,-0.405
5924,-0.115,-0.405
5925,-0.110,-0.390
5926,-0.115,-0.380
5927,-0.100,-0.375
5928,-0.105,-0.375
5929,-0.100,-0.385
5930,-0.100,-0.395
5931,-0.100,-0.385
5932,-0.100,-0.390
5933,-0.105,-0.390
5934,-0.110,-0.400
5935,-0.110,-0.385
5936,-0.115,-0.380
5937,-0.100,-0.380
5938,-0.100,-0.370
5939,-0.080,-0.350
5940,-0.080,-0.360
5941,-0.075,-0.375
5942,-0.075,-0.380
5943,-0.080,-0.390
5944,-0.100,-0.400
5945,-0.105,-0.390
5946,-0.100,-0.405
5947,-0.100,-0.390
5948,-0.100,-0.380
5949,-0.095,-0.370
5950,-0.075,-0.370
5951,-0.080,-0.355
5952,-0.075,-0.370
5953,-0.080,-0.360
5954,-0.075,-0.375
5955,-0.060,-0.380
5956,-0.060,-0.390
5957,-0.075,-0.395
5958,-0.085,-0.390
5959,-0.085,-0.390
5960,-0.070,-0.370
5961,-0.065,-0.365
5962,-0.060,-0.360
5963,-0.050,-0.345
5964,-0.040,-0.355
5965,-0.050,-0.375
5966,-0.050,-0.365
5967,-0.055,-0.375
5968,-0.065,-0.380
5969,-0.060,-0.390
5970,-0.065,-0.380
5971,-0.065,-0.390
5972,-0.060,-0.385
5973,-0.065,-0.380
5974,-0.050,-0.375
5975,-0.035,-0.355
5976,-0.040,-0.365
5977,-0.030,-0.360
5978,-0.030,-0.360
5979,-0.040,-0.375
5980,-0.040,-0.390
5981,-0.040,-0.400
5982,-0.060,-0.395
5983,-0.055,-0.370
5984,-0.040,-0.370
5985,-0.050,-0.360
5986,-0.030,-0.355
5987,-0.010,-0.345
5988,-0.020,-0.360
5989,-0.015,-0.365
5990,-0.015,-0.375
5991,-0.025,-0.385
5992,-0.035,-0.395
5993,-0.040,-0.405
5994,-0.040,-0.410
5995,-0.035,-0.405
5996,-0.035,-0.395
5997,-0.025,-0.395
5998,-0.030,-0.395
5999,-0.015,-0.380
6000,-0.035,-0.400
6001,-0.025,-0.420
6002,-0.025,-0.425
6003,-0.030,-0.425
6004,-0.035,-0.440
6005,-0.045,-0.450
6006,-0.035,-0.450
6007,-0.050,-0.450
6008,-0.035,-0.440
6009,-0.050,-0.435
6010,-0.050,-0.445
6011,-0.050,-0.445
6012,-0.040,-0.445
6013,-0.055,-0.450
6014,-0.050,-0.455
6015,-0.065,-0.465
6016,-0.070,-0.470
6017,-0.090,-0.475
6018,-0.105,-0.485
6019,-0.110,-0.480
6020,-0.105,-0.485
6021,-0.115,-0.475
6022,-0.115,-0.465
6023,-0.110,-0.455
6024,-0.115,-0.455
6025,-0.115,-0.475
6026,-0.125,-0.470
6027,-0.135,-0.490
6028,-0.140,-0.490
6029,-0.170,-0.495
6030,-0.180,-0.500
6031,-0.185,-0.480
6032,-0.190,-0.480
6033,-0.175,-0.460
6034,-0.175,-0.465
6035,-0.175,-0.470
6036,-0.170,-0.455
6037,-0.175,-0.460
6038,-0.195,-0.470
6039,-0.190,-0.480
6040,-0.205,-0.480
6041,-0.220,-0.490
6042,-0.235,-0.475
6043,-0.235,-0.475
6044,-0.240,-0.470
6045,-0.235,-0.460
6046,-0.240,-0.455
6047,-0.225,-0.445
6048,-0.245,-0.440
6049,-0.230,-0.445
6050,-0.240,-0.435
6051,-0.255,-0.455
6052,-0.250,-0.450
6053,-0.265,-0.455
6054,-0.285,-0.455
6055,-0.280,-0.460
6056,-0.295,-0.435
6057,-0.300,-0.430
6058,-0.265,-0.425
6059,-0.265,-0.425
6060,-0.260,-0.415
6061,-0.280,-0.435
6062,-0.285,-0.435
6063,-0.285,-0.450
6064,-0.310,-0.440
6065,-0.305,-0.470
6066,-0.315,-0.460
6067,-0.320,-0.450
6068,-0.315,-0.445
6069,-0.325,-0.440
6070,-0.320,-0.440
6071,-0.315,-0.435
6072,-0.325,-0.435
6073,-0.330,-0.450
6074,-0.325,-0.450
6075,-0.335,-0.455
6076,-0.345,-0.455
6077,-0.340,-0.460
6078,-0.355,-0.465
6079,-0.355,-0.470
6080,-0.355,-0.470
6081,-0.350,-0.455
6082,-0.345,-0.450
6083,-0.350,-0.450
6084,-0.350,-0.445
6085,-0.340,-0.460
6086,-0.340,-0.460
6087,-0.355,-0.485
6088,-0.360,-0.495
6089,-0.360,-0.480
6090,-0.370,-0.490
6091,-0.365,-0.490
6092,-0.380,-0.485
6093,-0.360,-0.465
6094,-0.370,-0.465
6095,-0.355,-0.460
6096,-0.350,-0.475
6097,-0.350,-0.470
6098,-0.370,-0.470
6099,-0.360,-0.470
6100,-0.355,-0.485
6101,-0.360,-0.495
6102,-0.370,-0.505
6103,-0.365,-0.490
6104,-0.365,-0.495
6105,-0.360,-0.485
6106,-0.350,-0.475
6107,-0.345,-0.455
6108,-0.330,-0.465
6109,-0.335,-0.475
6110,-0.335,-0.475
6111,-0.345,-0.495
6112,-0.355,-0.500
6113,-0.375,-0.495
6114,-0.380,-0.500
6115,-0.380,-0.510
6116,-0.380,-0.500
6117,-0.370,-0.495
6118,-0.360,-0.480
6119,-0.355,-0.475
6120,-0.360,-0.470
6121,-0.355,-0.465
6122,-0.365,-0.495
6123,-0.360,-0.490
6124,-0.365,-0.510
6125,-0.380,-0.500
6126,-0.385,-0.505
6127,-0.390,-0.505
6128,-0.395,-0.505
6129,-0.385,-0.475
6130,-0.375,-0.485
6131,-0.375,-0.475
6132,-0.380,-0.470
6133,-0.375,-0.480
6134,-0.370,-0.490
6135,-0.375,-0.505
6136,-0.380,-0.505
6137,-0.390,-0.505
6138,-0.390,-0.510
6139,-0.400,-0.510
6140,-0.395,-0.495
6141,-0.390,-0.490
6142,-0.385,-0.480
6143,-0.375,-0.480
6144,-0.360,-0.490
6145,-0.370,-0.500
6146,-0.370,-0.510
6147,-0.370,-0.515
6148,-0.375,-0.510
6149,-0.390,-0.520
6150,-0.400,-0.510
6151,-0.410,-0.510
6152,-0.390,-0.505
6153,-0.385,-0.500
6154,-0.375,-0.495
6155,-0.375,-0.490
6156,-0.365,-0.495
6157,-0.370,-0.485
6158,-0.370,-0.505
6159,-0.380,-0.515
6160,-0.380,-0.515
6161,-0.405,-0.525
6162,-0.405,-0.530
6163,-0.405,-0.530
6164,-0.400,-0.520
6165,-0.390,-0.510
6166,-0.390,-0.500
6167,-0.375,-0.490
6168,-0.380,-0.490
6169,-0.385,-0.505
6170,-0.390,-0.500
6171,-0.390,-0.520
6172,-0.410,-0.525
6173,-0.400,-0.540
6174,-0.405,-0.525
6175,-0.405,-0.520
6176,-0.400,-0.515
6177,-0.405,-0.500
6178,-0.390,-0.490
6179,-0.395,-0.500
6180,-0.380,-0.500
6181,-0.380,-0.495
6182,-0.390,-0.510
6183,-0.395,-0.505
6184,-0.400,-0.515
6185,-0.405,-0.520
6186,-0.410,-0.530
6187,-0.410,-0.520
6188,-0.400,-0.520
6189,-0.405,-0.500
6190,-0.385,-0.500
6191,-0.380,-0.490
6192,-0.385,-0.485
6193,-0.385,-0.505
6194,-0.390,-0.505
6195,-0.395,-0.520
6196,-0.395,-0.520
6197,-0.415,-0.515
6198,-0.415,-0.520
6199,-0.410,-0.505
6200,-0.395,-0.485
6201,-0.385,-0.480
6202,-0.365,-0.470
6203,-0.345,-0.475
6204,-0.345,-0.500
6205,-0.330,-0.520
6206,-0.330,-0.540
6207,-0.340,-0.565
6208,-0.365,-0.585
6209,-0.355,-0.590
6210,-0.360,-0.610
6211,-0.360,-0.610
6212,-0.355,-0.600
6213,-0.350,-0.585
6214,-0.350,-0.565
6215,-0.345,-0.570
6216,-0.350,-0.575
6217,-0.340,-0.585
6218,-0.340,-0.580
6219,-0.345,-0.580
6220,-0.340,-0.585
6221,-0.350,-0.570
6222,-0.370,-0.565
6223,-0.365,-0.540
6224,-0.365,-0.520
6225,-0.380,-0.505
6226,-0.365,-0.505
6227,-0.370,-0.490
6228,-0.375,-0.505
6229,-0.375,-0.505
6230,-0.390,-0.515
6231,-0.395,-0.520
6232,-0.415,-0.525
6233,-0.415,-0.530
6234,-0.435,-0.525
6235,-0.440,-0.530
6236,-0.435,-0.515
6237,-0.440,-0.515
6238,-0.420,-0.510
6239,-0.415,-0.500
6240,-0.410,-0.495
6241,-0.410,-0.500
6242,-0.405,-0.500
6243,-0.400,-0.505
6244,-0.415,-0.500
6245,-0.425,-0.485
6246,-0.415,-0.500
6247,-0.415,-0.490
6248,-0.415,-0.520
6249,-0.395,-0.560
6250,-0.370,-0.655
6251,-0.340,-0.800
6252,-0.315,-0.980
6253,-0.250,-1.190
6254,-0.170,-1.425
6255,-0.070,-1.625
6256,0.025,-1.795
6257,0.115,-1.875
6258,0.180,-1.850
6259,0.250,-1.730
6260,0.280,-1.550
6261,0.320,-1.355
6262,0.365,-1.185
6263,0.420,-1.025
6264,0.480,-0.915
6265,0.500,-0.820
6266,0.500,-0.725
6267,0.450,-0.650
6268,0.380,-0.595
6269,0.300,-0.550
6270,0.210,-0.530
6271,0.125,-0.515
6272,0.025,-0.505
6273,-0.050,-0.490
6274,-0.125,-0.480
6275,-0.185,-0.465
6276,-0.225,-0.445
6277,-0.260,-0.440
6278,-0.295,-0.450
6279,-0.340,-0.455
6280,-0.370,-0.455
6281,-0.390,-0.460
6282,-0.415,-0.450
6283,-0.420,-0.450
6284,-0.405,-0.445
6285,-0.400,-0.430
6286,-0.385,-0.425
6287,-0.380,-0.410
6288,-0.375,-0.410
6289,-0.375,-0.415
6290,-0.390,-0.430
6291,-0.385,-0.430
6292,-0.390,-0.430
6293,-0.390,-0.440
6294,-0.390,-0.430
6295,-0.395,-0.435
6296,-0.390,-0.425
6297,-0.395,-0.405
6298,-0.385,-0.410
6299,-0.380,-0.405
6300,-0.390,-0.395
6301,-0.365,-0.400
6302,-0.370,-0.405
6303,-0.375,-0.415
6304,-0.375,-0.410
6305,-0.380,-0.420
6306,-0.390,-0.420
6307,-0.385,-0.415
6308,-0.385,-0.415
6309,-0.370,-0.395
6310,-0.360,-0.395
6311,-0.365,-0.390
6312,-0.350,-0.405
6313,-0.355,-0.400
6314,-0.355,-0.400
6315,-0.350,-0.415
6316,-0.365,-0.420
6317,-0.370,-0.425
6318,-0.375,-0.435
6319,-0.370,-0.425
6320,-0.370,-0.425
6321,-0.360,-0.420
6322,-0.355,-0.415
6323,-0.345,-0.405
6324,-0.345,-0.395
6325,-0.340,-0.395
6326,-0.345,-0.410
6327,-0.350,-0.420
6328,-0.355,-0.415
6329,-0.365,-0.425
6330,-0.365,-0.425
6331,-0.370,-0.430
6332,-0.365,-0.420
6333,-0.365,-0.410
6334,-0.360,-0.405
6335,-0.340,-0.400
6336,-0.335,-0.400
6337,-0.335,-0.400
6338,-0.340,-0.405
6339,-0.345,-0.415
6340,-0.345,-0.425
6341,-0.350,-0.435
6342,-0.350,-0.440
6343,-0.355,-0.430
6344,-0.345,-0.425
6345,-0.340,-0.425
6346,-0.340,-0.410
6347,-0.325,-0.410
6348,-0.325,-0.410
6349,-0.320,-0.410
6350,-0.315,-0.425
6351,-0.320,-0.430
6352,-0.320,-0.450
6353,-0.335,-0.440
6354,-0.330,-0.455
6355,-0.335,-0.450
6356,-0.335,-0.445
6357,-0.325,-0.450
6358,-0.305,-0.430
6359,-0.305,-0.425
6360,-0.305,-0.440
6361,-0.305,-0.460
6362,-0.310,-0.460
6363,-0.315,-0.480
6364,-0.330,-0.485
6365,-0.335,-0.490
6366,-0.350,-0.495
6367,-0.345,-0.495
6368,-0.350,-0.480
6369,-0.345,-0.480
6370,-0.335,-0.480
6371,-0.345,-0.475
6372,-0.345,-0.485
6373,-0.350,-0.490
6374,-0.365,-0.490
6375,-0.375,-0.500
6376,-0.390,-0.515
6377,-0.390,-0.515
6378,-0.395,-0.530
6379,-0.405,-0.530
