'sample interval','MLII','V1'
'0.00277778 sec','mV','mV'
0,-0.245,0.210
1,-0.245,0.210
2,-0.245,0.210
3,-0.245,0.210
4,-0.245,0.210
5,-0.245,0.210
6,-0.245,0.210
7,-0.245,0.210
8,-0.240,0.210
9,-0.235,0.215
10,-0.195,0.205
11,-0.180,0.215
12,-0.155,0.215
13,-0.135,0.210
14,-0.125,0.205
15,-0.140,0.215
16,-0.165,0.205
17,-0.170,0.200
18,-0.185,0.200
19,-0.195,0.185
20,-0.195,0.185
21,-0.190,0.190
22,-0.170,0.195
23,-0.165,0.200
24,-0.165,0.210
25,-0.170,0.220
26,-0.165,0.240
27,-0.175,0.230
28,-0.180,0.225
29,-0.195,0.220
30,-0.195,0.215
31,-0.195,0.215
32,-0.215,0.205
33,-0.215,0.210
34,-0.200,0.215
35,-0.185,0.220
36,-0.175,0.215
37,-0.175,0.230
38,-0.175,0.230
39,-0.190,0.235
40,-0.200,0.215
41,-0.205,0.220
42,-0.200,0.215
43,-0.200,0.205
44,-0.185,0.205
45,-0.200,0.195
46,-0.200,0.200
47,-0.200,0.220
48,-0.190,0.215
49,-0.160,0.225
50,-0.145,0.220
51,-0.140,0.215
52,-0.160,0.215
53,-0.175,0.205
54,-0.205,0.220
55,-0.225,0.230
56,-0.255,0.215
57,-0.260,0.220
58,-0.230,0.215
59,-0.185,0.215
60,-0.165,0.200
61,-0.160,0.235
62,-0.170,0.240
63,-0.200,0.240
64,-0.220,0.250
65,-0.215,0.235
66,-0.215,0.235
67,-0.215,0.210
68,-0.190,0.195
69,-0.190,0.200
70,-0.190,0.205
71,-0.195,0.210
72,-0.195,0.220
73,-0.195,0.230
74,-0.190,0.215
75,-0.190,0.240
76,-0.185,0.230
77,-0.185,0.210
78,-0.180,0.205
79,-0.170,0.210
80,-0.185,0.215
81,-0.200,0.230
82,-0.215,0.235
83,-0.210,0.235
84,-0.185,0.225
85,-0.150,0.220
86,-0.145,0.235
87,-0.170,0.240
88,-0.200,0.250
89,-0.225,0.240
90,-0.240,0.250
91,-0.225,0.215
92,-0.205,0.210
93,-0.200,0.200
94,-0.195,0.205
95,-0.195,0.225
96,-0.205,0.220
97,-0.205,0.250
98,-0.205,0.245
99,-0.210,0.235
100,-0.210,0.220
101,-0.190,0.200
102,-0.175,0.190
103,-0.175,0.190
104,-0.175,0.180
105,-0.175,0.185
106,-0.180,0.180
107,-0.180,0.195
108,-0.200,0.195
109,-0.235,0.230
110,-0.250,0.240
111,-0.255,0.230
112,-0.240,0.225
113,-0.215,0.200
114,-0.185,0.185
115,-0.170,0.160
116,-0.180,0.170
117,-0.175,0.180
118,-0.185,0.195
119,-0.185,0.210
120,-0.185,0.215
121,-0.190,0.230
122,-0.220,0.240
123,-0.220,0.230
124,-0.220,0.220
125,-0.205,0.210
126,-0.185,0.190
127,-0.195,0.190
128,-0.210,0.190
129,-0.215,0.185
130,-0.215,0.190
131,-0.195,0.200
132,-0.175,0.205
133,-0.180,0.215
134,-0.210,0.250
135,-0.245,0.255
136,-0.260,0.250
137,-0.265,0.235
138,-0.260,0.220
139,-0.255,0.205
140,-0.235,0.175
141,-0.210,0.180
142,-0.200,0.175
143,-0.175,0.195
144,-0.175,0.190
145,-0.170,0.205
146,-0.195,0.210
147,-0.215,0.210
148,-0.230,0.210
149,-0.235,0.215
150,-0.230,0.205
151,-0.220,0.200
152,-0.195,0.180
153,-0.175,0.180
154,-0.155,0.170
155,-0.150,0.175
156,-0.150,0.195
157,-0.170,0.210
158,-0.180,0.205
159,-0.210,0.225
160,-0.245,0.245
161,-0.250,0.245
162,-0.270,0.250
163,-0.275,0.240
164,-0.270,0.225
165,-0.255,0.210
166,-0.235,0.210
167,-0.200,0.205
168,-0.155,0.190
169,-0.120,0.175
170,-0.115,0.170
171,-0.125,0.175
172,-0.175,0.190
173,-0.225,0.215
174,-0.265,0.240
175,-0.290,0.240
176,-0.290,0.245
177,-0.300,0.235
178,-0.270,0.235
179,-0.235,0.215
180,-0.205,0.225
181,-0.190,0.215
182,-0.185,0.215
183,-0.180,0.200
184,-0.170,0.190
185,-0.145,0.180
186,-0.145,0.175
187,-0.145,0.160
188,-0.170,0.175
189,-0.210,0.195
190,-0.250,0.205
191,-0.280,0.230
192,-0.275,0.245
193,-0.275,0.245
194,-0.245,0.240
195,-0.225,0.225
196,-0.195,0.220
197,-0.175,0.200
198,-0.190,0.185
199,-0.195,0.170
200,-0.190,0.170
201,-0.195,0.180
202,-0.220,0.180
203,-0.220,0.205
204,-0.230,0.215
205,-0.220,0.240
206,-0.220,0.230
207,-0.220,0.225
208,-0.200,0.200
209,-0.205,0.195
210,-0.210,0.185
211,-0.220,0.200
212,-0.235,0.200
213,-0.250,0.210
214,-0.265,0.200
215,-0.250,0.205
216,-0.240,0.210
217,-0.225,0.210
218,-0.200,0.210
219,-0.200,0.185
220,-0.190,0.185
221,-0.185,0.190
222,-0.195,0.175
223,-0.195,0.180
224,-0.200,0.180
225,-0.205,0.195
226,-0.220,0.200
227,-0.215,0.205
228,-0.225,0.205
229,-0.230,0.215
230,-0.230,0.220
231,-0.230,0.220
232,-0.205,0.210
233,-0.210,0.200
234,-0.215,0.190
235,-0.220,0.185
236,-0.235,0.180
237,-0.245,0.180
238,-0.235,0.195
239,-0.230,0.200
240,-0.195,0.200
241,-0.180,0.205
242,-0.170,0.220
243,-0.170,0.205
244,-0.165,0.190
245,-0.170,0.195
246,-0.180,0.190
247,-0.210,0.180
248,-0.230,0.180
249,-0.230,0.195
250,-0.235,0.195
251,-0.240,0.205
252,-0.235,0.210
253,-0.245,0.215
254,-0.245,0.225
255,-0.240,0.220
256,-0.240,0.220
257,-0.220,0.190
258,-0.210,0.180
259,-0.195,0.190
260,-0.195,0.175
261,-0.210,0.190
262,-0.215,0.190
263,-0.215,0.200
264,-0.195,0.185
265,-0.170,0.200
266,-0.140,0.195
267,-0.145,0.185
268,-0.175,0.185
269,-0.215,0.215
270,-0.250,0.210
271,-0.280,0.210
272,-0.275,0.210
273,-0.265,0.200
274,-0.235,0.180
275,-0.205,0.190
276,-0.200,0.195
277,-0.195,0.200
278,-0.200,0.205
279,-0.205,0.205
280,-0.210,0.220
281,-0.220,0.220
282,-0.235,0.205
283,-0.255,0.210
284,-0.260,0.195
285,-0.245,0.190
286,-0.225,0.190
287,-0.210,0.200
288,-0.200,0.200
289,-0.190,0.210
290,-0.185,0.220
291,-0.200,0.215
292,-0.225,0.230
293,-0.225,0.215
294,-0.230,0.210
295,-0.225,0.200
296,-0.200,0.185
297,-0.190,0.170
298,-0.175,0.190
299,-0.165,0.200
300,-0.190,0.205
301,-0.205,0.205
302,-0.215,0.220
303,-0.230,0.220
304,-0.210,0.195
305,-0.180,0.190
306,-0.170,0.170
307,-0.180,0.170
308,-0.205,0.185
309,-0.235,0.200
310,-0.255,0.210
311,-0.250,0.210
312,-0.225,0.205
313,-0.195,0.215
314,-0.175,0.220
315,-0.165,0.215
316,-0.155,0.210
317,-0.175,0.190
318,-0.200,0.205
319,-0.215,0.195
320,-0.220,0.190
321,-0.205,0.180
322,-0.200,0.185
323,-0.190,0.185
324,-0.175,0.190
325,-0.175,0.205
326,-0.185,0.215
327,-0.195,0.215
328,-0.205,0.195
329,-0.210,0.215
330,-0.215,0.210
331,-0.215,0.195
332,-0.215,0.190
333,-0.195,0.185
334,-0.190,0.180
335,-0.195,0.190
336,-0.195,0.200
337,-0.215,0.205
338,-0.200,0.200
339,-0.195,0.200
340,-0.185,0.195
341,-0.175,0.175
342,-0.185,0.165
343,-0.190,0.165
344,-0.210,0.165
345,-0.210,0.180
346,-0.235,0.185
347,-0.240,0.205
348,-0.220,0.205
349,-0.205,0.210
350,-0.180,0.185
351,-0.155,0.175
352,-0.145,0.160
353,-0.155,0.165
354,-0.190,0.180
355,-0.230,0.195
356,-0.265,0.210
357,-0.275,0.200
358,-0.240,0.190
359,-0.220,0.195
360,-0.210,0.195
361,-0.190,0.190
362,-0.180,0.205
363,-0.205,0.210
364,-0.200,0.190
365,-0.210,0.185
366,-0.185,0.175
367,-0.190,0.160
368,-0.175,0.155
369,-0.175,0.165
370,-0.195,0.165
371,-0.190,0.180
372,-0.180,0.180
373,-0.145,0.185
374,-0.125,0.175
375,-0.125,0.175
376,-0.160,0.190
377,-0.200,0.205
378,-0.250,0.215
379,-0.305,0.220
380,-0.325,0.215
381,-0.330,0.215
382,-0.265,0.190
383,-0.235,0.180
384,-0.190,0.170
385,-0.170,0.185
386,-0.160,0.205
387,-0.170,0.195
388,-0.185,0.190
389,-0.195,0.195
390,-0.200,0.180
391,-0.205,0.175
392,-0.200,0.165
393,-0.200,0.150
394,-0.180,0.155
395,-0.175,0.165
396,-0.160,0.160
397,-0.150,0.180
398,-0.160,0.200
399,-0.200,0.210
400,-0.230,0.220
401,-0.230,0.195
402,-0.195,0.190
403,-0.175,0.180
404,-0.165,0.160
405,-0.180,0.185
406,-0.205,0.210
407,-0.225,0.230
408,-0.235,0.245
409,-0.220,0.255
410,-0.195,0.235
411,-0.145,0.220
412,-0.085,0.190
413,-0.045,0.170
414,-0.040,0.175
415,-0.095,0.200
416,-0.145,0.225
417,-0.190,0.235
418,-0.205,0.220
419,-0.190,0.205
420,-0.165,0.210
421,-0.135,0.200
422,-0.100,0.200
423,-0.095,0.175
424,-0.095,0.175
425,-0.095,0.150
426,-0.125,0.145
427,-0.145,0.140
428,-0.165,0.150
429,-0.185,0.165
430,-0.190,0.160
431,-0.175,0.160
432,-0.165,0.170
433,-0.150,0.170
434,-0.150,0.160
435,-0.150,0.165
436,-0.155,0.160
437,-0.155,0.145
438,-0.150,0.135
439,-0.145,0.135
440,-0.140,0.140
441,-0.135,0.150
442,-0.145,0.170
443,-0.145,0.185
444,-0.145,0.195
445,-0.145,0.210
446,-0.145,0.185
447,-0.155,0.190
448,-0.185,0.200
449,-0.210,0.195
450,-0.245,0.190
451,-0.270,0.205
452,-0.285,0.195
453,-0.275,0.200
454,-0.265,0.190
455,-0.245,0.190
456,-0.220,0.190
457,-0.205,0.200
458,-0.195,0.205
459,-0.225,0.225
460,-0.245,0.235
461,-0.240,0.230
462,-0.240,0.215
463,-0.245,0.195
464,-0.235,0.170
465,-0.205,0.155
466,-0.185,0.175
467,-0.190,0.180
468,-0.195,0.190
469,-0.205,0.215
470,-0.215,0.215
471,-0.225,0.215
472,-0.225,0.200
473,-0.220,0.190
474,-0.210,0.180
475,-0.195,0.180
476,-0.185,0.175
477,-0.175,0.180
478,-0.175,0.190
479,-0.190,0.205
480,-0.190,0.215
481,-0.190,0.245
482,-0.160,0.255
483,-0.130,0.260
484,-0.090,0.255
485,-0.045,0.215
486,-0.020,0.175
487,0.010,0.120
488,0.050,0.040
489,0.115,-0.075
490,0.210,-0.200
491,0.295,-0.320
492,0.340,-0.405
493,0.310,-0.455
494,0.190,-0.460
495,-0.010,-0.420
496,-0.220,-0.345
497,-0.390,-0.210
498,-0.480,-0.025
499,-0.520,0.160
500,-0.505,0.320
501,-0.480,0.425
502,-0.440,0.485
503,-0.420,0.515
504,-0.400,0.525
505,-0.405,0.545
506,-0.425,0.560
507,-0.450,0.560
508,-0.480,0.585
509,-0.500,0.605
510,-0.500,0.630
511,-0.485,0.640
512,-0.455,0.660
513,-0.405,0.685
514,-0.350,0.680
515,-0.335,0.705
516,-0.305,0.720
517,-0.325,0.740
518,-0.355,0.750
519,-0.395,0.750
520,-0.405,0.730
521,-0.410,0.680
522,-0.400,0.610
523,-0.375,0.545
524,-0.355,0.470
525,-0.355,0.400
526,-0.320,0.330
527,-0.295,0.290
528,-0.260,0.240
529,-0.220,0.210
530,-0.180,0.195
531,-0.180,0.170
532,-0.175,0.175
533,-0.185,0.165
534,-0.195,0.150
535,-0.220,0.145
536,-0.230,0.155
537,-0.225,0.140
538,-0.220,0.140
539,-0.210,0.155
540,-0.210,0.150
541,-0.205,0.150
542,-0.195,0.150
543,-0.190,0.145
544,-0.195,0.150
545,-0.180,0.140
546,-0.195,0.130
547,-0.205,0.130
548,-0.225,0.120
549,-0.220,0.120
550,-0.195,0.120
551,-0.185,0.110
552,-0.165,0.110
553,-0.170,0.120
554,-0.160,0.120
555,-0.180,0.125
556,-0.190,0.125
557,-0.195,0.115
558,-0.180,0.080
559,-0.150,0.055
560,-0.115,0.035
561,-0.100,0.040
562,-0.110,0.085
563,-0.155,0.110
564,-0.200,0.125
565,-0.215,0.145
566,-0.205,0.145
567,-0.190,0.125
568,-0.170,0.095
569,-0.140,0.085
570,-0.125,0.070
571,-0.135,0.055
572,-0.140,0.060
573,-0.145,0.055
574,-0.145,0.055
575,-0.130,0.055
576,-0.120,0.060
577,-0.125,0.050
578,-0.125,0.040
579,-0.110,0.025
580,-0.105,0.010
581,-0.095,-0.005
582,-0.095,-0.015
583,-0.090,-0.040
584,-0.080,-0.040
585,-0.085,-0.040
586,-0.080,-0.030
587,-0.095,-0.035
588,-0.075,-0.035
589,-0.050,-0.055
590,-0.030,-0.050
591,-0.010,-0.075
592,-0.005,-0.085
593,0.000,-0.090
594,-0.010,-0.095
595,-0.020,-0.085
596,-0.035,-0.105
597,-0.030,-0.095
598,-0.030,-0.105
599,0.005,-0.125
600,0.030,-0.120
601,0.050,-0.120
602,0.065,-0.125
603,0.060,-0.125
604,0.050,-0.110
605,0.020,-0.100
606,0.005,-0.090
607,-0.010,-0.100
608,-0.015,-0.090
609,-0.020,-0.090
610,0.000,-0.085
611,0.015,-0.050
612,0.035,-0.045
613,0.055,-0.040
614,0.065,-0.035
615,0.060,-0.025
616,0.040,0.000
617,0.010,0.005
618,-0.030,0.035
619,-0.040,0.030
620,-0.040,0.035
621,-0.035,0.050
622,-0.025,0.055
623,-0.020,0.085
624,-0.025,0.105
625,-0.055,0.125
626,-0.065,0.150
627,-0.095,0.145
628,-0.105,0.160
629,-0.115,0.155
630,-0.100,0.155
631,-0.105,0.140
632,-0.115,0.140
633,-0.135,0.150
634,-0.145,0.150
635,-0.160,0.165
636,-0.165,0.180
637,-0.180,0.180
638,-0.165,0.190
639,-0.150,0.190
640,-0.155,0.170
641,-0.150,0.155
642,-0.155,0.145
643,-0.175,0.140
644,-0.205,0.135
645,-0.215,0.135
646,-0.230,0.160
647,-0.225,0.155
648,-0.210,0.135
649,-0.190,0.135
650,-0.175,0.135
651,-0.170,0.110
652,-0.165,0.105
653,-0.170,0.110
654,-0.180,0.115
655,-0.180,0.105
656,-0.190,0.110
657,-0.205,0.105
658,-0.185,0.110
659,-0.170,0.115
660,-0.155,0.145
661,-0.155,0.145
662,-0.135,0.160
663,-0.135,0.150
664,-0.125,0.150
665,-0.105,0.130
666,-0.105,0.115
667,-0.110,0.105
668,-0.115,0.100
669,-0.125,0.100
670,-0.140,0.110
671,-0.145,0.120
672,-0.145,0.135
673,-0.145,0.135
674,-0.130,0.125
675,-0.120,0.130
676,-0.120,0.130
677,-0.120,0.115
678,-0.120,0.120
679,-0.130,0.110
680,-0.160,0.120
681,-0.175,0.140
682,-0.170,0.150
683,-0.155,0.175
684,-0.135,0.170
685,-0.090,0.165
686,-0.060,0.165
687,-0.060,0.175
688,-0.100,0.180
689,-0.120,0.180
690,-0.130,0.175
691,-0.150,0.175
692,-0.150,0.165
693,-0.150,0.170
694,-0.130,0.165
695,-0.125,0.170
696,-0.120,0.175
697,-0.115,0.185
698,-0.120,0.195
699,-0.130,0.195
700,-0.140,0.205
701,-0.155,0.190
702,-0.170,0.190
703,-0.155,0.180
704,-0.155,0.180
705,-0.145,0.175
706,-0.130,0.185
707,-0.125,0.185
708,-0.120,0.185
709,-0.130,0.185
710,-0.115,0.190
711,-0.110,0.185
712,-0.110,0.200
713,-0.100,0.175
714,-0.100,0.185
715,-0.110,0.180
716,-0.145,0.170
717,-0.170,0.175
718,-0.175,0.175
719,-0.165,0.190
720,-0.125,0.195
721,-0.115,0.185
722,-0.115,0.190
723,-0.135,0.195
724,-0.150,0.185
725,-0.150,0.185
726,-0.130,0.165
727,-0.115,0.160
728,-0.105,0.160
729,-0.100,0.190
730,-0.085,0.225
731,-0.075,0.240
732,-0.045,0.230
733,0.010,0.185
734,0.110,0.100
735,0.235,-0.020
736,0.365,-0.150
737,0.470,-0.255
738,0.495,-0.335
739,0.440,-0.375
740,0.260,-0.370
741,0.020,-0.320
742,-0.195,-0.205
743,-0.355,-0.070
744,-0.435,0.115
745,-0.440,0.265
746,-0.415,0.400
747,-0.390,0.470
748,-0.340,0.505
749,-0.305,0.485
750,-0.305,0.470
751,-0.320,0.455
752,-0.355,0.455
753,-0.395,0.480
754,-0.400,0.500
755,-0.380,0.515
756,-0.350,0.525
757,-0.300,0.540
758,-0.255,0.560
759,-0.255,0.595
760,-0.280,0.620
761,-0.325,0.635
762,-0.385,0.655
763,-0.410,0.655
764,-0.415,0.630
765,-0.395,0.610
766,-0.350,0.555
767,-0.300,0.500
768,-0.285,0.445
769,-0.265,0.400
770,-0.260,0.340
771,-0.255,0.290
772,-0.240,0.240
773,-0.215,0.170
774,-0.180,0.130
775,-0.150,0.090
776,-0.150,0.085
777,-0.155,0.075
778,-0.145,0.095
779,-0.165,0.120
780,-0.150,0.100
781,-0.135,0.115
782,-0.125,0.105
783,-0.105,0.095
784,-0.095,0.085
785,-0.100,0.070
786,-0.095,0.070
787,-0.105,0.055
788,-0.125,0.070
789,-0.145,0.085
790,-0.165,0.100
791,-0.155,0.095
792,-0.155,0.100
793,-0.140,0.085
794,-0.120,0.070
795,-0.125,0.075
796,-0.110,0.090
797,-0.135,0.080
798,-0.145,0.065
799,-0.150,0.075
800,-0.140,0.050
801,-0.125,0.045
802,-0.120,0.065
803,-0.130,0.070
804,-0.135,0.085
805,-0.140,0.090
806,-0.125,0.085
807,-0.125,0.080
808,-0.100,0.060
809,-0.085,0.055
810,-0.085,0.040
811,-0.110,0.030
812,-0.105,0.035
813,-0.115,0.015
814,-0.110,0.020
815,-0.085,0.030
816,-0.055,0.020
817,-0.045,0.030
818,-0.045,0.020
819,-0.030,0.005
820,-0.020,-0.010
821,-0.020,-0.015
822,-0.025,-0.020
823,-0.010,-0.040
824,-0.010,-0.040
825,-0.010,-0.055
826,0.005,-0.065
827,0.010,-0.060
828,0.030,-0.070
829,0.055,-0.060
830,0.080,-0.075
831,0.100,-0.090
832,0.105,-0.110
833,0.120,-0.120
834,0.125,-0.130
835,0.100,-0.130
836,0.075,-0.125
837,0.055,-0.110
838,0.060,-0.105
839,0.070,-0.105
840,0.095,-0.120
841,0.130,-0.125
842,0.135,-0.125
843,0.130,-0.120
844,0.125,-0.120
845,0.120,-0.115
846,0.130,-0.110
847,0.125,-0.115
848,0.125,-0.115
849,0.120,-0.095
850,0.100,-0.065
851,0.085,-0.050
852,0.060,-0.010
853,0.045,0.005
854,0.025,0.035
855,0.035,0.050
856,0.030,0.065
857,0.030,0.055
858,0.015,0.055
859,-0.005,0.060
860,-0.025,0.060
861,-0.030,0.075
862,-0.030,0.090
863,-0.060,0.130
864,-0.100,0.170
865,-0.125,0.180
866,-0.120,0.185
867,-0.105,0.180
868,-0.090,0.160
869,-0.090,0.160
870,-0.100,0.150
871,-0.130,0.150
872,-0.145,0.180
873,-0.155,0.170
874,-0.155,0.175
875,-0.160,0.180
876,-0.145,0.175
877,-0.135,0.180
878,-0.135,0.185
879,-0.130,0.185
880,-0.135,0.180
881,-0.145,0.185
882,-0.155,0.175
883,-0.170,0.165
884,-0.185,0.160
885,-0.195,0.170
886,-0.185,0.165
887,-0.185,0.170
888,-0.170,0.170
889,-0.165,0.185
890,-0.155,0.195
891,-0.145,0.180
892,-0.125,0.185
893,-0.130,0.165
894,-0.145,0.160
895,-0.160,0.150
896,-0.165,0.165
897,-0.170,0.165
898,-0.160,0.175
899,-0.160,0.180
900,-0.150,0.185
901,-0.135,0.175
902,-0.115,0.170
903,-0.130,0.160
904,-0.135,0.170
905,-0.180,0.175
906,-0.190,0.175
907,-0.200,0.175
908,-0.205,0.175
909,-0.195,0.165
910,-0.195,0.155
911,-0.170,0.150
912,-0.170,0.120
913,-0.165,0.115
914,-0.135,0.095
915,-0.135,0.095
916,-0.120,0.085
917,-0.115,0.100
918,-0.110,0.085
919,-0.120,0.080
920,-0.145,0.080
921,-0.165,0.095
922,-0.195,0.110
923,-0.210,0.135
924,-0.230,0.155
925,-0.215,0.170
926,-0.210,0.180
927,-0.180,0.170
928,-0.160,0.165
929,-0.130,0.135
930,-0.100,0.115
931,-0.090,0.110
932,-0.110,0.105
933,-0.110,0.115
934,-0.125,0.125
935,-0.130,0.120
936,-0.120,0.125
937,-0.115,0.125
938,-0.115,0.120
939,-0.115,0.130
940,-0.135,0.130
941,-0.150,0.140
942,-0.170,0.130
943,-0.205,0.140
944,-0.210,0.130
945,-0.215,0.125
946,-0.225,0.130
947,-0.225,0.150
948,-0.225,0.155
949,-0.210,0.170
950,-0.195,0.165
951,-0.180,0.170
952,-0.155,0.165
953,-0.160,0.165
954,-0.155,0.180
955,-0.160,0.175
956,-0.180,0.165
957,-0.180,0.180
958,-0.165,0.180
959,-0.155,0.185
960,-0.145,0.180
961,-0.135,0.185
962,-0.120,0.200
963,-0.120,0.195
964,-0.125,0.185
965,-0.130,0.180
966,-0.140,0.170
967,-0.130,0.155
968,-0.125,0.150
969,-0.120,0.145
970,-0.125,0.155
971,-0.140,0.170
972,-0.150,0.205
973,-0.160,0.205
974,-0.135,0.200
975,-0.125,0.185
976,-0.115,0.175
977,-0.145,0.180
978,-0.180,0.190
979,-0.185,0.190
980,-0.185,0.175
981,-0.170,0.180
982,-0.155,0.175
983,-0.155,0.190
984,-0.140,0.200
985,-0.125,0.205
986,-0.135,0.195
987,-0.130,0.190
988,-0.135,0.190
989,-0.150,0.200
990,-0.150,0.195
991,-0.145,0.205
992,-0.125,0.220
993,-0.095,0.220
994,-0.050,0.230
995,-0.015,0.240
996,0.030,0.230
997,0.115,0.205
998,0.195,0.130
999,0.395,-0.080
1000,0.485,-0.180
1001,0.550,-0.270
1002,0.540,-0.340
1003,0.440,-0.370
1004,0.235,-0.360
1005,-0.030,-0.315
1006,-0.290,-0.190
1007,-0.465,-0.045
1008,-0.555,0.140
1009,-0.580,0.280
1010,-0.545,0.405
1011,-0.495,0.480
1012,-0.440,0.510
1013,-0.390,0.495
1014,-0.350,0.490
1015,-0.330,0.460
1016,-0.330,0.470
1017,-0.360,0.485
1018,-0.410,0.530
1019,-0.455,0.575
1020,-0.470,0.615
1021,-0.465,0.645
1022,-0.430,0.640
1023,-0.390,0.650
1024,-0.345,0.660
1025,-0.320,0.665
1026,-0.330,0.655
1027,-0.340,0.665
1028,-0.355,0.670
1029,-0.370,0.650
1030,-0.365,0.630
1031,-0.335,0.595
1032,-0.320,0.550
1033,-0.285,0.490
1034,-0.260,0.440
1035,-0.260,0.385
1036,-0.265,0.340
1037,-0.270,0.295
1038,-0.280,0.260
1039,-0.280,0.215
1040,-0.265,0.180
1041,-0.230,0.155
1042,-0.200,0.140
1043,-0.170,0.120
1044,-0.140,0.130
1045,-0.125,0.135
1046,-0.115,0.125
1047,-0.095,0.105
1048,-0.070,0.085
1049,-0.050,0.060
1050,-0.070,0.055
1051,-0.105,0.080
1052,-0.165,0.110
1053,-0.240,0.155
1054,-0.290,0.175
1055,-0.290,0.175
1056,-0.260,0.165
1057,-0.210,0.145
1058,-0.160,0.120
1059,-0.130,0.105
1060,-0.120,0.085
1061,-0.125,0.090
1062,-0.115,0.085
1063,-0.125,0.080
1064,-0.125,0.090
1065,-0.120,0.065
1066,-0.110,0.070
1067,-0.120,0.070
1068,-0.130,0.100
1069,-0.135,0.110
1070,-0.140,0.105
1071,-0.165,0.085
1072,-0.145,0.080
1073,-0.145,0.055
1074,-0.115,0.040
1075,-0.115,0.040
1076,-0.110,0.035
1077,-0.105,0.050
1078,-0.105,0.050
1079,-0.100,0.065
1080,-0.095,0.070
1081,-0.110,0.065
1082,-0.125,0.060
1083,-0.135,0.050
1084,-0.125,0.035
1085,-0.110,0.010
1086,-0.095,0.020
1087,-0.090,-0.005
1088,-0.065,-0.010
1089,-0.050,-0.020
1090,-0.040,-0.035
1091,-0.025,-0.035
1092,-0.010,-0.040
1093,0.025,-0.035
1094,0.030,-0.060
1095,0.050,-0.065
1096,0.070,-0.075
1097,0.065,-0.080
1098,0.050,-0.080
1099,0.055,-0.095
1100,0.055,-0.100
1101,0.050,-0.100
1102,0.045,-0.075
1103,0.050,-0.080
1104,0.060,-0.075
1105,0.075,-0.070
1106,0.085,-0.080
1107,0.085,-0.095
1108,0.110,-0.115
1109,0.085,-0.100
1110,0.080,-0.105
1111,0.070,-0.105
1112,0.070,-0.095
1113,0.085,-0.090
1114,0.085,-0.065
1115,0.085,-0.035
1116,0.070,-0.015
1117,0.070,-0.005
1118,0.045,0.000
1119,0.020,0.020
1120,0.010,0.015
1121,0.000,0.010
1122,-0.005,0.030
1123,-0.005,0.045
1124,-0.045,0.055
1125,-0.080,0.075
1126,-0.100,0.100
1127,-0.110,0.120
1128,-0.115,0.135
1129,-0.080,0.140
1130,-0.065,0.130
1131,-0.050,0.130
1132,-0.040,0.135
1133,-0.060,0.140
1134,-0.090,0.155
1135,-0.150,0.175
1136,-0.195,0.195
1137,-0.215,0.210
1138,-0.225,0.205
1139,-0.215,0.205
1140,-0.190,0.195
1141,-0.150,0.170
1142,-0.130,0.160
1143,-0.120,0.155
1144,-0.125,0.155
1145,-0.140,0.160
1146,-0.150,0.145
1147,-0.170,0.165
1148,-0.185,0.175
1149,-0.190,0.160
1150,-0.180,0.180
1151,-0.190,0.185
1152,-0.195,0.200
1153,-0.195,0.215
1154,-0.210,0.215
1155,-0.205,0.200
1156,-0.190,0.195
1157,-0.170,0.160
1158,-0.160,0.155
1159,-0.155,0.145
1160,-0.150,0.140
1161,-0.170,0.155
1162,-0.195,0.170
1163,-0.200,0.200
1164,-0.220,0.210
1165,-0.205,0.215
1166,-0.190,0.205
1167,-0.160,0.175
1168,-0.125,0.155
1169,-0.100,0.145
1170,-0.085,0.140
1171,-0.095,0.150
1172,-0.125,0.165
1173,-0.155,0.185
1174,-0.165,0.185
1175,-0.165,0.180
1176,-0.175,0.205
1177,-0.150,0.185
1178,-0.140,0.175
1179,-0.130,0.165
1180,-0.105,0.150
1181,-0.120,0.150
1182,-0.120,0.155
1183,-0.145,0.160
1184,-0.160,0.165
1185,-0.185,0.180
1186,-0.200,0.180
1187,-0.185,0.195
1188,-0.190,0.200
1189,-0.190,0.200
1190,-0.180,0.190
1191,-0.160,0.180
1192,-0.135,0.155
1193,-0.140,0.155
1194,-0.130,0.145
1195,-0.145,0.155
1196,-0.170,0.165
1197,-0.210,0.170
1198,-0.220,0.180
1199,-0.190,0.195
1200,-0.175,0.185
1201,-0.155,0.175
1202,-0.145,0.165
1203,-0.155,0.180
1204,-0.165,0.170
1205,-0.160,0.175
1206,-0.170,0.160
1207,-0.175,0.165
1208,-0.165,0.145
1209,-0.150,0.145
1210,-0.145,0.155
1211,-0.155,0.160
1212,-0.170,0.175
1213,-0.200,0.200
1214,-0.220,0.200
1215,-0.250,0.205
1216,-0.250,0.205
1217,-0.260,0.180
1218,-0.250,0.175
1219,-0.230,0.165
1220,-0.205,0.150
1221,-0.180,0.150
1222,-0.155,0.150
1223,-0.125,0.130
1224,-0.100,0.135
1225,-0.095,0.140
1226,-0.110,0.155
1227,-0.165,0.175
1228,-0.215,0.185
1229,-0.250,0.195
1230,-0.270,0.195
1231,-0.275,0.180
1232,-0.250,0.190
1233,-0.235,0.170
1234,-0.205,0.170
1235,-0.190,0.160
1236,-0.185,0.160
1237,-0.185,0.175
1238,-0.185,0.170
1239,-0.195,0.170
1240,-0.205,0.165
1241,-0.200,0.150
1242,-0.185,0.135
1243,-0.180,0.125
1244,-0.155,0.115
1245,-0.105,0.095
1246,-0.045,0.075
1247,-0.005,0.090
1248,-0.045,0.125
1249,-0.150,0.185
1250,-0.265,0.240
1251,-0.375,0.275
1252,-0.410,0.250
1253,-0.375,0.210
1254,-0.320,0.185
1255,-0.250,0.150
1256,-0.205,0.150
1257,-0.170,0.145
1258,-0.170,0.150
1259,-0.165,0.155
1260,-0.170,0.170
1261,-0.160,0.165
1262,-0.165,0.160
1263,-0.140,0.140
1264,-0.120,0.120
1265,-0.090,0.105
1266,-0.095,0.085
1267,-0.095,0.095
1268,-0.125,0.115
1269,-0.170,0.150
1270,-0.235,0.185
1271,-0.310,0.225
1272,-0.340,0.250
1273,-0.340,0.250
1274,-0.305,0.220
1275,-0.255,0.205
1276,-0.205,0.175
1277,-0.165,0.155
1278,-0.145,0.140
1279,-0.140,0.145
1280,-0.150,0.140
1281,-0.165,0.140
1282,-0.165,0.160
1283,-0.160,0.155
1284,-0.165,0.175
1285,-0.165,0.185
1286,-0.170,0.185
1287,-0.195,0.185
1288,-0.210,0.180
1289,-0.220,0.165
1290,-0.220,0.155
1291,-0.210,0.155
1292,-0.200,0.140
1293,-0.195,0.145
1294,-0.180,0.155
1295,-0.175,0.155
1296,-0.170,0.165
1297,-0.160,0.165
1298,-0.160,0.170
1299,-0.170,0.170
1300,-0.175,0.165
1301,-0.190,0.165
1302,-0.200,0.150
1303,-0.210,0.145
1304,-0.215,0.140
1305,-0.215,0.145
1306,-0.205,0.160
1307,-0.200,0.180
1308,-0.205,0.195
1309,-0.205,0.205
1310,-0.210,0.220
1311,-0.215,0.205
1312,-0.210,0.200
1313,-0.200,0.200
1314,-0.190,0.180
1315,-0.180,0.165
1316,-0.160,0.145
1317,-0.150,0.150
1318,-0.135,0.145
1319,-0.140,0.165
1320,-0.165,0.180
1321,-0.200,0.200
1322,-0.250,0.210
1323,-0.265,0.215
1324,-0.280,0.210
1325,-0.265,0.195
1326,-0.245,0.165
1327,-0.230,0.165
1328,-0.200,0.150
1329,-0.195,0.150
1330,-0.195,0.160
1331,-0.195,0.170
1332,-0.195,0.175
1333,-0.185,0.185
1334,-0.175,0.185
1335,-0.170,0.185
1336,-0.155,0.175
1337,-0.155,0.155
1338,-0.155,0.165
1339,-0.185,0.160
1340,-0.200,0.160
1341,-0.200,0.160
1342,-0.195,0.170
1343,-0.170,0.175
1344,-0.145,0.185
1345,-0.115,0.155
1346,-0.120,0.155
1347,-0.130,0.165
1348,-0.145,0.155
1349,-0.160,0.160
1350,-0.180,0.175
1351,-0.225,0.185
1352,-0.270,0.200
1353,-0.295,0.220
1354,-0.290,0.225
1355,-0.285,0.220
1356,-0.230,0.220
1357,-0.195,0.210
1358,-0.175,0.200
1359,-0.170,0.210
1360,-0.175,0.185
1361,-0.200,0.195
1362,-0.215,0.185
1363,-0.245,0.190
1364,-0.240,0.175
1365,-0.210,0.175
1366,-0.190,0.175
1367,-0.155,0.170
1368,-0.130,0.155
1369,-0.120,0.175
1370,-0.135,0.170
1371,-0.160,0.175
1372,-0.195,0.190
1373,-0.215,0.180
1374,-0.240,0.160
1375,-0.240,0.140
1376,-0.225,0.150
1377,-0.205,0.140
1378,-0.190,0.145
1379,-0.200,0.180
1380,-0.210,0.175
1381,-0.200,0.180
1382,-0.210,0.175
1383,-0.220,0.170
1384,-0.230,0.160
1385,-0.235,0.155
1386,-0.235,0.160
1387,-0.245,0.145
1388,-0.210,0.130
1389,-0.190,0.120
1390,-0.165,0.125
1391,-0.150,0.125
1392,-0.150,0.145
1393,-0.160,0.150
1394,-0.170,0.145
1395,-0.175,0.160
1396,-0.190,0.160
1397,-0.215,0.170
1398,-0.245,0.160
1399,-0.255,0.150
1400,-0.260,0.140
1401,-0.255,0.140
1402,-0.240,0.140
1403,-0.215,0.150
1404,-0.195,0.140
1405,-0.185,0.135
1406,-0.165,0.145
1407,-0.175,0.130
1408,-0.205,0.155
1409,-0.260,0.160
1410,-0.285,0.155
1411,-0.300,0.165
1412,-0.310,0.150
1413,-0.305,0.150
1414,-0.265,0.135
1415,-0.235,0.130
1416,-0.195,0.130
1417,-0.180,0.120
1418,-0.180,0.125
1419,-0.210,0.125
1420,-0.240,0.120
1421,-0.265,0.115
1422,-0.280,0.110
1423,-0.265,0.100
1424,-0.255,0.090
1425,-0.225,0.095
1426,-0.215,0.105
1427,-0.195,0.105
1428,-0.190,0.115
1429,-0.175,0.110
1430,-0.195,0.120
1431,-0.210,0.130
1432,-0.215,0.120
1433,-0.235,0.120
1434,-0.230,0.110
1435,-0.235,0.105
1436,-0.240,0.105
1437,-0.250,0.115
1438,-0.260,0.115
1439,-0.255,0.135
1440,-0.255,0.135
1441,-0.245,0.145
1442,-0.245,0.130
1443,-0.250,0.130
1444,-0.240,0.105
1445,-0.225,0.100
1446,-0.215,0.085
1447,-0.215,0.090
1448,-0.220,0.095
1449,-0.225,0.110
1450,-0.235,0.120
1451,-0.240,0.120
1452,-0.235,0.120
1453,-0.220,0.115
1454,-0.210,0.115
1455,-0.220,0.110
1456,-0.210,0.095
1457,-0.225,0.090
1458,-0.225,0.100
1459,-0.255,0.100
1460,-0.260,0.105
1461,-0.250,0.110
1462,-0.240,0.100
1463,-0.200,0.100
1464,-0.175,0.105
1465,-0.160,0.115
1466,-0.185,0.120
1467,-0.220,0.130
1468,-0.235,0.125
1469,-0.255,0.135
1470,-0.285,0.125
1471,-0.305,0.130
1472,-0.295,0.130
1473,-0.270,0.110
1474,-0.250,0.110
1475,-0.220,0.120
1476,-0.210,0.120
1477,-0.200,0.130
1478,-0.220,0.130
1479,-0.225,0.130
1480,-0.230,0.125
1481,-0.220,0.110
1482,-0.220,0.100
1483,-0.230,0.100
1484,-0.245,0.120
1485,-0.240,0.105
1486,-0.230,0.110
1487,-0.225,0.120
1488,-0.210,0.135
1489,-0.215,0.135
1490,-0.240,0.150
1491,-0.255,0.155
1492,-0.260,0.140
1493,-0.260,0.125
1494,-0.250,0.115
1495,-0.245,0.115
1496,-0.250,0.130
1497,-0.265,0.150
1498,-0.285,0.150
1499,-0.270,0.145
1500,-0.250,0.150
1501,-0.220,0.140
1502,-0.195,0.135
1503,-0.185,0.120
1504,-0.180,0.105
1505,-0.205,0.115
1506,-0.210,0.115
1507,-0.225,0.115
1508,-0.240,0.125
1509,-0.250,0.130
1510,-0.260,0.130
1511,-0.250,0.125
1512,-0.230,0.140
1513,-0.205,0.140
1514,-0.190,0.135
1515,-0.200,0.150
1516,-0.200,0.150
1517,-0.210,0.150
1518,-0.240,0.135
1519,-0.255,0.135
1520,-0.260,0.130
1521,-0.245,0.130
1522,-0.225,0.135
1523,-0.220,0.135
1524,-0.210,0.150
1525,-0.205,0.150
1526,-0.205,0.150
1527,-0.210,0.125
1528,-0.215,0.130
1529,-0.245,0.135
1530,-0.265,0.160
1531,-0.280,0.140
1532,-0.265,0.135
1533,-0.245,0.140
1534,-0.225,0.125
1535,-0.205,0.135
1536,-0.215,0.150
1537,-0.230,0.170
1538,-0.240,0.170
1539,-0.235,0.165
1540,-0.200,0.140
1541,-0.185,0.115
1542,-0.170,0.115
1543,-0.175,0.110
1544,-0.205,0.115
1545,-0.235,0.120
1546,-0.270,0.140
1547,-0.270,0.160
1548,-0.260,0.170
1549,-0.255,0.170
1550,-0.245,0.175
1551,-0.225,0.155
1552,-0.200,0.145
1553,-0.190,0.140
1554,-0.180,0.105
1555,-0.190,0.105
1556,-0.200,0.110
1557,-0.205,0.120
1558,-0.205,0.145
1559,-0.205,0.140
1560,-0.195,0.145
1561,-0.190,0.140
1562,-0.190,0.130
1563,-0.205,0.130
1564,-0.210,0.140
1565,-0.225,0.135
1566,-0.240,0.145
1567,-0.245,0.135
1568,-0.245,0.140
1569,-0.225,0.140
1570,-0.220,0.130
1571,-0.190,0.145
1572,-0.175,0.150
1573,-0.170,0.160
1574,-0.170,0.165
1575,-0.190,0.165
1576,-0.205,0.150
1577,-0.235,0.145
1578,-0.235,0.160
1579,-0.235,0.155
1580,-0.215,0.160
1581,-0.195,0.165
1582,-0.180,0.165
1583,-0.155,0.175
1584,-0.135,0.175
1585,-0.135,0.170
1586,-0.130,0.185
1587,-0.140,0.195
1588,-0.165,0.190
1589,-0.170,0.175
1590,-0.170,0.145
1591,-0.165,0.125
1592,-0.145,0.110
1593,-0.135,0.090
1594,-0.105,0.090
1595,-0.100,0.085
1596,-0.100,0.105
1597,-0.130,0.105
1598,-0.160,0.120
1599,-0.200,0.125
1600,-0.225,0.120
1601,-0.245,0.120
1602,-0.250,0.110
1603,-0.240,0.110
1604,-0.220,0.115
1605,-0.185,0.120
1606,-0.175,0.110
1607,-0.145,0.105
1608,-0.120,0.095
1609,-0.105,0.110
1610,-0.110,0.105
1611,-0.135,0.125
1612,-0.175,0.150
1613,-0.230,0.170
1614,-0.280,0.180
1615,-0.325,0.180
1616,-0.345,0.170
1617,-0.345,0.175
1618,-0.325,0.165
1619,-0.300,0.150
1620,-0.270,0.160
1621,-0.240,0.155
1622,-0.225,0.145
1623,-0.205,0.135
1624,-0.205,0.130
1625,-0.200,0.130
1626,-0.205,0.125
1627,-0.220,0.130
1628,-0.240,0.130
1629,-0.265,0.155
1630,-0.285,0.175
1631,-0.285,0.185
1632,-0.285,0.190
1633,-0.280,0.190
1634,-0.250,0.170
1635,-0.235,0.165
1636,-0.235,0.155
1637,-0.220,0.130
1638,-0.205,0.120
1639,-0.160,0.085
1640,-0.140,0.095
1641,-0.130,0.110
1642,-0.170,0.135
1643,-0.225,0.175
1644,-0.280,0.210
1645,-0.320,0.220
1646,-0.320,0.210
1647,-0.320,0.205
1648,-0.275,0.180
1649,-0.240,0.175
1650,-0.200,0.185
1651,-0.160,0.185
1652,-0.145,0.195
1653,-0.095,0.185
1654,-0.020,0.155
1655,0.080,0.095
1656,0.210,0.030
1657,0.340,-0.050
1658,0.440,-0.130
1659,0.525,-0.220
1660,0.555,-0.270
1661,0.505,-0.330
1662,0.355,-0.355
1663,0.095,-0.345
1664,-0.190,-0.275
1665,-0.420,-0.175
1666,-0.575,-0.030
1667,-0.625,0.115
1668,-0.620,0.245
1669,-0.585,0.360
1670,-0.540,0.420
1671,-0.505,0.450
1672,-0.485,0.455
1673,-0.475,0.465
1674,-0.505,0.480
1675,-0.520,0.480
1676,-0.545,0.485
1677,-0.540,0.510
1678,-0.525,0.540
1679,-0.500,0.575
1680,-0.460,0.590
1681,-0.420,0.635
1682,-0.395,0.640
1683,-0.385,0.655
1684,-0.365,0.660
1685,-0.375,0.650
1686,-0.395,0.645
1687,-0.440,0.640
1688,-0.480,0.630
1689,-0.505,0.600
1690,-0.510,0.575
1691,-0.485,0.530
1692,-0.445,0.475
1693,-0.395,0.400
1694,-0.340,0.330
1695,-0.300,0.260
1696,-0.250,0.190
1697,-0.215,0.145
1698,-0.195,0.105
1699,-0.205,0.105
1700,-0.215,0.115
1701,-0.250,0.125
1702,-0.280,0.150
1703,-0.295,0.160
1704,-0.290,0.160
1705,-0.265,0.150
1706,-0.230,0.130
1707,-0.195,0.105
1708,-0.185,0.105
1709,-0.185,0.095
1710,-0.210,0.095
1711,-0.235,0.100
1712,-0.260,0.110
1713,-0.280,0.120
1714,-0.300,0.150
1715,-0.320,0.155
1716,-0.315,0.165
1717,-0.285,0.170
1718,-0.260,0.140
1719,-0.240,0.120
1720,-0.225,0.090
1721,-0.205,0.080
1722,-0.190,0.065
1723,-0.185,0.065
1724,-0.195,0.070
1725,-0.215,0.095
1726,-0.245,0.115
1727,-0.245,0.125
1728,-0.255,0.125
1729,-0.235,0.120
1730,-0.195,0.115
1731,-0.175,0.095
1732,-0.150,0.080
1733,-0.125,0.070
1734,-0.135,0.045
1735,-0.130,0.045
1736,-0.145,0.060
1737,-0.175,0.070
1738,-0.190,0.085
1739,-0.185,0.080
1740,-0.185,0.100
1741,-0.175,0.095
1742,-0.160,0.080
1743,-0.190,0.070
1744,-0.195,0.055
1745,-0.180,0.040
1746,-0.165,0.010
1747,-0.130,0.005
1748,-0.105,-0.005
1749,-0.095,0.000
1750,-0.100,0.010
1751,-0.100,0.000
1752,-0.105,0.005
1753,-0.090,0.005
1754,-0.100,0.005
1755,-0.105,0.005
1756,-0.105,-0.010
1757,-0.100,-0.025
1758,-0.075,-0.040
1759,-0.050,-0.060
1760,-0.035,-0.065
1761,-0.015,-0.070
1762,0.005,-0.075
1763,0.025,-0.095
1764,0.020,-0.080
1765,0.030,-0.080
1766,0.030,-0.080
1767,0.010,-0.075
1768,-0.005,-0.070
1769,-0.020,-0.080
1770,-0.025,-0.085
1771,-0.030,-0.070
1772,-0.020,-0.085
1773,0.000,-0.085
1774,0.035,-0.095
1775,0.070,-0.100
1776,0.085,-0.075
1777,0.075,-0.065
1778,0.040,-0.035
1779,-0.020,-0.010
1780,-0.065,-0.005
1781,-0.085,0.015
1782,-0.085,0.005
1783,-0.085,0.005
1784,-0.070,0.005
1785,-0.040,0.010
1786,-0.030,0.045
1787,-0.030,0.055
1788,-0.040,0.065
1789,-0.045,0.070
1790,-0.030,0.075
1791,-0.030,0.075
1792,-0.045,0.080
1793,-0.060,0.100
1794,-0.090,0.100
1795,-0.145,0.125
1796,-0.165,0.145
1797,-0.190,0.150
1798,-0.185,0.160
1799,-0.180,0.165
1800,-0.175,0.180
1801,-0.180,0.180
1802,-0.185,0.175
1803,-0.190,0.160
1804,-0.180,0.150
1805,-0.165,0.135
1806,-0.160,0.135
1807,-0.180,0.140
1808,-0.210,0.155
1809,-0.255,0.165
1810,-0.260,0.170
1811,-0.265,0.160
1812,-0.255,0.140
1813,-0.240,0.135
1814,-0.245,0.125
1815,-0.270,0.130
1816,-0.275,0.125
1817,-0.275,0.115
1818,-0.250,0.125
1819,-0.245,0.120
1820,-0.250,0.125
1821,-0.245,0.140
1822,-0.245,0.150
1823,-0.230,0.145
1824,-0.220,0.145
1825,-0.195,0.140
1826,-0.170,0.135
1827,-0.160,0.160
1828,-0.150,0.150
1829,-0.165,0.145
1830,-0.175,0.130
1831,-0.175,0.125
1832,-0.175,0.135
1833,-0.200,0.135
1834,-0.215,0.145
1835,-0.215,0.140
1836,-0.205,0.160
1837,-0.200,0.160
1838,-0.200,0.150
1839,-0.185,0.140
1840,-0.175,0.125
1841,-0.175,0.125
1842,-0.160,0.110
1843,-0.160,0.115
1844,-0.155,0.125
1845,-0.185,0.160
1846,-0.215,0.175
1847,-0.225,0.180
1848,-0.215,0.180
1849,-0.180,0.180
1850,-0.155,0.165
1851,-0.140,0.165
1852,-0.135,0.175
1853,-0.135,0.165
1854,-0.145,0.170
1855,-0.160,0.170
1856,-0.180,0.180
1857,-0.175,0.180
1858,-0.180,0.195
1859,-0.170,0.185
1860,-0.170,0.195
1861,-0.165,0.195
1862,-0.145,0.205
1863,-0.145,0.190
1864,-0.170,0.195
1865,-0.210,0.205
1866,-0.220,0.175
1867,-0.215,0.175
1868,-0.205,0.185
1869,-0.190,0.175
1870,-0.175,0.190
1871,-0.185,0.210
1872,-0.195,0.215
1873,-0.210,0.225
1874,-0.215,0.215
1875,-0.200,0.200
1876,-0.185,0.200
1877,-0.170,0.180
1878,-0.165,0.160
1879,-0.170,0.185
1880,-0.190,0.190
1881,-0.215,0.195
1882,-0.235,0.210
1883,-0.230,0.205
1884,-0.210,0.205
1885,-0.185,0.210
1886,-0.165,0.200
1887,-0.175,0.195
1888,-0.180,0.190
1889,-0.185,0.175
1890,-0.200,0.165
1891,-0.200,0.180
1892,-0.200,0.195
1893,-0.190,0.215
1894,-0.185,0.240
1895,-0.180,0.250
1896,-0.160,0.275
1897,-0.115,0.255
1898,-0.040,0.215
1899,0.060,0.135
1900,0.180,0.030
1901,0.315,-0.080
1902,0.440,-0.180
1903,0.530,-0.275
1904,0.560,-0.340
1905,0.515,-0.370
1906,0.330,-0.355
1907,0.065,-0.295
1908,-0.205,-0.170
1909,-0.405,-0.010
1910,-0.525,0.145
1911,-0.570,0.315
1912,-0.555,0.440
1913,-0.535,0.505
1914,-0.505,0.530
1915,-0.480,0.535
1916,-0.450,0.540
1917,-0.445,0.530
1918,-0.435,0.535
1919,-0.455,0.555
1920,-0.490,0.600
1921,-0.495,0.640
1922,-0.490,0.655
1923,-0.455,0.685
1924,-0.420,0.685
1925,-0.390,0.710
1926,-0.375,0.710
1927,-0.375,0.715
1928,-0.405,0.710
1929,-0.420,0.695
1930,-0.420,0.665
1931,-0.405,0.630
1932,-0.405,0.570
1933,-0.390,0.520
1934,-0.380,0.435
1935,-0.350,0.355
1936,-0.325,0.295
1937,-0.280,0.210
1938,-0.230,0.155
1939,-0.180,0.110
1940,-0.135,0.090
1941,-0.145,0.095
1942,-0.165,0.110
1943,-0.185,0.135
1944,-0.200,0.145
1945,-0.210,0.135
1946,-0.195,0.140
1947,-0.205,0.130
1948,-0.205,0.115
1949,-0.210,0.105
1950,-0.220,0.120
1951,-0.245,0.110
1952,-0.235,0.115
1953,-0.215,0.105
1954,-0.190,0.095
1955,-0.180,0.105
1956,-0.175,0.105
1957,-0.160,0.100
1958,-0.175,0.125
1959,-0.190,0.125
1960,-0.200,0.120
1961,-0.205,0.105
1962,-0.205,0.100
1963,-0.205,0.085
1964,-0.200,0.075
1965,-0.185,0.070
1966,-0.160,0.075
1967,-0.135,0.090
1968,-0.120,0.090
1969,-0.110,0.090
1970,-0.140,0.095
1971,-0.140,0.090
1972,-0.155,0.090
1973,-0.160,0.080
1974,-0.175,0.070
1975,-0.175,0.065
1976,-0.185,0.075
1977,-0.200,0.065
1978,-0.185,0.070
1979,-0.150,0.055
1980,-0.125,0.045
1981,-0.090,0.035
1982,-0.085,0.020
1983,-0.080,0.005
1984,-0.095,0.010
1985,-0.120,0.000
1986,-0.125,0.000
1987,-0.120,-0.025
1988,-0.100,-0.030
1989,-0.085,-0.040
1990,-0.050,-0.035
1991,-0.015,-0.065
1992,0.020,-0.085
1993,0.050,-0.070
1994,0.065,-0.085
1995,0.045,-0.085
1996,0.015,-0.085
1997,-0.020,-0.100
1998,-0.050,-0.100
1999,-0.045,-0.100
2000,-0.040,-0.120
2001,0.000,-0.120
2002,0.015,-0.115
2003,0.045,-0.105
2004,0.045,-0.110
2005,0.055,-0.095
2006,0.055,-0.100
2007,0.060,-0.115
2008,0.055,-0.105
2009,0.045,-0.115
2010,0.040,-0.110
2011,0.045,-0.100
2012,0.050,-0.085
2013,0.045,-0.075
2014,0.020,-0.040
2015,-0.005,-0.030
2016,-0.020,0.005
2017,-0.035,0.020
2018,-0.045,0.030
2019,-0.070,0.060
2020,-0.065,0.060
2021,-0.085,0.075
2022,-0.105,0.095
2023,-0.135,0.100
2024,-0.150,0.120
2025,-0.150,0.125
2026,-0.145,0.145
2027,-0.135,0.150
2028,-0.135,0.155
2029,-0.135,0.165
2030,-0.130,0.160
2031,-0.145,0.160
2032,-0.175,0.170
2033,-0.215,0.165
2034,-0.255,0.175
2035,-0.270,0.175
2036,-0.300,0.165
2037,-0.295,0.165
2038,-0.280,0.175
2039,-0.255,0.170
2040,-0.240,0.190
2041,-0.210,0.190
2042,-0.185,0.180
2043,-0.175,0.155
2044,-0.140,0.130
2045,-0.120,0.105
2046,-0.085,0.090
2047,-0.105,0.100
2048,-0.150,0.160
2049,-0.260,0.215
2050,-0.365,0.255
2051,-0.430,0.275
2052,-0.420,0.265
2053,-0.375,0.235
2054,-0.305,0.200
2055,-0.230,0.175
2056,-0.190,0.155
2057,-0.175,0.150
2058,-0.180,0.145
2059,-0.200,0.160
2060,-0.235,0.180
2061,-0.280,0.195
2062,-0.275,0.200
2063,-0.280,0.190
2064,-0.260,0.175
2065,-0.240,0.170
2066,-0.235,0.160
2067,-0.240,0.150
2068,-0.250,0.155
2069,-0.265,0.125
2070,-0.280,0.105
2071,-0.280,0.080
2072,-0.265,0.090
2073,-0.245,0.095
2074,-0.240,0.120
2075,-0.260,0.140
2076,-0.270,0.165
2077,-0.275,0.160
2078,-0.265,0.135
2079,-0.225,0.110
2080,-0.195,0.115
2081,-0.175,0.095
2082,-0.195,0.115
2083,-0.225,0.120
2084,-0.265,0.160
2085,-0.285,0.170
2086,-0.285,0.170
2087,-0.275,0.170
2088,-0.235,0.180
2089,-0.220,0.175
2090,-0.210,0.155
2091,-0.215,0.160
2092,-0.210,0.140
2093,-0.195,0.125
2094,-0.190,0.110
2095,-0.185,0.090
2096,-0.170,0.090
2097,-0.175,0.080
2098,-0.195,0.100
2099,-0.210,0.125
2100,-0.220,0.140
2101,-0.260,0.165
2102,-0.285,0.175
2103,-0.285,0.180
2104,-0.270,0.165
2105,-0.245,0.150
2106,-0.225,0.150
2107,-0.225,0.160
2108,-0.230,0.165
2109,-0.230,0.195
2110,-0.215,0.200
2111,-0.220,0.195
2112,-0.215,0.205
2113,-0.230,0.200
2114,-0.245,0.210
2115,-0.255,0.195
2116,-0.255,0.195
2117,-0.255,0.190
2118,-0.240,0.175
2119,-0.230,0.155
2120,-0.235,0.165
2121,-0.230,0.170
2122,-0.220,0.190
2123,-0.230,0.190
2124,-0.245,0.215
2125,-0.260,0.210
2126,-0.270,0.215
2127,-0.255,0.205
2128,-0.255,0.195
2129,-0.235,0.175
2130,-0.220,0.170
2131,-0.210,0.165
2132,-0.210,0.170
2133,-0.200,0.180
2134,-0.220,0.180
2135,-0.220,0.185
2136,-0.225,0.200
2137,-0.225,0.220
2138,-0.250,0.230
2139,-0.250,0.225
2140,-0.265,0.200
2141,-0.265,0.195
2142,-0.255,0.180
2143,-0.225,0.160
2144,-0.205,0.160
2145,-0.195,0.180
2146,-0.190,0.200
2147,-0.190,0.230
2148,-0.190,0.255
2149,-0.180,0.275
2150,-0.165,0.280
2151,-0.120,0.290
2152,-0.080,0.240
2153,-0.020,0.180
2154,0.050,0.085
2155,0.160,-0.035
2156,0.250,-0.165
2157,0.355,-0.260
2158,0.380,-0.350
2159,0.335,-0.390
2160,0.195,-0.385
2161,-0.040,-0.330
2162,-0.290,-0.240
2163,-0.485,-0.085
2164,-0.590,0.080
2165,-0.615,0.265
2166,-0.590,0.410
2167,-0.540,0.510
2168,-0.500,0.560
2169,-0.465,0.570
2170,-0.435,0.545
2171,-0.415,0.535
2172,-0.400,0.525
2173,-0.390,0.530
2174,-0.395,0.535
2175,-0.415,0.590
2176,-0.440,0.625
2177,-0.480,0.655
2178,-0.500,0.675
2179,-0.505,0.700
2180,-0.515,0.710
2181,-0.515,0.730
2182,-0.510,0.730
2183,-0.490,0.730
2184,-0.465,0.710
2185,-0.415,0.675
2186,-0.390,0.615
2187,-0.370,0.555
2188,-0.350,0.495
2189,-0.340,0.425
2190,-0.315,0.365
2191,-0.315,0.290
2192,-0.310,0.235
2193,-0.285,0.195
2194,-0.280,0.165
2195,-0.260,0.145
2196,-0.265,0.135
2197,-0.265,0.130
2198,-0.260,0.130
2199,-0.250,0.130
2200,-0.240,0.115
2201,-0.235,0.115
2202,-0.240,0.090
2203,-0.225,0.080
2204,-0.210,0.070
2205,-0.185,0.065
2206,-0.160,0.070
2207,-0.155,0.070
2208,-0.160,0.085
2209,-0.165,0.100
2210,-0.185,0.125
2211,-0.235,0.125
2212,-0.285,0.145
2213,-0.335,0.130
2214,-0.330,0.130
2215,-0.310,0.095
2216,-0.285,0.090
2217,-0.240,0.085
2218,-0.210,0.080
2219,-0.185,0.080
2220,-0.170,0.085
2221,-0.175,0.090
2222,-0.175,0.085
2223,-0.180,0.085
2224,-0.185,0.070
2225,-0.205,0.085
2226,-0.220,0.085
2227,-0.235,0.075
2228,-0.250,0.085
2229,-0.230,0.075
2230,-0.225,0.090
2231,-0.200,0.080
2232,-0.185,0.070
2233,-0.175,0.065
2234,-0.150,0.045
2235,-0.115,0.020
2236,-0.090,-0.005
2237,-0.055,-0.020
2238,-0.065,-0.015
2239,-0.125,0.015
2240,-0.185,0.030
2241,-0.230,0.035
2242,-0.250,0.050
2243,-0.235,0.050
2244,-0.200,0.025
2245,-0.145,-0.005
2246,-0.105,-0.025
2247,-0.065,-0.040
2248,-0.045,-0.065
2249,-0.055,-0.080
2250,-0.060,-0.100
2251,-0.030,-0.135
2252,-0.010,-0.140
2253,0.020,-0.140
2254,0.025,-0.135
2255,0.035,-0.110
2256,0.020,-0.105
2257,-0.020,-0.085
2258,-0.050,-0.075
2259,-0.075,-0.070
2260,-0.080,-0.085
2261,-0.070,-0.105
2262,-0.040,-0.130
2263,-0.020,-0.150
2264,0.015,-0.165
2265,0.050,-0.165
2266,0.075,-0.150
2267,0.075,-0.130
2268,0.040,-0.110
2269,0.025,-0.080
2270,0.010,-0.080
2271,-0.010,-0.070
2272,-0.015,-0.045
2273,-0.035,-0.030
2274,-0.065,-0.025
2275,-0.105,-0.005
2276,-0.135,0.030
2277,-0.130,0.025
2278,-0.130,0.045
2279,-0.125,0.055
2280,-0.105,0.075
2281,-0.095,0.095
2282,-0.100,0.095
2283,-0.120,0.110
2284,-0.120,0.105
2285,-0.125,0.110
2286,-0.115,0.085
2287,-0.100,0.075
2288,-0.090,0.075
2289,-0.095,0.110
2290,-0.135,0.145
2291,-0.205,0.200
2292,-0.280,0.215
2293,-0.325,0.225
2294,-0.330,0.210
2295,-0.310,0.210
2296,-0.280,0.175
2297,-0.250,0.160
2298,-0.225,0.150
2299,-0.215,0.140
2300,-0.215,0.145
2301,-0.200,0.150
2302,-0.215,0.145
2303,-0.190,0.140
2304,-0.160,0.120
2305,-0.110,0.130
2306,-0.095,0.135
2307,-0.145,0.175
2308,-0.215,0.205
2309,-0.325,0.240
2310,-0.395,0.225
2311,-0.405,0.205
2312,-0.375,0.185
2313,-0.310,0.180
2314,-0.255,0.175
2315,-0.210,0.165
2316,-0.190,0.165
2317,-0.180,0.165
2318,-0.165,0.160
2319,-0.190,0.160
2320,-0.205,0.155
2321,-0.210,0.145
2322,-0.250,0.165
2323,-0.260,0.160
2324,-0.280,0.160
2325,-0.275,0.155
2326,-0.265,0.170
2327,-0.255,0.160
2328,-0.225,0.155
2329,-0.195,0.160
2330,-0.190,0.170
2331,-0.200,0.155
2332,-0.220,0.170
2333,-0.215,0.155
2334,-0.220,0.150
2335,-0.235,0.150
2336,-0.230,0.150
2337,-0.210,0.155
2338,-0.200,0.160
2339,-0.205,0.175
2340,-0.215,0.175
2341,-0.215,0.185
2342,-0.220,0.190
2343,-0.220,0.175
2344,-0.210,0.165
2345,-0.215,0.145
2346,-0.220,0.145
2347,-0.240,0.155
2348,-0.250,0.160
2349,-0.250,0.165
2350,-0.250,0.170
2351,-0.245,0.180
2352,-0.235,0.180
2353,-0.225,0.170
2354,-0.210,0.165
2355,-0.195,0.160
2356,-0.195,0.145
2357,-0.195,0.150
2358,-0.210,0.155
2359,-0.230,0.160
2360,-0.245,0.140
2361,-0.255,0.150
2362,-0.255,0.165
2363,-0.265,0.170
2364,-0.250,0.185
2365,-0.245,0.185
2366,-0.250,0.175
2367,-0.240,0.165
2368,-0.230,0.150
2369,-0.215,0.145
2370,-0.215,0.130
2371,-0.225,0.135
2372,-0.235,0.140
2373,-0.240,0.145
2374,-0.250,0.160
2375,-0.230,0.175
2376,-0.245,0.180
2377,-0.235,0.170
2378,-0.250,0.165
2379,-0.260,0.160
2380,-0.265,0.155
2381,-0.245,0.145
2382,-0.235,0.135
2383,-0.240,0.135
2384,-0.250,0.145
2385,-0.245,0.145
2386,-0.265,0.160
2387,-0.275,0.165
2388,-0.255,0.175
2389,-0.235,0.160
2390,-0.220,0.165
2391,-0.225,0.160
2392,-0.230,0.160
2393,-0.245,0.165
2394,-0.250,0.145
2395,-0.250,0.145
2396,-0.265,0.150
2397,-0.285,0.150
2398,-0.300,0.170
2399,-0.290,0.165
2400,-0.280,0.170
2401,-0.245,0.170
2402,-0.240,0.170
2403,-0.245,0.160
2404,-0.240,0.145
2405,-0.245,0.145
2406,-0.240,0.130
2407,-0.250,0.135
2408,-0.260,0.145
2409,-0.260,0.145
2410,-0.260,0.155
2411,-0.245,0.160
2412,-0.245,0.165
2413,-0.250,0.160
2414,-0.240,0.155
2415,-0.265,0.155
2416,-0.260,0.150
2417,-0.255,0.130
2418,-0.250,0.120
2419,-0.235,0.115
2420,-0.225,0.130
2421,-0.235,0.130
2422,-0.250,0.145
2423,-0.270,0.160
2424,-0.275,0.160
2425,-0.265,0.155
2426,-0.230,0.150
2427,-0.215,0.135
2428,-0.205,0.140
2429,-0.220,0.140
2430,-0.235,0.140
2431,-0.270,0.140
2432,-0.270,0.135
2433,-0.260,0.130
2434,-0.255,0.135
2435,-0.240,0.140
2436,-0.245,0.170
2437,-0.250,0.185
2438,-0.260,0.165
2439,-0.250,0.155
2440,-0.255,0.165
2441,-0.250,0.165
2442,-0.235,0.155
2443,-0.230,0.140
2444,-0.245,0.145
2445,-0.240,0.160
2446,-0.255,0.170
2447,-0.250,0.180
2448,-0.245,0.190
2449,-0.240,0.180
2450,-0.225,0.165
2451,-0.225,0.145
2452,-0.200,0.145
2453,-0.210,0.145
2454,-0.205,0.130
2455,-0.245,0.145
2456,-0.270,0.160
2457,-0.295,0.165
2458,-0.300,0.180
2459,-0.290,0.155
2460,-0.255,0.175
2461,-0.235,0.170
2462,-0.220,0.170
2463,-0.225,0.165
2464,-0.220,0.160
2465,-0.240,0.150
2466,-0.240,0.150
2467,-0.225,0.140
2468,-0.235,0.145
2469,-0.240,0.145
2470,-0.255,0.160
2471,-0.240,0.160
2472,-0.255,0.165
2473,-0.250,0.170
2474,-0.245,0.165
2475,-0.255,0.175
2476,-0.285,0.180
2477,-0.300,0.170
2478,-0.300,0.165
2479,-0.285,0.160
2480,-0.275,0.165
2481,-0.255,0.145
2482,-0.240,0.155
2483,-0.230,0.155
2484,-0.230,0.155
2485,-0.240,0.170
2486,-0.250,0.170
2487,-0.260,0.180
2488,-0.250,0.175
2489,-0.250,0.160
2490,-0.245,0.140
2491,-0.250,0.125
2492,-0.250,0.130
2493,-0.240,0.130
2494,-0.240,0.145
2495,-0.235,0.150
2496,-0.245,0.170
2497,-0.250,0.180
2498,-0.250,0.175
2499,-0.255,0.170
2500,-0.250,0.150
2501,-0.230,0.150
2502,-0.215,0.120
2503,-0.210,0.135
2504,-0.230,0.145
2505,-0.260,0.165
2506,-0.275,0.165
2507,-0.295,0.165
2508,-0.285,0.185
2509,-0.265,0.170
2510,-0.255,0.165
2511,-0.240,0.160
2512,-0.230,0.150
2513,-0.240,0.160
2514,-0.250,0.145
2515,-0.270,0.155
2516,-0.285,0.160
2517,-0.285,0.145
2518,-0.280,0.155
2519,-0.260,0.150
2520,-0.240,0.160
2521,-0.200,0.160
2522,-0.190,0.140
2523,-0.200,0.155
2524,-0.220,0.155
2525,-0.245,0.150
2526,-0.270,0.130
2527,-0.270,0.140
2528,-0.265,0.150
2529,-0.255,0.150
2530,-0.255,0.170
2531,-0.285,0.180
2532,-0.280,0.190
2533,-0.270,0.170
2534,-0.250,0.170
2535,-0.225,0.150
2536,-0.210,0.130
2537,-0.190,0.125
2538,-0.190,0.125
2539,-0.215,0.140
2540,-0.260,0.145
2541,-0.280,0.140
2542,-0.290,0.150
2543,-0.295,0.155
2544,-0.295,0.175
2545,-0.270,0.160
2546,-0.255,0.165
2547,-0.265,0.175
2548,-0.265,0.170
2549,-0.270,0.160
2550,-0.295,0.150
2551,-0.290,0.140
2552,-0.285,0.140
2553,-0.275,0.125
2554,-0.255,0.125
2555,-0.215,0.130
2556,-0.190,0.120
2557,-0.160,0.120
2558,-0.155,0.125
2559,-0.175,0.125
2560,-0.185,0.130
2561,-0.220,0.135
2562,-0.250,0.155
2563,-0.285,0.165
2564,-0.305,0.170
2565,-0.310,0.175
2566,-0.320,0.175
2567,-0.305,0.170
2568,-0.275,0.170
2569,-0.260,0.165
2570,-0.240,0.150
2571,-0.240,0.145
2572,-0.230,0.145
2573,-0.245,0.135
2574,-0.235,0.120
2575,-0.220,0.110
2576,-0.205,0.090
2577,-0.180,0.105
2578,-0.180,0.110
2579,-0.165,0.145
2580,-0.205,0.160
2581,-0.235,0.180
2582,-0.260,0.180
2583,-0.280,0.175
2584,-0.285,0.175
2585,-0.295,0.150
2586,-0.270,0.140
2587,-0.270,0.130
2588,-0.255,0.115
2589,-0.240,0.105
2590,-0.235,0.125
2591,-0.205,0.140
2592,-0.205,0.145
2593,-0.205,0.160
2594,-0.220,0.155
2595,-0.225,0.155
2596,-0.240,0.150
2597,-0.250,0.140
2598,-0.240,0.125
2599,-0.245,0.110
2600,-0.230,0.130
2601,-0.225,0.125
2602,-0.220,0.140
2603,-0.230,0.145
2604,-0.245,0.160
2605,-0.255,0.155
2606,-0.260,0.150
2607,-0.245,0.160
2608,-0.235,0.140
2609,-0.225,0.130
2610,-0.225,0.125
2611,-0.225,0.130
2612,-0.210,0.130
2613,-0.225,0.130
2614,-0.235,0.135
2615,-0.235,0.155
2616,-0.235,0.150
2617,-0.240,0.170
2618,-0.250,0.165
2619,-0.240,0.150
2620,-0.240,0.135
2621,-0.220,0.130
2622,-0.220,0.115
2623,-0.260,0.125
2624,-0.275,0.130
2625,-0.295,0.140
2626,-0.305,0.155
2627,-0.310,0.160
2628,-0.275,0.160
2629,-0.245,0.145
2630,-0.230,0.135
2631,-0.200,0.125
2632,-0.185,0.115
2633,-0.190,0.120
2634,-0.185,0.125
2635,-0.185,0.115
2636,-0.210,0.120
2637,-0.200,0.115
2638,-0.190,0.120
2639,-0.195,0.135
2640,-0.200,0.150
2641,-0.215,0.175
2642,-0.260,0.180
2643,-0.285,0.195
2644,-0.290,0.190
2645,-0.290,0.165
2646,-0.270,0.140
2647,-0.255,0.140
2648,-0.240,0.130
2649,-0.235,0.140
2650,-0.235,0.155
2651,-0.245,0.160
2652,-0.240,0.150
2653,-0.225,0.155
2654,-0.210,0.150
2655,-0.220,0.150
2656,-0.215,0.140
2657,-0.215,0.125
2658,-0.220,0.140
2659,-0.220,0.140
2660,-0.230,0.135
2661,-0.235,0.135
2662,-0.230,0.130
2663,-0.215,0.140
2664,-0.220,0.145
2665,-0.200,0.155
2666,-0.215,0.155
2667,-0.220,0.155
2668,-0.225,0.155
2669,-0.245,0.135
2670,-0.235,0.115
2671,-0.215,0.105
2672,-0.190,0.100
2673,-0.185,0.100
2674,-0.190,0.130
2675,-0.220,0.155
2676,-0.235,0.165
2677,-0.255,0.170
2678,-0.245,0.160
2679,-0.235,0.155
2680,-0.255,0.145
2681,-0.255,0.140
2682,-0.255,0.130
2683,-0.250,0.120
2684,-0.230,0.125
2685,-0.220,0.115
2686,-0.215,0.140
2687,-0.205,0.145
2688,-0.220,0.165
2689,-0.240,0.175
2690,-0.250,0.175
2691,-0.265,0.165
2692,-0.260,0.160
2693,-0.225,0.130
2694,-0.215,0.120
2695,-0.210,0.105
2696,-0.200,0.110
2697,-0.210,0.130
2698,-0.230,0.130
2699,-0.240,0.160
2700,-0.250,0.165
2701,-0.255,0.170
2702,-0.235,0.160
2703,-0.225,0.140
2704,-0.205,0.120
2705,-0.205,0.130
2706,-0.225,0.125
2707,-0.220,0.120
2708,-0.225,0.125
2709,-0.215,0.120
2710,-0.225,0.130
2711,-0.220,0.125
2712,-0.225,0.150
2713,-0.230,0.155
2714,-0.225,0.170
2715,-0.245,0.160
2716,-0.265,0.160
2717,-0.270,0.130
2718,-0.250,0.120
2719,-0.235,0.135
2720,-0.230,0.130
2721,-0.225,0.125
2722,-0.225,0.140
2723,-0.235,0.150
2724,-0.235,0.160
2725,-0.245,0.160
2726,-0.245,0.155
2727,-0.250,0.145
2728,-0.225,0.145
2729,-0.215,0.120
2730,-0.200,0.110
2731,-0.200,0.115
2732,-0.190,0.130
2733,-0.220,0.120
2734,-0.245,0.145
2735,-0.255,0.140
2736,-0.250,0.140
2737,-0.230,0.145
2738,-0.200,0.125
2739,-0.175,0.115
2740,-0.160,0.110
2741,-0.170,0.120
2742,-0.205,0.120
2743,-0.240,0.140
2744,-0.265,0.145
2745,-0.270,0.165
2746,-0.265,0.155
2747,-0.240,0.155
2748,-0.220,0.180
2749,-0.200,0.170
2750,-0.180,0.155
2751,-0.160,0.160
2752,-0.145,0.150
2753,-0.155,0.140
2754,-0.120,0.120
2755,-0.105,0.110
2756,-0.120,0.120
2757,-0.145,0.150
2758,-0.185,0.155
2759,-0.205,0.170
2760,-0.200,0.170
2761,-0.200,0.160
2762,-0.180,0.150
2763,-0.165,0.135
2764,-0.175,0.130
2765,-0.170,0.115
2766,-0.175,0.130
2767,-0.170,0.105
2768,-0.180,0.085
2769,-0.195,0.100
2770,-0.195,0.095
2771,-0.190,0.110
2772,-0.180,0.095
2773,-0.180,0.110
2774,-0.180,0.100
2775,-0.175,0.105
2776,-0.190,0.095
2777,-0.200,0.085
2778,-0.200,0.095
2779,-0.205,0.105
2780,-0.210,0.105
2781,-0.210,0.105
2782,-0.190,0.135
2783,-0.200,0.140
2784,-0.210,0.155
2785,-0.205,0.160
2786,-0.220,0.155
2787,-0.240,0.155
2788,-0.245,0.145
2789,-0.260,0.140
2790,-0.265,0.120
2791,-0.280,0.130
2792,-0.290,0.130
2793,-0.270,0.130
2794,-0.250,0.145
2795,-0.240,0.155
2796,-0.230,0.160
2797,-0.230,0.165
2798,-0.235,0.165
2799,-0.245,0.160
2800,-0.260,0.175
2801,-0.260,0.165
2802,-0.260,0.150
2803,-0.245,0.135
2804,-0.245,0.125
2805,-0.215,0.135
2806,-0.210,0.140
2807,-0.210,0.155
2808,-0.215,0.165
2809,-0.230,0.170
2810,-0.235,0.160
2811,-0.230,0.160
2812,-0.220,0.145
2813,-0.210,0.135
2814,-0.200,0.125
2815,-0.220,0.135
2816,-0.235,0.150
2817,-0.255,0.160
2818,-0.250,0.195
2819,-0.240,0.210
2820,-0.220,0.235
2821,-0.195,0.255
2822,-0.170,0.250
2823,-0.160,0.240
2824,-0.115,0.195
2825,-0.075,0.085
2826,-0.015,-0.015
2827,0.075,-0.135
2828,0.165,-0.265
2829,0.260,-0.385
2830,0.290,-0.465
2831,0.240,-0.505
2832,0.090,-0.475
2833,-0.115,-0.390
2834,-0.310,-0.240
2835,-0.455,-0.040
2836,-0.525,0.155
2837,-0.545,0.310
2838,-0.535,0.425
2839,-0.520,0.490
2840,-0.485,0.505
2841,-0.460,0.505
2842,-0.440,0.505
2843,-0.430,0.515
2844,-0.445,0.550
2845,-0.460,0.565
2846,-0.475,0.600
2847,-0.470,0.615
2848,-0.455,0.640
2849,-0.435,0.650
2850,-0.430,0.685
2851,-0.430,0.710
2852,-0.450,0.715
2853,-0.440,0.730
2854,-0.440,0.735
2855,-0.435,0.730
2856,-0.425,0.710
2857,-0.410,0.685
2858,-0.415,0.635
2859,-0.425,0.575
2860,-0.415,0.510
2861,-0.395,0.430
2862,-0.380,0.350
2863,-0.360,0.305
2864,-0.330,0.250
2865,-0.305,0.195
2866,-0.280,0.155
2867,-0.245,0.140
2868,-0.220,0.130
2869,-0.200,0.125
2870,-0.205,0.130
2871,-0.225,0.140
2872,-0.240,0.135
2873,-0.255,0.115
2874,-0.245,0.090
2875,-0.240,0.080
2876,-0.225,0.075
2877,-0.215,0.090
2878,-0.225,0.095
2879,-0.240,0.120
2880,-0.245,0.130
2881,-0.260,0.140
2882,-0.280,0.125
2883,-0.275,0.120
2884,-0.275,0.120
2885,-0.260,0.090
2886,-0.250,0.085
2887,-0.235,0.080
2888,-0.225,0.070
2889,-0.205,0.080
2890,-0.200,0.080
2891,-0.195,0.095
2892,-0.195,0.105
2893,-0.195,0.095
2894,-0.195,0.095
2895,-0.205,0.100
2896,-0.220,0.090
2897,-0.225,0.075
2898,-0.215,0.055
2899,-0.205,0.035
2900,-0.180,0.020
2901,-0.165,0.030
2902,-0.175,0.050
2903,-0.200,0.085
2904,-0.235,0.120
2905,-0.265,0.110
2906,-0.250,0.080
2907,-0.230,0.060
2908,-0.200,0.030
2909,-0.175,0.030
2910,-0.155,0.010
2911,-0.150,-0.010
2912,-0.155,-0.025
2913,-0.135,-0.020
2914,-0.120,-0.020
2915,-0.100,-0.020
2916,-0.100,-0.015
2917,-0.105,0.000
2918,-0.125,0.000
2919,-0.150,-0.020
2920,-0.135,-0.025
2921,-0.120,-0.055
2922,-0.085,-0.070
2923,-0.070,-0.100
2924,-0.055,-0.105
2925,-0.040,-0.110
2926,-0.050,-0.100
2927,-0.040,-0.095
2928,-0.045,-0.090
2929,-0.035,-0.090
2930,-0.025,-0.090
2931,-0.025,-0.105
2932,-0.030,-0.125
2933,-0.035,-0.140
2934,-0.045,-0.140
2935,-0.045,-0.125
2936,-0.065,-0.120
2937,-0.060,-0.100
2938,-0.060,-0.100
2939,-0.065,-0.105
2940,-0.040,-0.095
2941,-0.010,-0.095
2942,0.015,-0.105
2943,0.030,-0.100
2944,0.040,-0.090
2945,0.010,-0.060
2946,-0.015,-0.050
2947,-0.050,-0.030
2948,-0.080,-0.015
2949,-0.085,-0.015
2950,-0.090,-0.005
2951,-0.070,0.000
2952,-0.055,0.015
2953,-0.050,0.040
2954,-0.050,0.060
2955,-0.080,0.075
2956,-0.080,0.080
2957,-0.080,0.060
2958,-0.055,0.065
2959,-0.060,0.090
2960,-0.080,0.090
2961,-0.110,0.115
2962,-0.140,0.120
2963,-0.145,0.150
2964,-0.135,0.145
2965,-0.125,0.155
2966,-0.120,0.160
2967,-0.135,0.160
2968,-0.140,0.165
2969,-0.185,0.165
2970,-0.215,0.160
2971,-0.235,0.145
2972,-0.245,0.140
2973,-0.245,0.140
2974,-0.235,0.130
2975,-0.240,0.130
2976,-0.250,0.130
2977,-0.260,0.125
2978,-0.245,0.120
2979,-0.230,0.110
2980,-0.200,0.110
2981,-0.200,0.115
2982,-0.230,0.125
2983,-0.265,0.120
2984,-0.285,0.135
2985,-0.290,0.125
2986,-0.275,0.130
2987,-0.255,0.130
2988,-0.220,0.125
2989,-0.190,0.140
2990,-0.170,0.130
2991,-0.160,0.140
2992,-0.145,0.145
2993,-0.150,0.135
2994,-0.160,0.135
2995,-0.165,0.125
2996,-0.175,0.115
2997,-0.155,0.120
2998,-0.155,0.120
2999,-0.145,0.125
3000,-0.150,0.135
3001,-0.145,0.135
3002,-0.150,0.135
3003,-0.150,0.135
3004,-0.155,0.125
3005,-0.170,0.115
3006,-0.170,0.110
3007,-0.190,0.110
3008,-0.210,0.125
3009,-0.220,0.135
3010,-0.230,0.135
3011,-0.200,0.140
3012,-0.185,0.160
3013,-0.160,0.170
3014,-0.160,0.180
3015,-0.175,0.190
3016,-0.195,0.200
3017,-0.195,0.205
3018,-0.185,0.190
3019,-0.190,0.185
3020,-0.175,0.185
3021,-0.175,0.185
3022,-0.180,0.185
3023,-0.185,0.185
3024,-0.185,0.195
3025,-0.175,0.200
3026,-0.180,0.200
3027,-0.170,0.170
3028,-0.150,0.160
3029,-0.145,0.150
3030,-0.145,0.155
3031,-0.155,0.155
3032,-0.185,0.175
3033,-0.210,0.190
3034,-0.200,0.195
3035,-0.190,0.200
3036,-0.175,0.195
3037,-0.155,0.195
3038,-0.140,0.180
3039,-0.140,0.170
3040,-0.140,0.170
3041,-0.160,0.170
3042,-0.190,0.170
3043,-0.225,0.185
3044,-0.245,0.205
3045,-0.250,0.205
3046,-0.235,0.195
3047,-0.220,0.200
3048,-0.205,0.200
3049,-0.180,0.200
3050,-0.145,0.190
3051,-0.155,0.190
3052,-0.150,0.180
3053,-0.165,0.180
3054,-0.175,0.185
3055,-0.190,0.215
3056,-0.190,0.245
3057,-0.215,0.270
3058,-0.195,0.295
3059,-0.170,0.300
3060,-0.145,0.275
3061,-0.105,0.220
3062,-0.040,0.100
3063,0.015,-0.030
3064,0.095,-0.180
3065,0.185,-0.310
3066,0.245,-0.415
3067,0.280,-0.500
3068,0.225,-0.515
3069,0.115,-0.510
3070,-0.055,-0.445
3071,-0.220,-0.335
3072,-0.360,-0.175
3073,-0.440,0.015
3074,-0.465,0.220
3075,-0.495,0.395
3076,-0.480,0.525
3077,-0.460,0.580
3078,-0.420,0.590
3079,-0.385,0.580
3080,-0.365,0.545
3081,-0.360,0.560
3082,-0.375,0.565
3083,-0.405,0.600
3084,-0.440,0.640
3085,-0.450,0.680
3086,-0.425,0.715
3087,-0.400,0.745
3088,-0.365,0.755
3089,-0.375,0.780
3090,-0.390,0.795
3091,-0.420,0.785
3092,-0.435,0.775
3093,-0.425,0.760
3094,-0.420,0.720
3095,-0.410,0.675
3096,-0.370,0.600
3097,-0.325,0.540
3098,-0.305,0.470
3099,-0.290,0.395
3100,-0.280,0.340
3101,-0.280,0.280
3102,-0.295,0.235
3103,-0.305,0.190
3104,-0.310,0.150
3105,-0.285,0.140
3106,-0.250,0.130
3107,-0.210,0.120
3108,-0.190,0.110
3109,-0.160,0.110
3110,-0.160,0.105
3111,-0.165,0.115
3112,-0.185,0.120
3113,-0.215,0.110
3114,-0.225,0.105
3115,-0.250,0.090
3116,-0.250,0.095
3117,-0.240,0.090
3118,-0.235,0.095
3119,-0.220,0.100
3120,-0.215,0.120
3121,-0.200,0.105
3122,-0.200,0.105
3123,-0.195,0.100
3124,-0.185,0.095
3125,-0.180,0.075
3126,-0.180,0.060
3127,-0.175,0.045
3128,-0.190,0.040
3129,-0.170,0.040
3130,-0.160,0.060
3131,-0.170,0.080
3132,-0.190,0.095
3133,-0.210,0.110
3134,-0.215,0.095
3135,-0.235,0.090
3136,-0.220,0.060
3137,-0.200,0.045
3138,-0.185,0.030
3139,-0.175,0.025
3140,-0.175,0.025
3141,-0.185,0.035
3142,-0.190,0.035
3143,-0.190,0.045
3144,-0.185,0.050
3145,-0.185,0.045
3146,-0.160,0.010
3147,-0.145,0.005
3148,-0.130,-0.005
3149,-0.135,-0.010
3150,-0.135,-0.025
3151,-0.130,-0.030
3152,-0.130,-0.050
3153,-0.125,-0.060
3154,-0.115,-0.070
3155,-0.100,-0.080
3156,-0.080,-0.075
3157,-0.080,-0.085
3158,-0.070,-0.100
3159,-0.070,-0.105
3160,-0.055,-0.110
3161,-0.065,-0.130
3162,-0.060,-0.130
3163,-0.060,-0.135
3164,-0.060,-0.155
3165,-0.055,-0.165
3166,-0.030,-0.165
3167,-0.015,-0.165
3168,0.015,-0.170
3169,0.020,-0.160
3170,0.030,-0.160
3171,0.010,-0.155
3172,-0.025,-0.145
3173,-0.040,-0.140
3174,-0.055,-0.150
3175,-0.060,-0.125
3176,-0.065,-0.120
3177,-0.055,-0.100
3178,-0.060,-0.095
3179,-0.035,-0.075
3180,-0.035,-0.045
3181,-0.030,-0.025
3182,-0.040,-0.020
3183,-0.040,0.000
3184,-0.055,0.005
3185,-0.095,0.020
3186,-0.115,0.030
3187,-0.130,0.035
3188,-0.140,0.050
3189,-0.140,0.065
3190,-0.130,0.095
3191,-0.135,0.120
3192,-0.145,0.140
3193,-0.135,0.145
3194,-0.140,0.155
3195,-0.170,0.155
3196,-0.165,0.155
3197,-0.175,0.160
3198,-0.190,0.160
3199,-0.200,0.165
3200,-0.210,0.170
3201,-0.220,0.170
3202,-0.230,0.170
3203,-0.230,0.170
3204,-0.210,0.175
3205,-0.190,0.185
3206,-0.200,0.185
3207,-0.225,0.205
3208,-0.250,0.210
3209,-0.270,0.225
3210,-0.285,0.205
3211,-0.265,0.185
3212,-0.250,0.160
3213,-0.215,0.150
3214,-0.195,0.145
3215,-0.180,0.150
3216,-0.145,0.165
3217,-0.145,0.165
3218,-0.140,0.150
3219,-0.140,0.170
3220,-0.160,0.170
3221,-0.210,0.175
3222,-0.240,0.190
3223,-0.285,0.190
3224,-0.290,0.190
3225,-0.275,0.180
3226,-0.255,0.185
3227,-0.235,0.185
3228,-0.200,0.185
3229,-0.185,0.175
3230,-0.155,0.170
3231,-0.150,0.160
3232,-0.140,0.150
3233,-0.145,0.135
3234,-0.180,0.150
3235,-0.225,0.170
3236,-0.245,0.180
3237,-0.275,0.185
3238,-0.260,0.180
3239,-0.240,0.160
3240,-0.225,0.165
3241,-0.205,0.180
3242,-0.190,0.180
3243,-0.185,0.165
3244,-0.205,0.160
3245,-0.180,0.150
3246,-0.180,0.145
3247,-0.190,0.145
3248,-0.195,0.145
3249,-0.205,0.155
3250,-0.205,0.155
3251,-0.210,0.160
3252,-0.200,0.170
3253,-0.185,0.180
3254,-0.185,0.180
3255,-0.215,0.180
3256,-0.220,0.165
3257,-0.225,0.170
3258,-0.225,0.150
3259,-0.230,0.150
3260,-0.245,0.155
3261,-0.240,0.160
3262,-0.235,0.165
3263,-0.220,0.170
3264,-0.200,0.175
3265,-0.195,0.185
3266,-0.215,0.190
3267,-0.235,0.195
3268,-0.240,0.190
3269,-0.250,0.170
3270,-0.245,0.140
3271,-0.230,0.145
3272,-0.235,0.155
3273,-0.225,0.155
3274,-0.245,0.160
3275,-0.230,0.180
3276,-0.230,0.175
3277,-0.230,0.180
3278,-0.230,0.175
3279,-0.235,0.175
3280,-0.235,0.175
3281,-0.245,0.170
3282,-0.250,0.155
3283,-0.260,0.160
3284,-0.255,0.155
3285,-0.260,0.165
3286,-0.240,0.160
3287,-0.225,0.160
3288,-0.205,0.170
3289,-0.205,0.170
3290,-0.210,0.170
3291,-0.230,0.175
3292,-0.235,0.180
3293,-0.260,0.175
3294,-0.275,0.165
3295,-0.280,0.160
3296,-0.280,0.160
3297,-0.265,0.155
3298,-0.235,0.160
3299,-0.225,0.175
3300,-0.205,0.170
3301,-0.210,0.170
3302,-0.200,0.155
3303,-0.210,0.155
3304,-0.210,0.160
3305,-0.225,0.155
3306,-0.250,0.150
3307,-0.260,0.150
3308,-0.270,0.150
3309,-0.260,0.145
3310,-0.255,0.160
3311,-0.240,0.165
3312,-0.245,0.180
3313,-0.250,0.180
3314,-0.250,0.175
3315,-0.255,0.170
3316,-0.230,0.165
3317,-0.230,0.160
3318,-0.225,0.150
3319,-0.240,0.150
3320,-0.245,0.145
3321,-0.245,0.135
3322,-0.235,0.155
3323,-0.220,0.160
3324,-0.225,0.185
3325,-0.245,0.180
3326,-0.255,0.185
3327,-0.255,0.180
3328,-0.260,0.170
3329,-0.255,0.155
3330,-0.255,0.140
3331,-0.265,0.135
3332,-0.265,0.145
3333,-0.255,0.135
3334,-0.245,0.140
3335,-0.220,0.140
3336,-0.205,0.155
3337,-0.205,0.145
3338,-0.225,0.160
3339,-0.250,0.170
3340,-0.265,0.175
3341,-0.275,0.170
3342,-0.280,0.150
3343,-0.270,0.130
3344,-0.265,0.130
3345,-0.255,0.150
3346,-0.250,0.150
3347,-0.260,0.155
3348,-0.270,0.150
3349,-0.255,0.160
3350,-0.230,0.155
3351,-0.220,0.145
3352,-0.225,0.140
3353,-0.225,0.135
3354,-0.235,0.125
3355,-0.255,0.115
3356,-0.265,0.125
3357,-0.255,0.140
3358,-0.245,0.145
3359,-0.230,0.150
3360,-0.230,0.145
3361,-0.225,0.155
3362,-0.240,0.145
3363,-0.250,0.155
3364,-0.265,0.170
3365,-0.285,0.165
3366,-0.285,0.155
3367,-0.295,0.150
3368,-0.285,0.135
3369,-0.275,0.130
3370,-0.255,0.155
3371,-0.240,0.150
3372,-0.240,0.160
3373,-0.240,0.165
3374,-0.250,0.165
3375,-0.260,0.150
3376,-0.265,0.145
3377,-0.275,0.140
3378,-0.260,0.130
3379,-0.260,0.115
3380,-0.235,0.120
3381,-0.235,0.120
3382,-0.250,0.140
3383,-0.265,0.150
3384,-0.275,0.170
3385,-0.285,0.170
3386,-0.280,0.170
3387,-0.275,0.165
3388,-0.260,0.155
3389,-0.255,0.120
3390,-0.240,0.120
3391,-0.225,0.100
3392,-0.215,0.100
3393,-0.225,0.125
3394,-0.240,0.145
3395,-0.240,0.175
3396,-0.260,0.185
3397,-0.290,0.190
3398,-0.305,0.190
3399,-0.300,0.165
3400,-0.295,0.155
3401,-0.265,0.135
3402,-0.250,0.130
3403,-0.255,0.125
3404,-0.270,0.140
3405,-0.270,0.145
3406,-0.260,0.155
3407,-0.260,0.150
3408,-0.245,0.155
3409,-0.210,0.155
3410,-0.205,0.150
3411,-0.220,0.160
3412,-0.250,0.170
3413,-0.280,0.145
3414,-0.285,0.150
3415,-0.285,0.135
3416,-0.250,0.100
3417,-0.220,0.110
3418,-0.215,0.115
3419,-0.215,0.155
3420,-0.260,0.175
3421,-0.295,0.180
3422,-0.320,0.175
3423,-0.320,0.180
3424,-0.300,0.170
3425,-0.265,0.160
3426,-0.245,0.130
3427,-0.230,0.125
3428,-0.225,0.130
3429,-0.225,0.130
3430,-0.245,0.150
3431,-0.260,0.155
3432,-0.275,0.160
3433,-0.260,0.175
3434,-0.245,0.155
3435,-0.245,0.150
3436,-0.225,0.135
3437,-0.230,0.130
3438,-0.245,0.125
3439,-0.245,0.120
3440,-0.270,0.135
3441,-0.285,0.160
3442,-0.285,0.160
3443,-0.285,0.155
3444,-0.255,0.160
3445,-0.235,0.155
3446,-0.230,0.135
3447,-0.220,0.135
3448,-0.215,0.135
3449,-0.230,0.120
3450,-0.235,0.120
3451,-0.235,0.130
3452,-0.245,0.140
3453,-0.265,0.145
3454,-0.280,0.160
3455,-0.275,0.165
3456,-0.270,0.175
3457,-0.270,0.165
3458,-0.260,0.175
3459,-0.270,0.155
3460,-0.265,0.150
3461,-0.255,0.135
3462,-0.250,0.115
3463,-0.250,0.125
3464,-0.250,0.130
3465,-0.250,0.135
3466,-0.270,0.150
3467,-0.265,0.160
3468,-0.260,0.170
3469,-0.250,0.180
3470,-0.235,0.160
3471,-0.230,0.145
3472,-0.220,0.150
3473,-0.230,0.135
3474,-0.245,0.135
3475,-0.280,0.135
3476,-0.290,0.125
3477,-0.285,0.120
3478,-0.285,0.150
3479,-0.285,0.160
3480,-0.310,0.170
3481,-0.285,0.175
3482,-0.270,0.150
3483,-0.260,0.145
3484,-0.250,0.140
3485,-0.245,0.135
3486,-0.265,0.135
3487,-0.255,0.135
3488,-0.270,0.130
3489,-0.280,0.130
3490,-0.285,0.140
3491,-0.295,0.155
3492,-0.290,0.160
3493,-0.285,0.160
3494,-0.260,0.155
3495,-0.270,0.140
3496,-0.265,0.130
3497,-0.265,0.130
3498,-0.290,0.130
3499,-0.275,0.120
3500,-0.290,0.145
3501,-0.295,0.150
3502,-0.280,0.145
3503,-0.280,0.155
3504,-0.270,0.150
3505,-0.265,0.140
3506,-0.245,0.145
3507,-0.230,0.125
3508,-0.225,0.140
3509,-0.235,0.135
3510,-0.270,0.140
3511,-0.300,0.135
3512,-0.320,0.125
3513,-0.315,0.130
3514,-0.295,0.140
3515,-0.285,0.130
3516,-0.275,0.155
3517,-0.270,0.160
3518,-0.255,0.155
3519,-0.250,0.165
3520,-0.240,0.150
3521,-0.260,0.145
3522,-0.275,0.135
3523,-0.275,0.130
3524,-0.295,0.135
3525,-0.295,0.140
3526,-0.290,0.140
3527,-0.290,0.145
3528,-0.270,0.145
3529,-0.255,0.140
3530,-0.250,0.135
3531,-0.240,0.140
3532,-0.245,0.140
3533,-0.250,0.140
3534,-0.255,0.140
3535,-0.275,0.140
3536,-0.280,0.145
3537,-0.295,0.155
3538,-0.290,0.150
3539,-0.295,0.160
3540,-0.290,0.165
3541,-0.285,0.170
3542,-0.280,0.160
3543,-0.265,0.160
3544,-0.265,0.150
3545,-0.265,0.140
3546,-0.270,0.130
3547,-0.280,0.140
3548,-0.295,0.140
3549,-0.295,0.145
3550,-0.300,0.150
3551,-0.295,0.150
3552,-0.285,0.160
3553,-0.270,0.155
3554,-0.255,0.135
3555,-0.235,0.120
3556,-0.220,0.115
3557,-0.205,0.095
3558,-0.215,0.105
3559,-0.230,0.110
3560,-0.265,0.130
3561,-0.300,0.145
3562,-0.310,0.150
3563,-0.315,0.155
3564,-0.305,0.150
3565,-0.280,0.155
3566,-0.265,0.155
3567,-0.275,0.150
3568,-0.270,0.150
3569,-0.300,0.140
3570,-0.315,0.140
3571,-0.325,0.140
3572,-0.315,0.135
3573,-0.280,0.125
3574,-0.260,0.125
3575,-0.230,0.125
3576,-0.215,0.140
3577,-0.205,0.145
3578,-0.230,0.150
3579,-0.255,0.160
3580,-0.275,0.155
3581,-0.295,0.150
3582,-0.290,0.135
3583,-0.260,0.120
3584,-0.245,0.130
3585,-0.220,0.140
3586,-0.205,0.160
3587,-0.225,0.180
3588,-0.230,0.195
3589,-0.240,0.195
3590,-0.220,0.185
3591,-0.200,0.170
3592,-0.160,0.155
3593,-0.155,0.145
3594,-0.150,0.145
3595,-0.170,0.130
3596,-0.200,0.160
3597,-0.230,0.160
3598,-0.270,0.180
3599,-0.270,0.195
3600,-0.270,0.185
3601,-0.250,0.170
3602,-0.220,0.140
3603,-0.200,0.135
3604,-0.195,0.115
3605,-0.190,0.105
3606,-0.180,0.100
3607,-0.185,0.115
3608,-0.195,0.105
3609,-0.225,0.110
3610,-0.240,0.125
3611,-0.240,0.130
3612,-0.230,0.120
3613,-0.225,0.125
3614,-0.220,0.115
3615,-0.235,0.120
3616,-0.245,0.115
3617,-0.250,0.110
3618,-0.250,0.110
3619,-0.245,0.125
3620,-0.255,0.140
3621,-0.265,0.140
3622,-0.280,0.155
3623,-0.300,0.170
3624,-0.295,0.175
3625,-0.290,0.175
3626,-0.280,0.165
3627,-0.290,0.165
3628,-0.270,0.165
3629,-0.280,0.145
3630,-0.275,0.140
3631,-0.300,0.150
3632,-0.325,0.160
3633,-0.325,0.160
3634,-0.330,0.170
3635,-0.310,0.180
3636,-0.285,0.165
3637,-0.260,0.160
3638,-0.240,0.170
3639,-0.245,0.170
3640,-0.250,0.165
3641,-0.285,0.165
3642,-0.290,0.180
3643,-0.305,0.170
3644,-0.310,0.155
3645,-0.305,0.150
3646,-0.280,0.150
3647,-0.255,0.145
3648,-0.250,0.155
3649,-0.235,0.155
3650,-0.235,0.175
3651,-0.260,0.180
3652,-0.270,0.195
3653,-0.295,0.175
3654,-0.300,0.175
3655,-0.300,0.160
3656,-0.270,0.170
3657,-0.270,0.180
3658,-0.255,0.210
3659,-0.240,0.240
3660,-0.230,0.265
3661,-0.195,0.275
3662,-0.160,0.240
3663,-0.125,0.175
3664,-0.050,0.075
3665,0.010,-0.060
3666,0.080,-0.190
3667,0.125,-0.295
3668,0.150,-0.395
3669,0.135,-0.450
3670,0.070,-0.480
3671,-0.025,-0.495
3672,-0.160,-0.460
3673,-0.305,-0.375
3674,-0.445,-0.220
3675,-0.525,-0.030
3676,-0.560,0.180
3677,-0.565,0.355
3678,-0.565,0.490
3679,-0.555,0.560
3680,-0.570,0.585
3681,-0.555,0.595
3682,-0.540,0.575
3683,-0.510,0.580
3684,-0.510,0.580
3685,-0.490,0.595
3686,-0.495,0.615
3687,-0.520,0.650
3688,-0.515,0.670
3689,-0.490,0.690
3690,-0.455,0.705
3691,-0.420,0.695
3692,-0.425,0.730
3693,-0.415,0.750
3694,-0.420,0.760
3695,-0.435,0.785
3696,-0.470,0.785
3697,-0.465,0.770
3698,-0.465,0.705
3699,-0.445,0.640
3700,-0.420,0.560
3701,-0.395,0.480
3702,-0.390,0.400
3703,-0.365,0.315
3704,-0.340,0.265
3705,-0.310,0.220
3706,-0.290,0.195
3707,-0.275,0.150
3708,-0.275,0.145
3709,-0.270,0.145
3710,-0.260,0.135
3711,-0.245,0.145
3712,-0.235,0.130
3713,-0.215,0.110
3714,-0.215,0.100
3715,-0.220,0.090
3716,-0.225,0.095
3717,-0.230,0.095
3718,-0.250,0.105
3719,-0.270,0.115
3720,-0.285,0.130
3721,-0.290,0.135
3722,-0.275,0.105
3723,-0.270,0.110
3724,-0.265,0.100
3725,-0.280,0.085
3726,-0.285,0.095
3727,-0.290,0.095
3728,-0.295,0.095
3729,-0.275,0.105
3730,-0.275,0.115
3731,-0.260,0.105
3732,-0.245,0.120
3733,-0.230,0.125
3734,-0.230,0.115
3735,-0.210,0.105
3736,-0.195,0.090
3737,-0.200,0.085
3738,-0.205,0.090
3739,-0.215,0.080
3740,-0.225,0.090
3741,-0.235,0.105
3742,-0.255,0.115
3743,-0.275,0.125
3744,-0.265,0.115
3745,-0.245,0.120
3746,-0.225,0.100
3747,-0.210,0.085
3748,-0.190,0.085
3749,-0.195,0.065
3750,-0.195,0.040
3751,-0.185,0.015
3752,-0.175,0.000
3753,-0.145,0.000
3754,-0.115,0.005
3755,-0.110,0.030
3756,-0.140,0.060
3757,-0.160,0.075
3758,-0.195,0.065
3759,-0.205,0.030
3760,-0.180,0.000
3761,-0.160,-0.015
3762,-0.130,-0.040
3763,-0.120,-0.035
3764,-0.145,-0.040
3765,-0.170,-0.035
3766,-0.180,-0.040
3767,-0.160,-0.045
3768,-0.135,-0.040
3769,-0.115,-0.050
3770,-0.095,-0.050
3771,-0.075,-0.070
3772,-0.070,-0.080
3773,-0.040,-0.105
3774,-0.030,-0.130
3775,-0.025,-0.145
3776,-0.035,-0.140
3777,-0.040,-0.130
3778,-0.060,-0.110
3779,-0.080,-0.090
3780,-0.090,-0.085
3781,-0.055,-0.065
3782,-0.040,-0.105
3783,-0.020,-0.130
3784,0.005,-0.120
3785,0.010,-0.110
3786,-0.005,-0.090
3787,-0.065,-0.050
3788,-0.120,-0.010
3789,-0.160,0.000
3790,-0.160,-0.010
3791,-0.135,0.000
3792,-0.100,-0.005
3793,-0.075,0.005
3794,-0.055,0.010
3795,-0.060,0.020
3796,-0.070,0.035
3797,-0.110,0.060
3798,-0.155,0.075
3799,-0.180,0.080
3800,-0.195,0.070
3801,-0.205,0.080
3802,-0.205,0.090
3803,-0.200,0.100
3804,-0.205,0.110
3805,-0.215,0.115
3806,-0.195,0.115
3807,-0.205,0.115
3808,-0.205,0.100
3809,-0.210,0.095
3810,-0.220,0.090
3811,-0.245,0.095
3812,-0.255,0.090
3813,-0.270,0.095
3814,-0.275,0.095
3815,-0.270,0.110
3816,-0.280,0.120
3817,-0.275,0.140
3818,-0.280,0.120
3819,-0.290,0.110
3820,-0.315,0.090
3821,-0.320,0.065
3822,-0.340,0.060
3823,-0.330,0.065
3824,-0.325,0.060
3825,-0.325,0.085
3826,-0.325,0.105
3827,-0.320,0.100
3828,-0.310,0.125
3829,-0.300,0.120
3830,-0.290,0.125
3831,-0.290,0.120
3832,-0.295,0.115
3833,-0.295,0.100
3834,-0.285,0.100
3835,-0.280,0.090
3836,-0.275,0.095
3837,-0.260,0.095
3838,-0.245,0.095
3839,-0.240,0.115
3840,-0.245,0.125
3841,-0.245,0.130
3842,-0.240,0.105
3843,-0.255,0.100
3844,-0.235,0.090
3845,-0.250,0.085
3846,-0.260,0.095
3847,-0.270,0.085
3848,-0.295,0.080
3849,-0.285,0.085
3850,-0.270,0.090
3851,-0.250,0.095
3852,-0.235,0.105
3853,-0.235,0.100
3854,-0.220,0.105
3855,-0.215,0.110
3856,-0.215,0.125
3857,-0.240,0.140
3858,-0.275,0.140
3859,-0.285,0.155
3860,-0.285,0.155
3861,-0.275,0.145
3862,-0.265,0.160
3863,-0.250,0.145
3864,-0.225,0.150
3865,-0.215,0.145
3866,-0.195,0.155
3867,-0.200,0.160
3868,-0.220,0.145
3869,-0.230,0.165
3870,-0.250,0.165
3871,-0.270,0.155
3872,-0.295,0.155
3873,-0.310,0.160
3874,-0.305,0.160
3875,-0.275,0.170
3876,-0.260,0.165
3877,-0.230,0.165
3878,-0.215,0.170
3879,-0.200,0.145
3880,-0.200,0.155
3881,-0.200,0.155
3882,-0.235,0.155
3883,-0.275,0.165
3884,-0.300,0.160
3885,-0.310,0.165
3886,-0.295,0.165
3887,-0.270,0.160
3888,-0.270,0.170
3889,-0.265,0.170
3890,-0.280,0.190
3891,-0.285,0.185
3892,-0.290,0.180
3893,-0.300,0.165
3894,-0.295,0.150
3895,-0.285,0.150
3896,-0.275,0.145
3897,-0.265,0.145
3898,-0.235,0.150
3899,-0.225,0.175
3900,-0.215,0.195
3901,-0.220,0.210
3902,-0.225,0.220
3903,-0.220,0.235
3904,-0.225,0.210
3905,-0.175,0.140
3906,-0.105,0.045
3907,-0.015,-0.070
3908,0.090,-0.185
3909,0.195,-0.275
3910,0.255,-0.360
3911,0.270,-0.410
3912,0.180,-0.400
3913,0.015,-0.345
3914,-0.180,-0.230
3915,-0.385,-0.080
3916,-0.515,0.095
3917,-0.585,0.265
3918,-0.600,0.390
3919,-0.565,0.465
3920,-0.540,0.485
3921,-0.500,0.485
3922,-0.440,0.465
3923,-0.425,0.445
3924,-0.425,0.470
3925,-0.465,0.490
3926,-0.505,0.530
3927,-0.550,0.560
3928,-0.540,0.580
3929,-0.515,0.590
3930,-0.470,0.605
3931,-0.425,0.610
3932,-0.415,0.630
3933,-0.410,0.625
3934,-0.435,0.635
3935,-0.460,0.630
3936,-0.465,0.605
3937,-0.470,0.580
3938,-0.435,0.535
3939,-0.420,0.470
3940,-0.415,0.410
3941,-0.395,0.335
3942,-0.390,0.280
3943,-0.395,0.220
3944,-0.380,0.185
3945,-0.370,0.160
3946,-0.365,0.130
3947,-0.345,0.125
3948,-0.330,0.120
3949,-0.280,0.105
3950,-0.255,0.095
3951,-0.225,0.085
3952,-0.205,0.065
3953,-0.190,0.040
3954,-0.175,0.035
3955,-0.200,0.060
3956,-0.250,0.085
3957,-0.290,0.115
3958,-0.345,0.135
3959,-0.385,0.145
3960,-0.385,0.130
3961,-0.360,0.115
3962,-0.320,0.100
3963,-0.305,0.090
3964,-0.280,0.065
3965,-0.270,0.060
3966,-0.275,0.060
3967,-0.260,0.040
3968,-0.225,0.030
3969,-0.185,0.010
3970,-0.155,0.005
3971,-0.140,0.045
3972,-0.170,0.085
3973,-0.240,0.115
3974,-0.300,0.130
3975,-0.350,0.125
3976,-0.360,0.085
3977,-0.340,0.065
3978,-0.325,0.045
3979,-0.285,0.035
3980,-0.285,0.040
3981,-0.250,0.040
3982,-0.250,0.035
3983,-0.240,0.035
3984,-0.235,0.040
3985,-0.215,0.035
3986,-0.200,0.015
3987,-0.205,0.020
3988,-0.195,0.000
3989,-0.195,-0.030
3990,-0.180,-0.040
3991,-0.170,-0.075
3992,-0.135,-0.090
3993,-0.110,-0.080
3994,-0.120,-0.055
3995,-0.170,-0.020
3996,-0.220,0.015
3997,-0.250,0.015
3998,-0.260,-0.005
3999,-0.235,-0.055
4000,-0.190,-0.085
4001,-0.155,-0.095
4002,-0.130,-0.130
4003,-0.120,-0.135
4004,-0.115,-0.125
4005,-0.120,-0.140
4006,-0.110,-0.135
4007,-0.085,-0.140
4008,-0.065,-0.135
4009,-0.050,-0.140
4010,-0.030,-0.145
4011,-0.025,-0.140
4012,-0.040,-0.150
4013,-0.015,-0.145
4014,-0.025,-0.150
4015,-0.050,-0.140
4016,-0.080,-0.110
4017,-0.105,-0.095
4018,-0.130,-0.080
4019,-0.145,-0.070
4020,-0.140,-0.050
4021,-0.125,-0.035
4022,-0.110,-0.035
4023,-0.100,-0.030
4024,-0.085,-0.015
4025,-0.090,-0.015
4026,-0.115,0.000
4027,-0.130,0.005
4028,-0.135,0.005
4029,-0.125,0.030
4030,-0.125,0.050
4031,-0.135,0.070
4032,-0.180,0.105
4033,-0.190,0.135
4034,-0.225,0.140
4035,-0.245,0.140
4036,-0.245,0.140
4037,-0.265,0.135
4038,-0.270,0.150
4039,-0.295,0.145
4040,-0.310,0.155
4041,-0.310,0.170
4042,-0.295,0.160
4043,-0.275,0.150
4044,-0.250,0.155
4045,-0.240,0.155
4046,-0.225,0.165
4047,-0.235,0.165
4048,-0.235,0.160
4049,-0.255,0.165
4050,-0.290,0.175
4051,-0.310,0.160
4052,-0.335,0.165
4053,-0.360,0.195
4054,-0.360,0.205
4055,-0.365,0.215
4056,-0.355,0.210
4057,-0.315,0.200
4058,-0.290,0.195
4059,-0.285,0.180
4060,-0.275,0.170
4061,-0.285,0.160
4062,-0.280,0.150
4063,-0.300,0.145
4064,-0.310,0.135
4065,-0.300,0.145
4066,-0.295,0.140
4067,-0.265,0.140
4068,-0.260,0.155
4069,-0.250,0.165
4070,-0.250,0.170
4071,-0.250,0.165
4072,-0.265,0.165
4073,-0.285,0.165
4074,-0.295,0.155
4075,-0.310,0.145
4076,-0.315,0.150
4077,-0.310,0.160
4078,-0.300,0.155
4079,-0.275,0.150
4080,-0.260,0.155
4081,-0.245,0.165
4082,-0.240,0.165
4083,-0.250,0.175
4084,-0.270,0.170
4085,-0.285,0.155
4086,-0.305,0.145
4087,-0.325,0.130
4088,-0.340,0.130
4089,-0.320,0.135
4090,-0.325,0.145
4091,-0.315,0.155
4092,-0.305,0.160
4093,-0.290,0.165
4094,-0.270,0.155
4095,-0.270,0.150
4096,-0.255,0.145
4097,-0.255,0.135
4098,-0.265,0.135
4099,-0.270,0.120
4100,-0.270,0.110
4101,-0.265,0.120
4102,-0.270,0.130
4103,-0.260,0.140
4104,-0.270,0.165
4105,-0.290,0.180
4106,-0.300,0.180
4107,-0.320,0.185
4108,-0.310,0.165
4109,-0.295,0.140
4110,-0.275,0.115
4111,-0.255,0.115
4112,-0.265,0.115
4113,-0.270,0.120
4114,-0.285,0.150
4115,-0.305,0.155
4116,-0.315,0.175
4117,-0.315,0.180
4118,-0.320,0.190
4119,-0.320,0.170
4120,-0.315,0.170
4121,-0.310,0.165
4122,-0.310,0.155
4123,-0.305,0.140
4124,-0.300,0.130
4125,-0.285,0.125
4126,-0.270,0.120
4127,-0.255,0.140
4128,-0.260,0.165
4129,-0.290,0.185
4130,-0.315,0.190
4131,-0.355,0.190
4132,-0.355,0.185
4133,-0.360,0.170
4134,-0.360,0.155
4135,-0.340,0.155
4136,-0.340,0.155
4137,-0.315,0.140
4138,-0.290,0.135
4139,-0.285,0.130
4140,-0.265,0.120
4141,-0.230,0.105
4142,-0.170,0.085
4143,-0.145,0.100
4144,-0.165,0.135
4145,-0.240,0.185
4146,-0.355,0.220
4147,-0.445,0.245
4148,-0.500,0.220
4149,-0.485,0.195
4150,-0.445,0.190
4151,-0.370,0.160
4152,-0.315,0.155
4153,-0.275,0.155
4154,-0.255,0.165
4155,-0.260,0.160
4156,-0.275,0.150
4157,-0.305,0.145
4158,-0.315,0.130
4159,-0.320,0.135
4160,-0.330,0.135
4161,-0.325,0.135
4162,-0.310,0.150
4163,-0.300,0.145
4164,-0.275,0.155
4165,-0.265,0.140
4166,-0.230,0.125
4167,-0.225,0.115
4168,-0.210,0.120
4169,-0.240,0.130
4170,-0.275,0.140
4171,-0.325,0.175
4172,-0.345,0.190
4173,-0.380,0.205
4174,-0.400,0.200
4175,-0.395,0.215
4176,-0.385,0.190
4177,-0.340,0.170
4178,-0.310,0.155
4179,-0.285,0.150
4180,-0.275,0.125
4181,-0.275,0.130
4182,-0.275,0.125
4183,-0.305,0.135
4184,-0.320,0.135
4185,-0.330,0.140
4186,-0.340,0.155
4187,-0.340,0.155
4188,-0.330,0.175
4189,-0.320,0.175
4190,-0.315,0.175
4191,-0.305,0.170
4192,-0.305,0.155
4193,-0.305,0.150
4194,-0.310,0.140
4195,-0.310,0.140
4196,-0.320,0.145
4197,-0.315,0.140
4198,-0.295,0.140
4199,-0.290,0.130
4200,-0.270,0.130
4201,-0.235,0.140
4202,-0.225,0.160
4203,-0.260,0.175
4204,-0.285,0.185
4205,-0.320,0.195
4206,-0.345,0.195
4207,-0.365,0.190
4208,-0.380,0.190
4209,-0.375,0.185
4210,-0.365,0.180
4211,-0.355,0.185
4212,-0.330,0.170
4213,-0.290,0.150
4214,-0.245,0.160
4215,-0.225,0.155
4216,-0.235,0.150
4217,-0.255,0.145
4218,-0.285,0.155
4219,-0.315,0.170
4220,-0.345,0.155
4221,-0.365,0.165
4222,-0.375,0.180
4223,-0.365,0.195
4224,-0.370,0.205
4225,-0.355,0.195
4226,-0.335,0.190
4227,-0.315,0.180
4228,-0.305,0.160
4229,-0.295,0.145
4230,-0.285,0.145
4231,-0.280,0.130
4232,-0.275,0.140
4233,-0.285,0.145
4234,-0.285,0.155
4235,-0.290,0.165
4236,-0.290,0.175
4237,-0.300,0.180
4238,-0.300,0.185
4239,-0.305,0.180
4240,-0.300,0.175
4241,-0.295,0.155
4242,-0.295,0.140
4243,-0.285,0.125
4244,-0.280,0.115
4245,-0.260,0.135
4246,-0.245,0.145
4247,-0.245,0.155
4248,-0.260,0.185
4249,-0.275,0.215
4250,-0.310,0.215
4251,-0.335,0.215
4252,-0.325,0.205
4253,-0.310,0.180
4254,-0.315,0.160
4255,-0.295,0.145
4256,-0.290,0.140
4257,-0.290,0.145
4258,-0.275,0.145
4259,-0.265,0.160
4260,-0.270,0.185
4261,-0.290,0.200
4262,-0.300,0.220
4263,-0.325,0.200
4264,-0.315,0.175
4265,-0.300,0.175
4266,-0.285,0.155
4267,-0.290,0.165
4268,-0.305,0.155
4269,-0.285,0.165
4270,-0.285,0.160
4271,-0.285,0.170
4272,-0.270,0.180
4273,-0.250,0.190
4274,-0.270,0.190
4275,-0.280,0.205
4276,-0.305,0.200
4277,-0.315,0.180
4278,-0.340,0.180
4279,-0.340,0.160
4280,-0.310,0.155
4281,-0.295,0.145
4282,-0.280,0.150
4283,-0.270,0.145
4284,-0.245,0.150
4285,-0.230,0.135
4286,-0.235,0.130
4287,-0.235,0.160
4288,-0.275,0.180
4289,-0.310,0.185
4290,-0.345,0.180
4291,-0.355,0.175
4292,-0.330,0.150
4293,-0.295,0.140
4294,-0.270,0.125
4295,-0.255,0.135
4296,-0.255,0.140
4297,-0.280,0.175
4298,-0.290,0.190
4299,-0.310,0.185
4300,-0.320,0.185
4301,-0.315,0.155
4302,-0.295,0.150
4303,-0.295,0.130
4304,-0.285,0.135
4305,-0.295,0.135
4306,-0.285,0.145
4307,-0.290,0.175
4308,-0.300,0.180
4309,-0.295,0.175
4310,-0.300,0.175
4311,-0.290,0.175
4312,-0.290,0.155
4313,-0.280,0.145
4314,-0.280,0.135
4315,-0.285,0.120
4316,-0.290,0.120
4317,-0.285,0.115
4318,-0.260,0.140
4319,-0.235,0.130
4320,-0.225,0.135
4321,-0.220,0.150
4322,-0.210,0.160
4323,-0.245,0.170
4324,-0.290,0.180
4325,-0.325,0.175
4326,-0.345,0.160
4327,-0.340,0.155
4328,-0.345,0.140
4329,-0.335,0.155
4330,-0.305,0.150
4331,-0.290,0.165
4332,-0.265,0.170
4333,-0.250,0.160
4334,-0.260,0.160
4335,-0.245,0.155
4336,-0.240,0.140
4337,-0.240,0.130
4338,-0.240,0.125
4339,-0.235,0.120
4340,-0.250,0.125
4341,-0.250,0.145
4342,-0.260,0.155
4343,-0.280,0.180
4344,-0.295,0.185
4345,-0.305,0.180
4346,-0.290,0.170
4347,-0.285,0.155
4348,-0.265,0.150
4349,-0.250,0.140
4350,-0.245,0.130
4351,-0.250,0.130
4352,-0.240,0.120
4353,-0.235,0.120
4354,-0.230,0.130
4355,-0.230,0.140
4356,-0.245,0.150
4357,-0.250,0.165
4358,-0.250,0.165
4359,-0.250,0.175
4360,-0.250,0.155
4361,-0.255,0.160
4362,-0.265,0.155
4363,-0.265,0.150
4364,-0.285,0.145
4365,-0.290,0.155
4366,-0.285,0.155
4367,-0.275,0.150
4368,-0.280,0.150
4369,-0.255,0.160
4370,-0.255,0.155
4371,-0.260,0.145
4372,-0.260,0.155
4373,-0.275,0.150
4374,-0.285,0.140
4375,-0.285,0.130
4376,-0.290,0.140
4377,-0.300,0.145
4378,-0.275,0.145
4379,-0.270,0.145
4380,-0.265,0.150
4381,-0.260,0.140
4382,-0.245,0.140
4383,-0.250,0.145
4384,-0.250,0.140
4385,-0.235,0.140
4386,-0.255,0.130
4387,-0.265,0.125
4388,-0.280,0.145
4389,-0.285,0.140
4390,-0.285,0.150
4391,-0.285,0.150
4392,-0.265,0.145
4393,-0.240,0.155
4394,-0.230,0.145
4395,-0.240,0.150
4396,-0.245,0.155
4397,-0.270,0.145
4398,-0.275,0.125
4399,-0.270,0.125
4400,-0.270,0.115
4401,-0.260,0.120
4402,-0.260,0.150
4403,-0.260,0.150
4404,-0.255,0.155
4405,-0.255,0.155
4406,-0.230,0.135
4407,-0.240,0.140
4408,-0.245,0.145
4409,-0.255,0.140
4410,-0.285,0.130
4411,-0.305,0.140
4412,-0.315,0.140
4413,-0.310,0.130
4414,-0.290,0.130
4415,-0.265,0.150
4416,-0.245,0.130
4417,-0.225,0.140
4418,-0.215,0.135
4419,-0.210,0.120
4420,-0.200,0.125
4421,-0.215,0.125
4422,-0.220,0.130
4423,-0.235,0.130
4424,-0.250,0.135
4425,-0.265,0.130
4426,-0.265,0.145
4427,-0.265,0.160
4428,-0.260,0.160
4429,-0.240,0.165
4430,-0.220,0.165
4431,-0.195,0.150
4432,-0.190,0.160
4433,-0.180,0.145
4434,-0.175,0.155
4435,-0.170,0.140
4436,-0.180,0.135
4437,-0.170,0.145
4438,-0.180,0.155
4439,-0.190,0.165
4440,-0.205,0.165
4441,-0.205,0.160
4442,-0.190,0.140
4443,-0.175,0.115
4444,-0.170,0.105
4445,-0.155,0.090
4446,-0.145,0.070
4447,-0.135,0.080
4448,-0.155,0.090
4449,-0.190,0.105
4450,-0.220,0.115
4451,-0.250,0.140
4452,-0.265,0.155
4453,-0.280,0.150
4454,-0.265,0.135
4455,-0.250,0.115
4456,-0.215,0.090
4457,-0.195,0.085
4458,-0.180,0.070
4459,-0.185,0.075
4460,-0.200,0.095
4461,-0.215,0.130
4462,-0.225,0.150
4463,-0.260,0.155
4464,-0.265,0.165
4465,-0.270,0.165
4466,-0.260,0.140
4467,-0.250,0.130
4468,-0.265,0.120
4469,-0.240,0.105
4470,-0.235,0.105
4471,-0.230,0.100
4472,-0.220,0.110
4473,-0.240,0.130
4474,-0.265,0.140
4475,-0.290,0.160
4476,-0.300,0.155
4477,-0.295,0.175
4478,-0.280,0.170
4479,-0.270,0.160
4480,-0.265,0.155
4481,-0.255,0.135
4482,-0.265,0.130
4483,-0.265,0.135
4484,-0.280,0.140
4485,-0.290,0.145
4486,-0.300,0.130
4487,-0.275,0.140
4488,-0.255,0.150
4489,-0.260,0.150
4490,-0.255,0.170
4491,-0.265,0.175
4492,-0.275,0.185
4493,-0.295,0.170
4494,-0.300,0.155
4495,-0.310,0.155
4496,-0.300,0.135
4497,-0.280,0.135
4498,-0.250,0.135
4499,-0.225,0.125
4500,-0.210,0.155
4501,-0.185,0.160
4502,-0.175,0.185
4503,-0.165,0.205
4504,-0.155,0.205
4505,-0.140,0.200
4506,-0.120,0.165
4507,-0.110,0.105
4508,-0.070,0.010
4509,0.015,-0.110
4510,0.120,-0.220
4511,0.225,-0.325
4512,0.295,-0.415
4513,0.300,-0.470
4514,0.200,-0.480
4515,0.000,-0.435
4516,-0.225,-0.350
4517,-0.425,-0.225
4518,-0.540,-0.065
4519,-0.595,0.110
4520,-0.595,0.260
4521,-0.550,0.360
4522,-0.520,0.440
4523,-0.505,0.470
4524,-0.480,0.490
4525,-0.475,0.490
4526,-0.470,0.495
4527,-0.475,0.495
4528,-0.475,0.520
4529,-0.495,0.530
4530,-0.510,0.550
4531,-0.500,0.555
4532,-0.480,0.595
4533,-0.440,0.615
4534,-0.430,0.650
4535,-0.415,0.660
4536,-0.405,0.675
4537,-0.410,0.690
4538,-0.415,0.705
4539,-0.435,0.700
4540,-0.445,0.675
4541,-0.460,0.660
4542,-0.480,0.600
4543,-0.485,0.560
4544,-0.480,0.510
4545,-0.455,0.430
4546,-0.420,0.365
4547,-0.385,0.300
4548,-0.330,0.230
4549,-0.300,0.200
4550,-0.270,0.170
4551,-0.270,0.150
4552,-0.260,0.140
4553,-0.265,0.140
4554,-0.285,0.115
4555,-0.290,0.100
4556,-0.285,0.095
4557,-0.285,0.100
4558,-0.275,0.095
4559,-0.260,0.100
4560,-0.240,0.100
4561,-0.220,0.105
4562,-0.220,0.100
4563,-0.220,0.110
4564,-0.235,0.120
4565,-0.250,0.105
4566,-0.265,0.100
4567,-0.275,0.090
4568,-0.285,0.085
4569,-0.280,0.085
4570,-0.275,0.095
4571,-0.275,0.095
4572,-0.260,0.095
4573,-0.240,0.090
4574,-0.210,0.075
4575,-0.200,0.080
4576,-0.200,0.090
4577,-0.225,0.085
4578,-0.255,0.090
4579,-0.275,0.095
4580,-0.290,0.095
4581,-0.280,0.075
4582,-0.245,0.065
4583,-0.200,0.060
4584,-0.175,0.065
4585,-0.170,0.085
4586,-0.190,0.100
4587,-0.235,0.105
4588,-0.265,0.100
4589,-0.275,0.080
4590,-0.260,0.055
4591,-0.235,0.040
4592,-0.205,0.025
4593,-0.185,0.025
4594,-0.170,0.030
4595,-0.195,0.045
4596,-0.190,0.045
4597,-0.195,0.045
4598,-0.185,0.030
4599,-0.190,0.005
4600,-0.190,0.000
4601,-0.175,-0.020
4602,-0.160,-0.025
4603,-0.150,-0.035
4604,-0.150,-0.045
4605,-0.120,-0.065
4606,-0.105,-0.055
4607,-0.120,-0.045
4608,-0.105,-0.050
4609,-0.110,-0.045
4610,-0.085,-0.065
4611,-0.075,-0.070
4612,-0.075,-0.095
4613,-0.065,-0.105
4614,-0.065,-0.110
4615,-0.080,-0.120
4616,-0.095,-0.120
4617,-0.100,-0.125
4618,-0.105,-0.125
4619,-0.090,-0.130
4620,-0.090,-0.125
4621,-0.070,-0.130
4622,-0.045,-0.135
4623,-0.025,-0.145
4624,-0.020,-0.140
4625,-0.030,-0.140
4626,-0.045,-0.150
4627,-0.050,-0.140
4628,-0.065,-0.140
4629,-0.060,-0.125
4630,-0.065,-0.115
4631,-0.060,-0.085
4632,-0.065,-0.070
4633,-0.060,-0.065
4634,-0.055,-0.045
4635,-0.055,-0.040
4636,-0.060,-0.030
4637,-0.050,-0.030
4638,-0.060,-0.015
4639,-0.055,-0.005
4640,-0.060,-0.020
4641,-0.060,0.015
4642,-0.070,0.030
4643,-0.085,0.050
4644,-0.100,0.080
4645,-0.115,0.115
4646,-0.125,0.125
4647,-0.145,0.135
4648,-0.165,0.135
4649,-0.175,0.130
4650,-0.160,0.115
4651,-0.170,0.100
4652,-0.170,0.105
4653,-0.180,0.115
4654,-0.170,0.125
4655,-0.185,0.150
4656,-0.190,0.160
4657,-0.225,0.175
4658,-0.240,0.180
4659,-0.270,0.160
4660,-0.275,0.165
4661,-0.265,0.125
4662,-0.265,0.110
4663,-0.260,0.090
4664,-0.265,0.085
4665,-0.270,0.080
4666,-0.280,0.085
4667,-0.280,0.095
4668,-0.285,0.110
4669,-0.280,0.135
4670,-0.275,0.120
4671,-0.280,0.115
4672,-0.260,0.115
4673,-0.255,0.110
4674,-0.255,0.100
4675,-0.260,0.090
4676,-0.250,0.095
4677,-0.240,0.110
4678,-0.210,0.100
4679,-0.185,0.110
4680,-0.165,0.120
4681,-0.160,0.130
4682,-0.170,0.130
4683,-0.180,0.115
4684,-0.200,0.120
4685,-0.210,0.115
4686,-0.220,0.120
4687,-0.235,0.115
4688,-0.245,0.110
4689,-0.245,0.110
4690,-0.240,0.095
4691,-0.220,0.110
4692,-0.220,0.110
4693,-0.200,0.115
4694,-0.190,0.115
4695,-0.185,0.105
4696,-0.190,0.105
4697,-0.190,0.115
4698,-0.180,0.090
4699,-0.170,0.090
4700,-0.175,0.090
4701,-0.175,0.115
4702,-0.190,0.135
4703,-0.220,0.180
4704,-0.250,0.210
4705,-0.255,0.220
4706,-0.250,0.210
4707,-0.235,0.175
4708,-0.205,0.140
4709,-0.175,0.130
4710,-0.150,0.120
4711,-0.165,0.125
4712,-0.175,0.140
4713,-0.215,0.165
4714,-0.240,0.175
4715,-0.250,0.190
4716,-0.265,0.195
4717,-0.245,0.185
4718,-0.215,0.170
4719,-0.200,0.165
4720,-0.175,0.160
4721,-0.165,0.150
4722,-0.185,0.160
4723,-0.205,0.165
4724,-0.235,0.160
4725,-0.265,0.160
4726,-0.255,0.155
4727,-0.245,0.170
4728,-0.230,0.190
4729,-0.220,0.170
4730,-0.205,0.165
4731,-0.200,0.175
4732,-0.185,0.155
4733,-0.190,0.150
4734,-0.185,0.135
4735,-0.185,0.130
4736,-0.185,0.140
4737,-0.190,0.135
4738,-0.220,0.170
4739,-0.240,0.185
4740,-0.255,0.210
4741,-0.240,0.235
4742,-0.240,0.250
4743,-0.230,0.265
4744,-0.220,0.270
4745,-0.225,0.265
4746,-0.200,0.210
4747,-0.140,0.115
4748,-0.065,-0.025
4749,0.050,-0.175
4750,0.180,-0.315
4751,0.260,-0.430
4752,0.310,-0.490
4753,0.255,-0.505
4754,0.125,-0.480
4755,-0.070,-0.405
4756,-0.275,-0.290
4757,-0.460,-0.145
4758,-0.545,0.025
4759,-0.555,0.210
4760,-0.535,0.380
4761,-0.490,0.485
4762,-0.425,0.545
4763,-0.395,0.550
4764,-0.390,0.550
4765,-0.375,0.535
4766,-0.380,0.510
4767,-0.400,0.520
4768,-0.400,0.515
4769,-0.390,0.525
4770,-0.375,0.545
4771,-0.365,0.585
4772,-0.355,0.625
4773,-0.370,0.680
4774,-0.395,0.710
4775,-0.425,0.730
4776,-0.450,0.750
4777,-0.460,0.745
4778,-0.465,0.735
4779,-0.455,0.700
4780,-0.445,0.655
4781,-0.440,0.590
4782,-0.430,0.530
4783,-0.410,0.445
4784,-0.385,0.355
4785,-0.355,0.275
4786,-0.325,0.200
4787,-0.260,0.135
4788,-0.205,0.075
4789,-0.145,0.055
4790,-0.135,0.035
4791,-0.160,0.055
4792,-0.200,0.080
4793,-0.245,0.100
4794,-0.305,0.105
4795,-0.330,0.090
4796,-0.320,0.075
4797,-0.310,0.075
4798,-0.285,0.070
4799,-0.250,0.065
4800,-0.240,0.060
4801,-0.215,0.060
4802,-0.210,0.050
4803,-0.220,0.055
4804,-0.210,0.050
4805,-0.205,0.035
4806,-0.195,0.020
4807,-0.200,0.030
4808,-0.220,0.040
4809,-0.250,0.055
4810,-0.255,0.065
4811,-0.260,0.065
4812,-0.240,0.070
4813,-0.215,0.055
4814,-0.210,0.045
4815,-0.200,0.040
4816,-0.185,0.035
4817,-0.200,0.035
4818,-0.225,0.025
4819,-0.245,0.030
4820,-0.265,0.020
4821,-0.270,0.015
4822,-0.250,0.025
4823,-0.230,0.015
4824,-0.220,0.020
4825,-0.185,0.020
4826,-0.175,0.015
4827,-0.150,-0.005
4828,-0.155,-0.005
4829,-0.155,-0.025
4830,-0.170,-0.030
4831,-0.190,-0.030
4832,-0.200,-0.030
4833,-0.210,-0.030
4834,-0.200,-0.050
4835,-0.175,-0.050
4836,-0.135,-0.070
4837,-0.110,-0.075
4838,-0.105,-0.070
4839,-0.110,-0.080
4840,-0.115,-0.090
4841,-0.130,-0.115
4842,-0.120,-0.135
4843,-0.095,-0.145
4844,-0.085,-0.165
4845,-0.060,-0.170
4846,-0.055,-0.145
4847,-0.045,-0.140
4848,-0.065,-0.125
4849,-0.075,-0.125
4850,-0.080,-0.140
4851,-0.075,-0.155
4852,-0.065,-0.170
4853,-0.060,-0.180
4854,-0.045,-0.185
4855,-0.035,-0.190
4856,-0.040,-0.175
4857,-0.055,-0.170
4858,-0.075,-0.165
4859,-0.085,-0.155
4860,-0.075,-0.145
4861,-0.060,-0.130
4862,-0.040,-0.110
4863,-0.030,-0.090
4864,-0.040,-0.080
4865,-0.050,-0.080
4866,-0.060,-0.075
4867,-0.075,-0.070
4868,-0.095,-0.065
4869,-0.085,-0.040
4870,-0.085,-0.030
4871,-0.095,-0.005
4872,-0.110,0.040
4873,-0.130,0.045
4874,-0.155,0.060
4875,-0.180,0.090
4876,-0.200,0.095
4877,-0.205,0.085
4878,-0.200,0.090
4879,-0.180,0.080
4880,-0.165,0.095
4881,-0.165,0.110
4882,-0.195,0.120
4883,-0.230,0.140
4884,-0.225,0.135
4885,-0.235,0.145
4886,-0.245,0.150
4887,-0.260,0.155
4888,-0.275,0.165
4889,-0.295,0.155
4890,-0.290,0.135
4891,-0.285,0.120
4892,-0.270,0.110
4893,-0.255,0.120
4894,-0.250,0.135
4895,-0.260,0.145
4896,-0.285,0.155
4897,-0.285,0.155
4898,-0.275,0.155
4899,-0.260,0.150
4900,-0.255,0.135
4901,-0.240,0.130
4902,-0.250,0.135
4903,-0.240,0.110
4904,-0.240,0.115
4905,-0.230,0.105
4906,-0.225,0.120
4907,-0.240,0.135
4908,-0.245,0.145
4909,-0.240,0.145
4910,-0.255,0.145
4911,-0.245,0.140
4912,-0.240,0.135
4913,-0.245,0.135
4914,-0.245,0.135
4915,-0.250,0.115
4916,-0.260,0.120
4917,-0.255,0.120
4918,-0.250,0.125
4919,-0.240,0.130
4920,-0.225,0.130
4921,-0.225,0.140
4922,-0.235,0.145
4923,-0.245,0.135
4924,-0.240,0.140
4925,-0.255,0.120
4926,-0.250,0.105
4927,-0.250,0.095
4928,-0.245,0.120
4929,-0.245,0.125
4930,-0.240,0.135
4931,-0.230,0.135
4932,-0.230,0.145
4933,-0.215,0.130
4934,-0.200,0.135
4935,-0.195,0.130
4936,-0.200,0.135
4937,-0.225,0.135
4938,-0.255,0.120
4939,-0.270,0.110
4940,-0.275,0.115
4941,-0.265,0.120
4942,-0.240,0.125
4943,-0.230,0.125
4944,-0.220,0.125
4945,-0.235,0.130
4946,-0.245,0.150
4947,-0.255,0.145
4948,-0.260,0.150
4949,-0.285,0.145
4950,-0.275,0.120
4951,-0.270,0.105
4952,-0.265,0.100
4953,-0.250,0.105
4954,-0.240,0.120
4955,-0.235,0.120
4956,-0.245,0.135
4957,-0.260,0.140
4958,-0.240,0.135
4959,-0.245,0.125
4960,-0.240,0.120
4961,-0.215,0.115
4962,-0.235,0.120
4963,-0.240,0.110
4964,-0.250,0.100
4965,-0.250,0.105
4966,-0.245,0.120
4967,-0.240,0.125
4968,-0.260,0.140
4969,-0.265,0.135
4970,-0.260,0.135
4971,-0.275,0.135
4972,-0.260,0.145
4973,-0.265,0.140
4974,-0.255,0.120
4975,-0.265,0.120
4976,-0.265,0.120
4977,-0.275,0.110
4978,-0.285,0.120
4979,-0.275,0.125
4980,-0.265,0.130
4981,-0.245,0.130
4982,-0.225,0.125
4983,-0.225,0.120
4984,-0.235,0.130
4985,-0.250,0.115
4986,-0.265,0.115
4987,-0.270,0.105
4988,-0.270,0.105
4989,-0.255,0.105
4990,-0.260,0.115
4991,-0.250,0.115
4992,-0.245,0.140
4993,-0.240,0.140
4994,-0.230,0.135
4995,-0.230,0.130
4996,-0.230,0.135
4997,-0.230,0.130
4998,-0.245,0.120
4999,-0.250,0.105
5000,-0.255,0.105
5001,-0.265,0.110
5002,-0.255,0.105
5003,-0.245,0.115
5004,-0.240,0.110
5005,-0.240,0.130
5006,-0.250,0.125
5007,-0.235,0.125
5008,-0.235,0.140
5009,-0.240,0.115
5010,-0.255,0.100
5011,-0.260,0.095
5012,-0.265,0.100
5013,-0.260,0.105
5014,-0.255,0.135
5015,-0.265,0.135
5016,-0.255,0.135
5017,-0.260,0.130
5018,-0.240,0.105
5019,-0.240,0.115
5020,-0.240,0.110
5021,-0.245,0.110
5022,-0.275,0.125
5023,-0.300,0.135
5024,-0.320,0.135
5025,-0.315,0.135
5026,-0.290,0.115
5027,-0.270,0.125
5028,-0.250,0.125
5029,-0.230,0.115
5030,-0.205,0.110
5031,-0.215,0.110
5032,-0.210,0.110
5033,-0.220,0.110
5034,-0.235,0.100
5035,-0.250,0.095
5036,-0.255,0.115
5037,-0.290,0.125
5038,-0.320,0.140
5039,-0.325,0.135
5040,-0.320,0.140
5041,-0.300,0.130
5042,-0.265,0.120
5043,-0.240,0.115
5044,-0.215,0.115
5045,-0.205,0.105
5046,-0.225,0.135
5047,-0.260,0.115
5048,-0.305,0.130
5049,-0.310,0.120
5050,-0.295,0.120
5051,-0.280,0.110
5052,-0.260,0.115
5053,-0.235,0.125
5054,-0.215,0.125
5055,-0.220,0.120
5056,-0.240,0.130
5057,-0.250,0.120
5058,-0.265,0.120
5059,-0.285,0.095
5060,-0.275,0.100
5061,-0.275,0.100
5062,-0.275,0.105
5063,-0.255,0.110
5064,-0.250,0.125
5065,-0.255,0.120
5066,-0.245,0.105
5067,-0.240,0.105
5068,-0.215,0.095
5069,-0.205,0.075
5070,-0.195,0.070
5071,-0.200,0.085
5072,-0.225,0.080
5073,-0.240,0.090
5074,-0.285,0.110
5075,-0.295,0.120
5076,-0.315,0.135
5077,-0.310,0.130
5078,-0.280,0.110
5079,-0.265,0.100
5080,-0.230,0.100
5081,-0.225,0.095
5082,-0.230,0.085
5083,-0.250,0.085
5084,-0.270,0.080
5085,-0.265,0.080
5086,-0.250,0.075
5087,-0.240,0.100
5088,-0.245,0.100
5089,-0.255,0.135
5090,-0.260,0.130
5091,-0.285,0.125
5092,-0.275,0.120
5093,-0.260,0.105
5094,-0.270,0.105
5095,-0.265,0.095
5096,-0.270,0.085
5097,-0.250,0.105
5098,-0.240,0.100
5099,-0.225,0.100
5100,-0.215,0.110
5101,-0.215,0.130
5102,-0.225,0.135
5103,-0.240,0.140
5104,-0.255,0.135
5105,-0.260,0.120
5106,-0.265,0.110
5107,-0.270,0.105
5108,-0.265,0.095
5109,-0.255,0.105
5110,-0.260,0.115
5111,-0.270,0.120
5112,-0.265,0.135
5113,-0.275,0.130
5114,-0.265,0.145
5115,-0.260,0.140
5116,-0.265,0.130
5117,-0.255,0.105
5118,-0.250,0.110
5119,-0.245,0.080
5120,-0.230,0.080
5121,-0.220,0.080
5122,-0.220,0.095
5123,-0.225,0.120
5124,-0.250,0.130
5125,-0.275,0.150
5126,-0.285,0.130
5127,-0.285,0.125
5128,-0.260,0.110
5129,-0.235,0.100
5130,-0.225,0.085
5131,-0.230,0.095
5132,-0.245,0.090
5133,-0.260,0.100
5134,-0.265,0.100
5135,-0.260,0.100
5136,-0.230,0.090
5137,-0.220,0.100
5138,-0.205,0.105
5139,-0.215,0.100
5140,-0.215,0.110
5141,-0.210,0.095
5142,-0.225,0.115
5143,-0.240,0.110
5144,-0.260,0.115
5145,-0.285,0.115
5146,-0.285,0.120
5147,-0.270,0.110
5148,-0.245,0.110
5149,-0.220,0.110
5150,-0.215,0.115
5151,-0.225,0.110
5152,-0.240,0.125
5153,-0.240,0.110
5154,-0.260,0.110
5155,-0.260,0.085
5156,-0.265,0.095
5157,-0.250,0.090
5158,-0.240,0.095
5159,-0.245,0.105
5160,-0.235,0.130
5161,-0.240,0.130
5162,-0.240,0.135
5163,-0.245,0.120
5164,-0.240,0.115
5165,-0.235,0.120
5166,-0.255,0.105
5167,-0.260,0.105
5168,-0.245,0.090
5169,-0.240,0.090
5170,-0.220,0.095
5171,-0.220,0.105
5172,-0.215,0.130
5173,-0.230,0.140
5174,-0.230,0.135
5175,-0.245,0.130
5176,-0.240,0.125
5177,-0.230,0.115
5178,-0.255,0.110
5179,-0.260,0.110
5180,-0.270,0.105
5181,-0.315,0.110
5182,-0.290,0.105
5183,-0.265,0.105
5184,-0.240,0.095
5185,-0.200,0.100
5186,-0.180,0.105
5187,-0.175,0.105
5188,-0.225,0.120
5189,-0.255,0.140
5190,-0.300,0.135
5191,-0.320,0.115
5192,-0.315,0.110
5193,-0.295,0.105
5194,-0.275,0.105
5195,-0.245,0.105
5196,-0.230,0.095
5197,-0.215,0.095
5198,-0.190,0.090
5199,-0.175,0.085
5200,-0.185,0.095
5201,-0.205,0.095
5202,-0.235,0.105
5203,-0.260,0.095
5204,-0.270,0.105
5205,-0.270,0.110
5206,-0.290,0.125
5207,-0.295,0.130
5208,-0.305,0.135
5209,-0.295,0.145
5210,-0.270,0.125
5211,-0.245,0.105
5212,-0.235,0.085
5213,-0.215,0.075
5214,-0.210,0.065
5215,-0.210,0.060
5216,-0.220,0.060
5217,-0.220,0.070
5218,-0.210,0.080
5219,-0.205,0.105
5220,-0.230,0.110
5221,-0.265,0.155
5222,-0.280,0.150
5223,-0.315,0.150
5224,-0.310,0.135
5225,-0.295,0.115
5226,-0.280,0.085
5227,-0.260,0.070
5228,-0.245,0.065
5229,-0.250,0.070
5230,-0.245,0.085
5231,-0.240,0.085
5232,-0.235,0.085
5233,-0.210,0.085
5234,-0.190,0.075
5235,-0.185,0.080
5236,-0.185,0.090
5237,-0.220,0.090
5238,-0.265,0.095
5239,-0.295,0.105
5240,-0.295,0.095
5241,-0.290,0.085
5242,-0.280,0.095
5243,-0.275,0.090
5244,-0.275,0.105
5245,-0.245,0.100
5246,-0.230,0.085
5247,-0.215,0.085
5248,-0.195,0.070
5249,-0.190,0.080
5250,-0.205,0.090
5251,-0.235,0.090
5252,-0.265,0.100
5253,-0.280,0.110
5254,-0.265,0.115
5255,-0.270,0.105
5256,-0.255,0.100
5257,-0.240,0.105
5258,-0.215,0.105
5259,-0.210,0.100
5260,-0.220,0.100
5261,-0.215,0.110
5262,-0.205,0.105
5263,-0.205,0.105
5264,-0.190,0.095
5265,-0.185,0.100
5266,-0.170,0.115
5267,-0.160,0.125
5268,-0.160,0.130
5269,-0.150,0.140
5270,-0.150,0.155
5271,-0.160,0.140
5272,-0.170,0.125
5273,-0.185,0.100
5274,-0.170,0.090
5275,-0.175,0.075
5276,-0.165,0.070
5277,-0.170,0.070
5278,-0.185,0.065
5279,-0.195,0.075
5280,-0.195,0.075
5281,-0.190,0.080
5282,-0.170,0.075
5283,-0.160,0.080
5284,-0.165,0.070
5285,-0.185,0.080
5286,-0.220,0.070
5287,-0.235,0.055
5288,-0.240,0.060
5289,-0.225,0.065
5290,-0.235,0.060
5291,-0.230,0.080
5292,-0.240,0.100
5293,-0.240,0.120
5294,-0.235,0.135
5295,-0.245,0.110
5296,-0.240,0.110
5297,-0.240,0.095
5298,-0.245,0.100
5299,-0.250,0.080
5300,-0.255,0.085
5301,-0.255,0.080
5302,-0.275,0.080
5303,-0.255,0.105
5304,-0.240,0.100
5305,-0.230,0.120
5306,-0.220,0.105
5307,-0.210,0.095
5308,-0.210,0.110
5309,-0.220,0.100
5310,-0.220,0.090
5311,-0.240,0.090
5312,-0.250,0.095
5313,-0.270,0.105
5314,-0.285,0.100
5315,-0.270,0.115
5316,-0.275,0.110
5317,-0.265,0.120
5318,-0.245,0.105
5319,-0.230,0.105
5320,-0.225,0.110
5321,-0.225,0.100
5322,-0.250,0.105
5323,-0.265,0.110
5324,-0.270,0.105
5325,-0.290,0.115
5326,-0.275,0.105
5327,-0.275,0.115
5328,-0.255,0.120
5329,-0.205,0.125
5330,-0.185,0.130
5331,-0.165,0.140
5332,-0.145,0.150
5333,-0.120,0.150
5334,-0.105,0.150
5335,-0.110,0.125
5336,-0.125,0.090
5337,-0.125,0.025
5338,-0.095,-0.060
5339,-0.060,-0.155
5340,0.005,-0.265
5341,0.080,-0.370
5342,0.170,-0.470
5343,0.220,-0.535
5344,0.185,-0.575
5345,0.075,-0.565
5346,-0.115,-0.490
5347,-0.305,-0.350
5348,-0.450,-0.180
5349,-0.525,0.030
5350,-0.535,0.205
5351,-0.530,0.350
5352,-0.490,0.450
5353,-0.470,0.495
5354,-0.455,0.505
5355,-0.445,0.505
5356,-0.450,0.485
5357,-0.465,0.495
5358,-0.470,0.490
5359,-0.485,0.520
5360,-0.495,0.535
5361,-0.470,0.570
5362,-0.445,0.600
5363,-0.405,0.625
5364,-0.380,0.665
5365,-0.375,0.685
5366,-0.395,0.710
5367,-0.420,0.710
5368,-0.455,0.700
5369,-0.460,0.675
5370,-0.460,0.635
5371,-0.450,0.590
5372,-0.435,0.520
5373,-0.405,0.445
5374,-0.390,0.400
5375,-0.365,0.330
5376,-0.335,0.280
5377,-0.320,0.220
5378,-0.300,0.175
5379,-0.290,0.130
5380,-0.270,0.100
5381,-0.245,0.075
5382,-0.235,0.060
5383,-0.225,0.065
5384,-0.225,0.050
5385,-0.240,0.060
5386,-0.245,0.055
5387,-0.230,0.055
5388,-0.210,0.065
5389,-0.200,0.080
5390,-0.220,0.085
5391,-0.255,0.085
5392,-0.255,0.070
5393,-0.250,0.065
5394,-0.240,0.050
5395,-0.245,0.035
5396,-0.235,0.045
5397,-0.235,0.040
5398,-0.235,0.040
5399,-0.210,0.040
5400,-0.215,0.040
5401,-0.195,0.040
5402,-0.195,0.045
5403,-0.195,0.055
5404,-0.200,0.050
5405,-0.225,0.050
5406,-0.235,0.045
5407,-0.245,0.050
5408,-0.265,0.015
5409,-0.250,0.010
5410,-0.235,-0.005
5411,-0.200,0.000
5412,-0.175,0.005
5413,-0.170,0.035
5414,-0.185,0.040
5415,-0.195,0.035
5416,-0.210,0.025
5417,-0.195,0.010
5418,-0.185,-0.015
5419,-0.170,-0.020
5420,-0.175,-0.015
5421,-0.185,0.005
5422,-0.200,-0.005
5423,-0.210,-0.015
5424,-0.210,-0.020
5425,-0.175,-0.025
5426,-0.155,-0.030
5427,-0.130,-0.035
5428,-0.130,-0.050
5429,-0.140,-0.070
5430,-0.150,-0.085
5431,-0.150,-0.095
5432,-0.140,-0.095
5433,-0.135,-0.110
5434,-0.115,-0.110
5435,-0.115,-0.115
5436,-0.115,-0.110
5437,-0.110,-0.120
5438,-0.105,-0.125
5439,-0.100,-0.130
5440,-0.100,-0.150
5441,-0.080,-0.160
5442,-0.085,-0.165
5443,-0.085,-0.160
5444,-0.085,-0.175
5445,-0.080,-0.185
5446,-0.080,-0.190
5447,-0.070,-0.185
5448,-0.060,-0.185
5449,-0.055,-0.180
5450,-0.050,-0.165
5451,-0.055,-0.170
5452,-0.055,-0.170
5453,-0.065,-0.165
5454,-0.060,-0.180
5455,-0.035,-0.170
5456,-0.040,-0.185
5457,-0.045,-0.165
5458,-0.055,-0.160
5459,-0.065,-0.130
5460,-0.060,-0.125
5461,-0.050,-0.100
5462,-0.040,-0.095
5463,-0.035,-0.100
5464,-0.025,-0.075
5465,-0.030,-0.065
5466,-0.045,-0.045
5467,-0.060,-0.030
5468,-0.085,-0.015
5469,-0.110,0.015
5470,-0.135,0.025
5471,-0.150,0.040
5472,-0.155,0.065
5473,-0.150,0.080
5474,-0.130,0.085
5475,-0.125,0.080
5476,-0.115,0.085
5477,-0.120,0.075
5478,-0.130,0.070
5479,-0.135,0.070
5480,-0.155,0.080
5481,-0.165,0.080
5482,-0.180,0.080
5483,-0.180,0.075
5484,-0.185,0.110
5485,-0.195,0.120
5486,-0.210,0.125
5487,-0.240,0.120
5488,-0.240,0.110
5489,-0.235,0.095
5490,-0.240,0.075
5491,-0.245,0.055
5492,-0.250,0.055
5493,-0.255,0.060
5494,-0.250,0.060
5495,-0.250,0.065
5496,-0.220,0.065
5497,-0.190,0.065
5498,-0.175,0.065
5499,-0.185,0.080
5500,-0.200,0.065
5501,-0.210,0.070
5502,-0.230,0.055
5503,-0.225,0.045
5504,-0.210,0.040
5505,-0.170,0.025
5506,-0.130,0.035
5507,-0.110,0.055
5508,-0.105,0.090
5509,-0.145,0.120
5510,-0.180,0.140
5511,-0.215,0.120
5512,-0.245,0.115
5513,-0.240,0.095
5514,-0.210,0.070
5515,-0.185,0.065
5516,-0.160,0.050
5517,-0.145,0.065
5518,-0.135,0.085
5519,-0.140,0.090
5520,-0.150,0.095
5521,-0.160,0.105
5522,-0.160,0.115
5523,-0.175,0.110
5524,-0.175,0.100
5525,-0.185,0.100
5526,-0.175,0.105
5527,-0.165,0.110
5528,-0.150,0.105
5529,-0.145,0.120
5530,-0.145,0.130
5531,-0.130,0.155
5532,-0.130,0.160
5533,-0.135,0.165
5534,-0.120,0.175
5535,-0.120,0.170
5536,-0.135,0.155
5537,-0.140,0.145
5538,-0.140,0.120
5539,-0.160,0.125
5540,-0.150,0.115
5541,-0.135,0.125
5542,-0.130,0.120
5543,-0.130,0.135
5544,-0.130,0.135
5545,-0.130,0.150
5546,-0.130,0.145
5547,-0.115,0.135
5548,-0.085,0.135
5549,-0.075,0.135
5550,-0.090,0.115
5551,-0.110,0.145
5552,-0.130,0.140
5553,-0.160,0.150
5554,-0.180,0.155
5555,-0.160,0.135
5556,-0.135,0.135
5557,-0.105,0.135
5558,-0.095,0.130
5559,-0.105,0.120
5560,-0.120,0.125
5561,-0.125,0.135
5562,-0.130,0.130
5563,-0.140,0.130
5564,-0.160,0.125
5565,-0.175,0.125
5566,-0.145,0.120
5567,-0.130,0.120
5568,-0.105,0.130
5569,-0.110,0.150
5570,-0.125,0.150
5571,-0.140,0.160
5572,-0.135,0.170
5573,-0.110,0.165
5574,-0.085,0.165
5575,-0.070,0.170
5576,-0.080,0.180
5577,-0.095,0.195
5578,-0.095,0.180
5579,-0.100,0.130
5580,-0.065,0.050
5581,0.005,-0.065
5582,0.095,-0.185
5583,0.180,-0.295
5584,0.240,-0.375
5585,0.315,-0.465
5586,0.320,-0.500
5587,0.260,-0.505
5588,0.115,-0.470
5589,-0.075,-0.375
5590,-0.250,-0.240
5591,-0.385,-0.075
5592,-0.435,0.110
5593,-0.415,0.260
5594,-0.350,0.375
5595,-0.290,0.445
5596,-0.255,0.465
5597,-0.245,0.480
5598,-0.260,0.465
5599,-0.295,0.450
5600,-0.360,0.465
5601,-0.400,0.480
5602,-0.430,0.510
5603,-0.400,0.535
5604,-0.350,0.570
5605,-0.275,0.585
5606,-0.215,0.605
5607,-0.205,0.625
5608,-0.215,0.625
5609,-0.250,0.635
5610,-0.270,0.635
5611,-0.325,0.615
5612,-0.355,0.585
5613,-0.385,0.560
5614,-0.370,0.505
5615,-0.350,0.460
5616,-0.295,0.390
5617,-0.255,0.320
5618,-0.210,0.260
5619,-0.180,0.205
5620,-0.165,0.150
5621,-0.160,0.110
5622,-0.145,0.055
5623,-0.130,0.050
5624,-0.095,0.020
5625,-0.085,0.030
5626,-0.080,0.035
5627,-0.075,0.060
5628,-0.105,0.075
5629,-0.135,0.095
5630,-0.150,0.110
5631,-0.170,0.090
5632,-0.170,0.070
5633,-0.155,0.050
5634,-0.115,0.030
5635,-0.085,0.020
5636,-0.065,0.010
5637,-0.080,0.030
5638,-0.105,0.030
5639,-0.130,0.050
5640,-0.140,0.060
5641,-0.150,0.045
5642,-0.135,0.055
5643,-0.125,0.040
5644,-0.105,0.020
5645,-0.080,-0.005
5646,-0.080,-0.020
5647,-0.075,-0.015
5648,-0.085,-0.015
5649,-0.100,-0.010
5650,-0.100,-0.015
5651,-0.105,-0.010
5652,-0.085,-0.010
5653,-0.080,-0.005
5654,-0.060,-0.010
5655,-0.055,-0.005
5656,-0.060,-0.030
5657,-0.055,-0.040
5658,-0.085,-0.040
5659,-0.080,-0.045
5660,-0.075,-0.060
5661,-0.085,-0.045
5662,-0.065,-0.045
5663,-0.070,-0.045
5664,-0.070,-0.030
5665,-0.075,-0.045
5666,-0.060,-0.045
5667,-0.045,-0.055
5668,-0.040,-0.055
5669,-0.020,-0.080
5670,-0.025,-0.100
5671,-0.020,-0.105
5672,-0.020,-0.115
5673,-0.025,-0.135
5674,-0.005,-0.135
5675,0.015,-0.130
5676,0.020,-0.135
5677,0.030,-0.145
5678,0.045,-0.145
5679,0.050,-0.155
5680,0.055,-0.160
5681,0.050,-0.180
5682,0.055,-0.200
5683,0.050,-0.215
5684,0.060,-0.215
5685,0.090,-0.225
5686,0.100,-0.215
5687,0.105,-0.200
5688,0.080,-0.190
5689,0.075,-0.185
5690,0.065,-0.200
5691,0.090,-0.205
5692,0.110,-0.220
5693,0.105,-0.235
5694,0.115,-0.235
5695,0.115,-0.230
5696,0.105,-0.215
5697,0.100,-0.205
5698,0.085,-0.190
5699,0.075,-0.170
5700,0.075,-0.150
5701,0.080,-0.130
5702,0.080,-0.105
5703,0.070,-0.095
5704,0.055,-0.085
5705,0.050,-0.080
5706,0.045,-0.090
5707,0.045,-0.085
5708,0.020,-0.070
5709,0.010,-0.035
5710,0.005,-0.015
5711,-0.015,0.005
5712,-0.040,0.030
5713,-0.050,0.050
5714,-0.060,0.050
5715,-0.065,0.050
5716,-0.070,0.045
5717,-0.070,0.045
5718,-0.075,0.040
5719,-0.085,0.045
5720,-0.085,0.045
5721,-0.090,0.045
5722,-0.080,0.060
5723,-0.080,0.090
5724,-0.095,0.115
5725,-0.110,0.120
5726,-0.120,0.115
5727,-0.130,0.105
5728,-0.115,0.095
5729,-0.105,0.095
5730,-0.110,0.075
5731,-0.130,0.080
5732,-0.155,0.095
5733,-0.190,0.110
5734,-0.200,0.095
5735,-0.205,0.120
5736,-0.190,0.115
5737,-0.180,0.110
5738,-0.160,0.110
5739,-0.150,0.110
5740,-0.130,0.110
5741,-0.125,0.095
5742,-0.130,0.090
5743,-0.140,0.070
5744,-0.145,0.075
5745,-0.150,0.070
5746,-0.150,0.065
5747,-0.145,0.095
5748,-0.130,0.075
5749,-0.105,0.080
5750,-0.090,0.085
5751,-0.095,0.080
5752,-0.130,0.090
5753,-0.140,0.085
5754,-0.170,0.085
5755,-0.195,0.080
5756,-0.180,0.075
5757,-0.160,0.050
5758,-0.120,0.050
5759,-0.105,0.080
5760,-0.135,0.080
5761,-0.140,0.090
5762,-0.165,0.085
5763,-0.185,0.085
5764,-0.200,0.070
5765,-0.200,0.050
5766,-0.200,0.025
5767,-0.215,0.020
5768,-0.220,0.005
5769,-0.215,0.020
5770,-0.210,0.025
5771,-0.215,0.040
5772,-0.190,0.040
5773,-0.175,0.055
5774,-0.165,0.060
5775,-0.180,0.055
5776,-0.180,0.045
5777,-0.195,0.040
5778,-0.190,0.045
5779,-0.185,0.030
5780,-0.180,0.035
5781,-0.150,0.045
5782,-0.115,0.030
5783,-0.095,0.040
5784,-0.090,0.065
5785,-0.100,0.070
5786,-0.135,0.095
5787,-0.165,0.095
5788,-0.185,0.075
5789,-0.190,0.055
5790,-0.170,0.045
5791,-0.160,0.015
5792,-0.150,0.025
5793,-0.140,0.025
5794,-0.150,0.035
5795,-0.170,0.040
5796,-0.170,0.040
5797,-0.170,0.055
5798,-0.170,0.055
5799,-0.175,0.070
5800,-0.180,0.080
5801,-0.215,0.095
5802,-0.235,0.100
5803,-0.245,0.090
5804,-0.215,0.075
5805,-0.190,0.080
5806,-0.165,0.080
5807,-0.150,0.090
5808,-0.125,0.095
5809,-0.120,0.100
5810,-0.135,0.125
5811,-0.170,0.140
5812,-0.205,0.140
5813,-0.230,0.130
5814,-0.255,0.135
5815,-0.245,0.110
5816,-0.225,0.105
5817,-0.200,0.100
5818,-0.185,0.095
5819,-0.160,0.090
5820,-0.150,0.100
5821,-0.130,0.100
5822,-0.105,0.095
5823,-0.090,0.100
5824,-0.105,0.110
5825,-0.145,0.105
5826,-0.190,0.120
5827,-0.255,0.140
5828,-0.270,0.130
5829,-0.280,0.125
5830,-0.280,0.115
5831,-0.250,0.125
5832,-0.210,0.125
5833,-0.180,0.115
5834,-0.160,0.120
5835,-0.135,0.090
5836,-0.110,0.065
5837,-0.070,0.050
5838,-0.060,0.045
5839,-0.080,0.065
5840,-0.120,0.105
5841,-0.180,0.140
5842,-0.250,0.165
5843,-0.275,0.195
5844,-0.270,0.200
5845,-0.235,0.195
5846,-0.200,0.200
5847,-0.145,0.180
5848,-0.110,0.180
5849,-0.075,0.165
5850,-0.035,0.120
5851,-0.005,0.055
5852,0.060,-0.015
5853,0.130,-0.135
5854,0.210,-0.230
5855,0.300,-0.330
5856,0.380,-0.410
5857,0.405,-0.470
5858,0.345,-0.475
5859,0.155,-0.450
5860,-0.105,-0.380
5861,-0.330,-0.260
5862,-0.490,-0.125
5863,-0.555,0.040
5864,-0.565,0.220
5865,-0.535,0.360
5866,-0.485,0.435
5867,-0.440,0.470
5868,-0.400,0.470
5869,-0.345,0.480
5870,-0.320,0.460
5871,-0.330,0.460
5872,-0.360,0.480
5873,-0.405,0.500
5874,-0.455,0.545
5875,-0.475,0.560
5876,-0.460,0.575
5877,-0.430,0.600
5878,-0.390,0.615
5879,-0.355,0.625
5880,-0.340,0.635
5881,-0.355,0.635
5882,-0.370,0.650
5883,-0.390,0.615
5884,-0.395,0.595
5885,-0.410,0.545
5886,-0.400,0.495
5887,-0.385,0.420
5888,-0.375,0.350
5889,-0.350,0.285
5890,-0.310,0.225
5891,-0.270,0.165
5892,-0.230,0.115
5893,-0.215,0.100
5894,-0.185,0.065
5895,-0.170,0.040
5896,-0.145,0.030
5897,-0.145,0.020
5898,-0.160,0.030
5899,-0.190,0.035
5900,-0.240,0.050
5901,-0.255,0.050
5902,-0.260,0.055
5903,-0.245,0.050
5904,-0.215,0.050
5905,-0.190,0.055
5906,-0.155,0.035
5907,-0.155,0.035
5908,-0.145,0.025
5909,-0.180,0.020
5910,-0.190,0.030
5911,-0.210,0.045
5912,-0.225,0.045
5913,-0.230,0.025
5914,-0.220,0.040
5915,-0.215,0.045
5916,-0.200,0.040
5917,-0.185,0.020
5918,-0.165,0.025
5919,-0.160,0.025
5920,-0.155,0.020
5921,-0.175,0.015
5922,-0.185,0.005
5923,-0.195,0.005
5924,-0.210,0.000
5925,-0.190,-0.005
5926,-0.170,0.005
5927,-0.175,0.010
5928,-0.175,0.020
5929,-0.180,0.025
5930,-0.170,0.025
5931,-0.145,0.010
5932,-0.135,-0.015
5933,-0.095,-0.050
5934,-0.060,-0.075
5935,-0.055,-0.075
5936,-0.080,-0.045
5937,-0.120,-0.030
5938,-0.165,-0.020
5939,-0.200,-0.015
5940,-0.220,-0.030
5941,-0.205,-0.025
5942,-0.180,-0.055
5943,-0.155,-0.065
5944,-0.115,-0.095
5945,-0.090,-0.130
5946,-0.055,-0.130
5947,-0.050,-0.170
5948,-0.025,-0.190
5949,-0.005,-0.190
5950,0.010,-0.175
5951,0.015,-0.165
5952,-0.020,-0.140
5953,-0.050,-0.130
5954,-0.060,-0.140
5955,-0.065,-0.155
5956,-0.045,-0.175
5957,-0.020,-0.205
5958,0.000,-0.230
5959,0.030,-0.235
5960,0.030,-0.225
5961,0.020,-0.215
5962,0.005,-0.205
5963,0.005,-0.195
5964,0.005,-0.170
5965,0.015,-0.170
5966,0.030,-0.160
5967,0.045,-0.150
5968,0.045,-0.145
5969,0.025,-0.145
5970,-0.005,-0.125
5971,-0.045,-0.115
5972,-0.060,-0.090
5973,-0.075,-0.060
5974,-0.075,-0.040
5975,-0.070,-0.020
5976,-0.085,-0.005
5977,-0.090,0.010
5978,-0.080,0.015
5979,-0.070,0.020
5980,-0.065,0.050
5981,-0.080,0.065
5982,-0.105,0.065
5983,-0.140,0.070
5984,-0.160,0.075
5985,-0.170,0.080
5986,-0.185,0.095
5987,-0.180,0.115
5988,-0.170,0.115
5989,-0.165,0.105
5990,-0.165,0.110
5991,-0.170,0.095
5992,-0.190,0.115
5993,-0.180,0.095
5994,-0.195,0.110
5995,-0.205,0.095
5996,-0.205,0.090
5997,-0.215,0.085
5998,-0.205,0.085
5999,-0.190,0.085
6000,-0.165,0.100
6001,-0.155,0.095
6002,-0.145,0.115
6003,-0.165,0.120
6004,-0.185,0.120
6005,-0.200,0.120
6006,-0.215,0.115
6007,-0.230,0.105
6008,-0.220,0.105
6009,-0.225,0.105
6010,-0.215,0.095
6011,-0.225,0.110
6012,-0.215,0.115
6013,-0.220,0.125
6014,-0.215,0.135
6015,-0.210,0.125
6016,-0.200,0.120
6017,-0.195,0.090
6018,-0.190,0.095
6019,-0.185,0.075
6020,-0.175,0.075
6021,-0.170,0.080
6022,-0.160,0.085
6023,-0.155,0.090
6024,-0.160,0.100
6025,-0.165,0.110
6026,-0.175,0.120
6027,-0.175,0.120
6028,-0.175,0.095
6029,-0.170,0.080
6030,-0.165,0.070
6031,-0.155,0.065
6032,-0.155,0.070
6033,-0.175,0.085
6034,-0.180,0.090
6035,-0.195,0.110
6036,-0.205,0.100
6037,-0.190,0.095
6038,-0.170,0.110
6039,-0.150,0.095
6040,-0.150,0.095
6041,-0.150,0.085
6042,-0.150,0.075
6043,-0.175,0.075
6044,-0.200,0.100
6045,-0.225,0.095
6046,-0.240,0.095
6047,-0.230,0.110
6048,-0.220,0.105
6049,-0.205,0.115
6050,-0.205,0.110
6051,-0.195,0.095
6052,-0.175,0.080
6053,-0.160,0.070
6054,-0.160,0.055
6055,-0.165,0.060
6056,-0.175,0.075
6057,-0.190,0.075
6058,-0.205,0.080
6059,-0.195,0.080
6060,-0.200,0.095
6061,-0.195,0.115
6062,-0.190,0.110
6063,-0.205,0.115
6064,-0.205,0.110
6065,-0.210,0.095
6066,-0.225,0.085
6067,-0.235,0.070
6068,-0.230,0.070
6069,-0.230,0.075
6070,-0.220,0.085
6071,-0.205,0.095
6072,-0.200,0.095
6073,-0.200,0.110
6074,-0.205,0.120
6075,-0.215,0.125
6076,-0.225,0.120
6077,-0.215,0.105
6078,-0.225,0.085
6079,-0.205,0.080
6080,-0.175,0.055
6081,-0.160,0.060
6082,-0.150,0.065
6083,-0.155,0.090
6084,-0.190,0.110
6085,-0.230,0.120
6086,-0.240,0.130
6087,-0.250,0.115
6088,-0.235,0.100
6089,-0.200,0.090
6090,-0.170,0.090
6091,-0.175,0.085
6092,-0.195,0.090
6093,-0.220,0.100
6094,-0.235,0.115
6095,-0.240,0.105
6096,-0.220,0.105
6097,-0.215,0.100
6098,-0.185,0.100
6099,-0.180,0.110
6100,-0.180,0.095
6101,-0.190,0.115
6102,-0.210,0.095
6103,-0.215,0.085
6104,-0.220,0.080
6105,-0.225,0.075
6106,-0.225,0.095
6107,-0.230,0.105
6108,-0.220,0.100
6109,-0.220,0.105
6110,-0.195,0.105
6111,-0.195,0.095
6112,-0.185,0.090
6113,-0.170,0.080
6114,-0.160,0.065
6115,-0.160,0.075
6116,-0.190,0.085
6117,-0.215,0.105
6118,-0.225,0.100
6119,-0.225,0.090
6120,-0.210,0.105
6121,-0.210,0.105
6122,-0.200,0.115
6123,-0.225,0.120
6124,-0.230,0.110
6125,-0.240,0.100
6126,-0.240,0.095
6127,-0.240,0.080
6128,-0.225,0.050
6129,-0.215,0.065
6130,-0.195,0.050
6131,-0.175,0.070
6132,-0.160,0.075
6133,-0.170,0.110
6134,-0.180,0.125
6135,-0.200,0.120
6136,-0.220,0.105
6137,-0.210,0.095
6138,-0.220,0.075
6139,-0.245,0.075
6140,-0.240,0.075
6141,-0.245,0.080
6142,-0.235,0.090
6143,-0.220,0.100
6144,-0.225,0.115
6145,-0.230,0.115
6146,-0.225,0.105
6147,-0.215,0.100
6148,-0.200,0.105
6149,-0.195,0.095
6150,-0.195,0.090
6151,-0.205,0.085
6152,-0.215,0.080
6153,-0.220,0.065
6154,-0.210,0.075
6155,-0.210,0.085
6156,-0.210,0.100
6157,-0.200,0.100
6158,-0.205,0.095
6159,-0.210,0.090
6160,-0.220,0.105
6161,-0.205,0.100
6162,-0.215,0.100
6163,-0.220,0.075
6164,-0.215,0.075
6165,-0.215,0.075
6166,-0.195,0.090
6167,-0.200,0.100
6168,-0.210,0.115
6169,-0.210,0.125
6170,-0.220,0.115
6171,-0.225,0.105
6172,-0.210,0.105
6173,-0.195,0.085
6174,-0.190,0.080
6175,-0.185,0.065
6176,-0.175,0.055
6177,-0.195,0.070
6178,-0.200,0.070
6179,-0.210,0.095
6180,-0.220,0.110
6181,-0.235,0.115
6182,-0.230,0.110
6183,-0.220,0.105
6184,-0.205,0.100
6185,-0.195,0.100
6186,-0.190,0.090
6187,-0.190,0.070
6188,-0.200,0.065
6189,-0.195,0.065
6190,-0.195,0.070
6191,-0.190,0.075
6192,-0.175,0.095
6193,-0.185,0.105
6194,-0.210,0.115
6195,-0.230,0.110
6196,-0.245,0.115
6197,-0.255,0.100
6198,-0.240,0.085
6199,-0.240,0.070
6200,-0.220,0.065
6201,-0.200,0.070
6202,-0.195,0.085
6203,-0.205,0.110
6204,-0.215,0.110
6205,-0.225,0.110
6206,-0.220,0.110
6207,-0.205,0.090
6208,-0.200,0.085
6209,-0.205,0.075
6210,-0.205,0.085
6211,-0.205,0.070
6212,-0.215,0.060
6213,-0.210,0.055
6214,-0.215,0.080
6215,-0.235,0.080
6216,-0.250,0.100
6217,-0.245,0.110
6218,-0.235,0.100
6219,-0.225,0.085
6220,-0.200,0.080
6221,-0.175,0.055
6222,-0.170,0.055
6223,-0.165,0.045
6224,-0.190,0.060
6225,-0.195,0.075
6226,-0.215,0.075
6227,-0.215,0.090
6228,-0.200,0.080
6229,-0.185,0.080
6230,-0.185,0.085
6231,-0.200,0.085
6232,-0.210,0.085
6233,-0.245,0.095
6234,-0.275,0.090
6235,-0.290,0.090
6236,-0.290,0.060
6237,-0.260,0.060
6238,-0.240,0.055
6239,-0.220,0.055
6240,-0.195,0.060
6241,-0.180,0.085
6242,-0.185,0.105
6243,-0.210,0.100
6244,-0.225,0.110
6245,-0.235,0.095
6246,-0.240,0.065
6247,-0.240,0.055
6248,-0.220,0.045
6249,-0.220,0.045
6250,-0.215,0.055
6251,-0.215,0.085
6252,-0.230,0.095
6253,-0.235,0.100
6254,-0.215,0.095
6255,-0.215,0.075
6256,-0.195,0.065
6257,-0.195,0.055
6258,-0.200,0.050
6259,-0.205,0.065
6260,-0.220,0.065
6261,-0.240,0.055
6262,-0.225,0.055
6263,-0.210,0.060
6264,-0.210,0.080
6265,-0.225,0.085
6266,-0.215,0.075
6267,-0.215,0.060
6268,-0.205,0.050
6269,-0.195,0.060
6270,-0.215,0.055
6271,-0.230,0.065
6272,-0.245,0.065
6273,-0.245,0.080
6274,-0.255,0.075
6275,-0.225,0.085
6276,-0.215,0.085
6277,-0.205,0.090
6278,-0.190,0.085
6279,-0.195,0.070
6280,-0.195,0.075
6281,-0.210,0.075
6282,-0.220,0.065
6283,-0.240,0.050
6284,-0.235,0.040
6285,-0.225,0.045
6286,-0.205,0.050
6287,-0.195,0.060
6288,-0.190,0.070
6289,-0.195,0.080
6290,-0.205,0.085
6291,-0.205,0.080
6292,-0.205,0.075
6293,-0.200,0.080
6294,-0.225,0.070
6295,-0.230,0.070
6296,-0.225,0.050
6297,-0.220,0.045
6298,-0.205,0.055
6299,-0.215,0.050
6300,-0.190,0.045
6301,-0.195,0.075
6302,-0.175,0.075
6303,-0.195,0.080
6304,-0.210,0.080
6305,-0.225,0.075
6306,-0.240,0.060
6307,-0.255,0.070
6308,-0.260,0.065
6309,-0.250,0.070
6310,-0.245,0.075
6311,-0.225,0.070
6312,-0.200,0.065
6313,-0.195,0.070
6314,-0.180,0.055
6315,-0.165,0.050
6316,-0.155,0.075
6317,-0.170,0.075
6318,-0.195,0.080
6319,-0.235,0.070
6320,-0.255,0.075
6321,-0.270,0.080
6322,-0.265,0.070
6323,-0.250,0.070
6324,-0.230,0.070
6325,-0.220,0.070
6326,-0.190,0.070
6327,-0.180,0.060
6328,-0.170,0.060
6329,-0.155,0.065
6330,-0.165,0.055
6331,-0.185,0.035
6332,-0.205,0.065
6333,-0.225,0.060
6334,-0.255,0.060
6335,-0.250,0.070
6336,-0.230,0.070
6337,-0.200,0.065
6338,-0.180,0.070
6339,-0.190,0.075
6340,-0.215,0.095
6341,-0.245,0.075
6342,-0.235,0.090
6343,-0.245,0.085
6344,-0.250,0.075
6345,-0.250,0.070
6346,-0.225,0.060
6347,-0.200,0.055
6348,-0.190,0.055
6349,-0.170,0.065
6350,-0.150,0.050
6351,-0.140,0.055
6352,-0.160,0.055
6353,-0.180,0.065
6354,-0.215,0.075
6355,-0.265,0.085
6356,-0.285,0.080
6357,-0.280,0.070
6358,-0.250,0.055
6359,-0.235,0.055
6360,-0.205,0.055
6361,-0.190,0.070
6362,-0.190,0.080
6363,-0.205,0.100
6364,-0.235,0.110
6365,-0.260,0.105
6366,-0.290,0.095
6367,-0.305,0.085
6368,-0.305,0.070
6369,-0.280,0.065
6370,-0.240,0.055
6371,-0.220,0.065
6372,-0.200,0.080
6373,-0.190,0.085
6374,-0.205,0.100
6375,-0.215,0.090
6376,-0.230,0.090
6377,-0.250,0.085
6378,-0.270,0.075
6379,-0.265,0.045
6380,-0.250,0.045
6381,-0.215,0.035
6382,-0.180,0.035
6383,-0.165,0.060
6384,-0.160,0.075
6385,-0.165,0.080
6386,-0.185,0.090
6387,-0.200,0.090
6388,-0.215,0.085
6389,-0.225,0.090
6390,-0.225,0.085
6391,-0.230,0.070
6392,-0.230,0.065
6393,-0.230,0.070
6394,-0.230,0.060
6395,-0.215,0.075
6396,-0.195,0.065
6397,-0.185,0.075
6398,-0.175,0.080
6399,-0.200,0.090
6400,-0.220,0.105
6401,-0.240,0.110
6402,-0.250,0.100
6403,-0.250,0.100
6404,-0.230,0.080
6405,-0.215,0.075
6406,-0.170,0.075
6407,-0.160,0.095
6408,-0.155,0.100
6409,-0.155,0.115
6410,-0.160,0.120
6411,-0.150,0.105
6412,-0.140,0.090
6413,-0.135,0.085
6414,-0.145,0.075
6415,-0.150,0.070
6416,-0.160,0.070
6417,-0.180,0.065
6418,-0.185,0.065
6419,-0.175,0.060
6420,-0.160,0.055
6421,-0.150,0.050
6422,-0.145,0.070
6423,-0.155,0.070
6424,-0.175,0.075
6425,-0.205,0.065
6426,-0.215,0.065
6427,-0.230,0.050
6428,-0.230,0.030
6429,-0.220,0.025
6430,-0.200,0.035
6431,-0.190,0.045
6432,-0.190,0.040
6433,-0.185,0.060
6434,-0.180,0.070
6435,-0.180,0.095
6436,-0.205,0.100
6437,-0.215,0.115
6438,-0.240,0.095
6439,-0.235,0.070
6440,-0.230,0.070
6441,-0.220,0.055
6442,-0.220,0.055
6443,-0.215,0.070
6444,-0.225,0.090
6445,-0.225,0.090
6446,-0.245,0.095
6447,-0.255,0.095
6448,-0.255,0.085
6449,-0.250,0.080
6450,-0.255,0.070
6451,-0.265,0.065
6452,-0.235,0.065
6453,-0.230,0.085
6454,-0.220,0.095
6455,-0.225,0.090
6456,-0.235,0.105
6457,-0.245,0.100
6458,-0.220,0.100
6459,-0.215,0.090
6460,-0.200,0.080
6461,-0.215,0.085
6462,-0.230,0.085
6463,-0.255,0.085
6464,-0.275,0.085
6465,-0.285,0.085
6466,-0.265,0.080
6467,-0.250,0.095
6468,-0.225,0.085
6469,-0.200,0.095
6470,-0.195,0.120
6471,-0.220,0.145
6472,-0.255,0.155
6473,-0.270,0.165
6474,-0.250,0.165
6475,-0.210,0.155
6476,-0.160,0.120
6477,-0.115,0.090
6478,-0.080,0.030
6479,-0.025,-0.045
6480,0.035,-0.150
6481,0.120,-0.265
6482,0.195,-0.380
6483,0.245,-0.475
6484,0.235,-0.545
6485,0.150,-0.565
6486,-0.035,-0.525
6487,-0.240,-0.425
6488,-0.420,-0.265
6489,-0.520,-0.065
6490,-0.550,0.115
6491,-0.525,0.280
6492,-0.485,0.395
6493,-0.465,0.460
6494,-0.445,0.495
6495,-0.445,0.495
6496,-0.445,0.485
6497,-0.460,0.485
6498,-0.485,0.480
6499,-0.500,0.500
6500,-0.510,0.515
6501,-0.505,0.535
6502,-0.475,0.560
6503,-0.445,0.585
6504,-0.420,0.625
6505,-0.390,0.655
6506,-0.395,0.680
6507,-0.405,0.685
6508,-0.440,0.690
6509,-0.445,0.665
6510,-0.465,0.610
6511,-0.465,0.570
6512,-0.455,0.510
6513,-0.435,0.460
6514,-0.395,0.395
6515,-0.380,0.335
6516,-0.360,0.285
6517,-0.330,0.220
6518,-0.305,0.165
6519,-0.265,0.105
6520,-0.240,0.085
6521,-0.210,0.060
6522,-0.210,0.050
6523,-0.210,0.060
6524,-0.245,0.065
6525,-0.250,0.060
6526,-0.240,0.045
6527,-0.220,0.055
6528,-0.190,0.050
6529,-0.190,0.075
6530,-0.215,0.090
6531,-0.250,0.090
6532,-0.290,0.100
6533,-0.280,0.070
6534,-0.275,0.055
6535,-0.265,0.045
6536,-0.255,0.035
6537,-0.260,0.060
6538,-0.265,0.055
6539,-0.270,0.060
6540,-0.275,0.060
6541,-0.265,0.065
6542,-0.260,0.050
6543,-0.255,0.060
6544,-0.245,0.045
6545,-0.250,0.040
6546,-0.230,0.035
6547,-0.230,0.030
6548,-0.240,0.015
6549,-0.215,0.015
6550,-0.205,0.035
6551,-0.210,0.025
6552,-0.210,0.030
6553,-0.195,0.030
6554,-0.195,0.020
6555,-0.220,0.015
6556,-0.205,-0.005
6557,-0.200,-0.020
6558,-0.190,-0.035
6559,-0.150,-0.040
6560,-0.140,-0.035
6561,-0.160,-0.010
6562,-0.195,0.000
6563,-0.245,0.005
6564,-0.255,0.000
6565,-0.230,-0.020
6566,-0.200,-0.035
6567,-0.170,-0.045
6568,-0.130,-0.050
6569,-0.125,-0.040
6570,-0.150,-0.055
6571,-0.160,-0.065
6572,-0.170,-0.090
6573,-0.180,-0.100
6574,-0.170,-0.105
6575,-0.145,-0.120
6576,-0.120,-0.120
6577,-0.100,-0.130
6578,-0.075,-0.125
6579,-0.095,-0.120
6580,-0.105,-0.125
6581,-0.115,-0.140
6582,-0.085,-0.145
6583,-0.070,-0.175
6584,-0.070,-0.180
6585,-0.080,-0.185
6586,-0.070,-0.190
6587,-0.070,-0.180
6588,-0.065,-0.180
6589,-0.065,-0.160
6590,-0.060,-0.160
6591,-0.055,-0.170
6592,-0.070,-0.155
6593,-0.075,-0.155
6594,-0.085,-0.190
6595,-0.075,-0.195
6596,-0.060,-0.200
6597,-0.055,-0.185
6598,-0.035,-0.175
6599,-0.040,-0.145
6600,-0.050,-0.130
6601,-0.070,-0.115
6602,-0.045,-0.140
6603,-0.040,-0.120
6604,-0.030,-0.080
6605,-0.050,-0.065
6606,-0.070,-0.065
6607,-0.095,-0.055
6608,-0.115,-0.045
6609,-0.105,-0.040
6610,-0.095,-0.010
6611,-0.120,0.010
6612,-0.145,0.020
6613,-0.160,0.030
6614,-0.150,0.035
6615,-0.145,0.045
6616,-0.160,0.060
6617,-0.160,0.080
6618,-0.170,0.090
6619,-0.185,0.065
6620,-0.185,0.065
6621,-0.190,0.075
6622,-0.200,0.080
6623,-0.220,0.100
6624,-0.230,0.100
6625,-0.240,0.110
6626,-0.235,0.105
6627,-0.260,0.115
6628,-0.300,0.110
6629,-0.330,0.090
6630,-0.345,0.070
6631,-0.355,0.045
6632,-0.345,0.040
6633,-0.315,0.035
6634,-0.285,0.030
6635,-0.265,0.045
6636,-0.250,0.045
6637,-0.250,0.060
6638,-0.255,0.065
6639,-0.250,0.075
6640,-0.255,0.080
6641,-0.255,0.060
6642,-0.275,0.055
6643,-0.275,0.050
6644,-0.275,0.040
6645,-0.260,0.040
6646,-0.235,0.050
6647,-0.220,0.065
6648,-0.220,0.080
6649,-0.215,0.090
6650,-0.220,0.100
6651,-0.225,0.115
6652,-0.245,0.100
6653,-0.235,0.095
6654,-0.260,0.075
6655,-0.265,0.070
6656,-0.280,0.075
6657,-0.270,0.070
6658,-0.260,0.070
6659,-0.230,0.075
6660,-0.215,0.070
6661,-0.210,0.075
6662,-0.210,0.065
6663,-0.215,0.085
6664,-0.240,0.080
6665,-0.245,0.085
6666,-0.265,0.075
6667,-0.260,0.070
6668,-0.250,0.065
6669,-0.225,0.065
6670,-0.205,0.075
6671,-0.200,0.095
6672,-0.200,0.130
6673,-0.220,0.155
6674,-0.230,0.165
6675,-0.240,0.145
6676,-0.235,0.135
6677,-0.225,0.115
6678,-0.220,0.090
6679,-0.200,0.080
6680,-0.190,0.085
6681,-0.200,0.100
6682,-0.215,0.110
6683,-0.245,0.130
6684,-0.265,0.135
6685,-0.260,0.140
6686,-0.245,0.120
6687,-0.215,0.110
6688,-0.185,0.095
6689,-0.175,0.105
6690,-0.205,0.120
6691,-0.235,0.130
6692,-0.285,0.155
6693,-0.295,0.150
6694,-0.300,0.155
6695,-0.285,0.145
6696,-0.265,0.145
6697,-0.245,0.125
