'sample interval','MLII','V1'
'0.00277778 sec','mV','mV'
0,-0.690,-0.380
1,-0.690,-0.380
2,-0.690,-0.380
3,-0.690,-0.380
4,-0.690,-0.380
5,-0.690,-0.380
6,-0.690,-0.380
7,-0.670,-0.380
8,-0.635,-0.380
9,-0.600,-0.385
10,-0.535,-0.385
11,-0.420,-0.350
12,-0.240,-0.320
13,0.020,-0.280
14,0.375,-0.230
15,0.770,-0.220
16,1.130,-0.240
17,1.375,-0.330
18,1.435,-0.475
19,1.225,-0.645
20,0.720,-0.865
21,0.080,-1.040
22,-0.560,-1.160
23,-1.200,-1.155
24,-1.685,-1.070
25,-1.610,-0.940
26,-1.355,-0.800
27,-1.100,-0.675
28,-0.910,-0.580
29,-0.815,-0.515
30,-0.790,-0.490
31,-0.820,-0.465
32,-0.845,-0.450
33,-0.865,-0.440
34,-0.865,-0.430
35,-0.870,-0.420
36,-0.870,-0.415
37,-0.870,-0.400
38,-0.865,-0.385
39,-0.865,-0.370
40,-0.870,-0.360
41,-0.855,-0.345
42,-0.860,-0.350
43,-0.860,-0.355
44,-0.860,-0.355
45,-0.865,-0.365
46,-0.865,-0.360
47,-0.870,-0.355
48,-0.860,-0.345
49,-0.850,-0.360
50,-0.855,-0.345
51,-0.820,-0.340
52,-0.815,-0.345
53,-0.815,-0.320
54,-0.815,-0.330
55,-0.815,-0.325
56,-0.805,-0.335
57,-0.795,-0.325
58,-0.790,-0.340
59,-0.800,-0.350
60,-0.800,-0.345
61,-0.790,-0.345
62,-0.775,-0.335
63,-0.775,-0.325
64,-0.765,-0.315
65,-0.755,-0.310
66,-0.750,-0.305
67,-0.745,-0.315
68,-0.740,-0.335
69,-0.735,-0.340
70,-0.735,-0.335
71,-0.740,-0.335
72,-0.755,-0.320
73,-0.740,-0.325
74,-0.730,-0.310
75,-0.720,-0.305
76,-0.710,-0.320
77,-0.695,-0.315
78,-0.690,-0.320
79,-0.675,-0.315
80,-0.675,-0.330
81,-0.680,-0.320
82,-0.675,-0.320
83,-0.670,-0.320
84,-0.670,-0.325
85,-0.670,-0.325
86,-0.655,-0.315
87,-0.650,-0.315
88,-0.635,-0.305
89,-0.630,-0.300
90,-0.620,-0.300
91,-0.615,-0.305
92,-0.605,-0.305
93,-0.595,-0.320
94,-0.600,-0.315
95,-0.595,-0.320
96,-0.595,-0.320
97,-0.590,-0.300
98,-0.580,-0.290
99,-0.575,-0.285
100,-0.565,-0.275
101,-0.550,-0.280
102,-0.550,-0.295
103,-0.550,-0.305
104,-0.550,-0.310
105,-0.560,-0.310
106,-0.550,-0.320
107,-0.555,-0.315
108,-0.555,-0.315
109,-0.545,-0.310
110,-0.520,-0.315
111,-0.490,-0.310
112,-0.465,-0.300
113,-0.470,-0.305
114,-0.460,-0.315
115,-0.460,-0.320
116,-0.445,-0.325
117,-0.440,-0.330
118,-0.440,-0.355
119,-0.420,-0.350
120,-0.410,-0.360
121,-0.420,-0.370
122,-0.415,-0.360
123,-0.420,-0.350
124,-0.425,-0.360
125,-0.430,-0.355
126,-0.445,-0.375
127,-0.460,-0.365
128,-0.480,-0.385
129,-0.495,-0.405
130,-0.515,-0.405
131,-0.545,-0.410
132,-0.550,-0.395
133,-0.580,-0.400
134,-0.590,-0.380
135,-0.595,-0.385
136,-0.600,-0.380
137,-0.610,-0.380
138,-0.625,-0.390
139,-0.645,-0.395
140,-0.660,-0.405
141,-0.670,-0.395
142,-0.685,-0.395
143,-0.685,-0.400
144,-0.695,-0.400
145,-0.695,-0.395
146,-0.695,-0.390
147,-0.690,-0.385
148,-0.695,-0.375
149,-0.685,-0.370
150,-0.700,-0.375
151,-0.700,-0.385
152,-0.700,-0.390
153,-0.705,-0.400
154,-0.705,-0.405
155,-0.715,-0.420
156,-0.715,-0.415
157,-0.715,-0.405
158,-0.715,-0.380
159,-0.710,-0.365
160,-0.700,-0.360
161,-0.685,-0.365
162,-0.680,-0.370
163,-0.685,-0.375
164,-0.685,-0.405
165,-0.685,-0.400
166,-0.690,-0.400
167,-0.695,-0.410
168,-0.680,-0.390
169,-0.670,-0.385
170,-0.650,-0.385
171,-0.650,-0.380
172,-0.645,-0.365
173,-0.625,-0.350
174,-0.635,-0.370
175,-0.640,-0.365
176,-0.640,-0.380
177,-0.640,-0.385
178,-0.630,-0.400
179,-0.645,-0.400
180,-0.640,-0.400
181,-0.645,-0.390
182,-0.635,-0.370
183,-0.635,-0.365
184,-0.625,-0.365
185,-0.615,-0.365
186,-0.615,-0.365
187,-0.610,-0.380
188,-0.620,-0.395
189,-0.640,-0.405
190,-0.640,-0.410
191,-0.650,-0.400
192,-0.650,-0.395
193,-0.650,-0.380
194,-0.645,-0.375
195,-0.640,-0.385
196,-0.645,-0.385
197,-0.635,-0.375
198,-0.645,-0.390
199,-0.650,-0.390
200,-0.655,-0.390
201,-0.655,-0.385
202,-0.680,-0.405
203,-0.670,-0.405
204,-0.680,-0.400
205,-0.680,-0.395
206,-0.680,-0.385
207,-0.675,-0.365
208,-0.670,-0.360
209,-0.675,-0.360
210,-0.670,-0.370
211,-0.675,-0.380
212,-0.675,-0.395
213,-0.675,-0.395
214,-0.685,-0.395
215,-0.700,-0.410
216,-0.705,-0.395
217,-0.695,-0.390
218,-0.705,-0.385
219,-0.695,-0.365
220,-0.690,-0.370
221,-0.680,-0.370
222,-0.685,-0.380
223,-0.685,-0.390
224,-0.690,-0.395
225,-0.700,-0.400
226,-0.705,-0.400
227,-0.715,-0.405
228,-0.725,-0.400
229,-0.730,-0.400
230,-0.725,-0.390
231,-0.705,-0.395
232,-0.710,-0.385
233,-0.705,-0.365
234,-0.705,-0.370
235,-0.695,-0.375
236,-0.710,-0.395
237,-0.715,-0.405
238,-0.720,-0.405
239,-0.725,-0.405
240,-0.730,-0.400
241,-0.740,-0.395
242,-0.730,-0.380
243,-0.725,-0.380
244,-0.730,-0.370
245,-0.715,-0.365
246,-0.720,-0.380
247,-0.720,-0.375
248,-0.710,-0.385
249,-0.730,-0.400
250,-0.755,-0.405
251,-0.750,-0.405
252,-0.750,-0.405
253,-0.735,-0.400
254,-0.740,-0.385
255,-0.725,-0.380
256,-0.725,-0.365
257,-0.715,-0.370
258,-0.710,-0.380
259,-0.710,-0.385
260,-0.710,-0.390
261,-0.715,-0.400
262,-0.710,-0.405
263,-0.715,-0.410
264,-0.710,-0.395
265,-0.710,-0.390
266,-0.700,-0.370
267,-0.670,-0.360
268,-0.655,-0.355
269,-0.630,-0.355
270,-0.620,-0.360
271,-0.605,-0.355
272,-0.605,-0.345
273,-0.605,-0.335
274,-0.600,-0.330
275,-0.590,-0.340
276,-0.580,-0.350
277,-0.570,-0.365
278,-0.570,-0.380
279,-0.580,-0.400
280,-0.605,-0.415
281,-0.600,-0.420
282,-0.610,-0.410
283,-0.620,-0.425
284,-0.615,-0.430
285,-0.635,-0.425
286,-0.640,-0.435
287,-0.650,-0.430
288,-0.660,-0.420
289,-0.670,-0.405
290,-0.690,-0.380
291,-0.695,-0.375
292,-0.700,-0.370
293,-0.700,-0.365
294,-0.700,-0.385
295,-0.710,-0.395
296,-0.715,-0.405
297,-0.720,-0.405
298,-0.725,-0.420
299,-0.725,-0.420
300,-0.725,-0.420
301,-0.730,-0.405
302,-0.705,-0.400
303,-0.695,-0.390
304,-0.680,-0.375
305,-0.630,-0.380
306,-0.590,-0.365
307,-0.515,-0.340
308,-0.360,-0.300
309,-0.100,-0.260
310,0.245,-0.220
311,0.675,-0.215
312,1.070,-0.250
313,1.355,-0.345
314,1.450,-0.470
315,1.300,-0.655
316,0.860,-0.835
317,0.220,-1.020
318,-0.420,-1.150
319,-1.060,-1.200
320,-1.485,-1.170
321,-1.520,-1.070
322,-1.345,-0.950
323,-1.115,-0.835
324,-0.940,-0.720
325,-0.825,-0.625
326,-0.815,-0.560
327,-0.830,-0.515
328,-0.835,-0.480
329,-0.845,-0.450
330,-0.835,-0.435
331,-0.840,-0.415
332,-0.835,-0.395
333,-0.830,-0.400
334,-0.840,-0.390
335,-0.845,-0.390
336,-0.860,-0.385
337,-0.865,-0.380
338,-0.855,-0.375
339,-0.875,-0.345
340,-0.865,-0.335
341,-0.850,-0.320
342,-0.845,-0.325
343,-0.845,-0.335
344,-0.850,-0.350
345,-0.840,-0.365
346,-0.840,-0.360
347,-0.845,-0.360
348,-0.840,-0.345
349,-0.835,-0.340
350,-0.830,-0.325
351,-0.815,-0.330
352,-0.805,-0.310
353,-0.795,-0.315
354,-0.775,-0.325
355,-0.785,-0.330
356,-0.800,-0.330
357,-0.795,-0.330
358,-0.795,-0.335
359,-0.790,-0.340
360,-0.780,-0.340
361,-0.775,-0.330
362,-0.775,-0.325
363,-0.775,-0.315
364,-0.760,-0.315
365,-0.740,-0.300
366,-0.735,-0.305
367,-0.735,-0.295
368,-0.730,-0.305
369,-0.730,-0.310
370,-0.720,-0.330
371,-0.730,-0.335
372,-0.730,-0.330
373,-0.730,-0.335
374,-0.710,-0.310
375,-0.705,-0.305
376,-0.690,-0.295
377,-0.670,-0.300
378,-0.655,-0.305
379,-0.655,-0.310
380,-0.650,-0.320
381,-0.650,-0.320
382,-0.660,-0.320
383,-0.655,-0.325
384,-0.635,-0.315
385,-0.640,-0.320
386,-0.635,-0.310
387,-0.610,-0.315
388,-0.605,-0.295
389,-0.590,-0.290
390,-0.595,-0.285
391,-0.585,-0.285
392,-0.570,-0.290
393,-0.570,-0.310
394,-0.575,-0.320
395,-0.575,-0.330
396,-0.585,-0.320
397,-0.585,-0.305
398,-0.575,-0.290
399,-0.575,-0.285
400,-0.555,-0.290
401,-0.545,-0.285
402,-0.535,-0.285
403,-0.525,-0.295
404,-0.520,-0.305
405,-0.525,-0.305
406,-0.525,-0.320
407,-0.505,-0.320
408,-0.515,-0.315
409,-0.495,-0.315
410,-0.475,-0.310
411,-0.465,-0.315
412,-0.445,-0.315
413,-0.435,-0.310
414,-0.420,-0.335
415,-0.410,-0.310
416,-0.400,-0.345
417,-0.395,-0.350
418,-0.405,-0.365
419,-0.415,-0.380
420,-0.415,-0.395
421,-0.420,-0.395
422,-0.440,-0.395
423,-0.440,-0.385
424,-0.460,-0.380
425,-0.470,-0.370
426,-0.480,-0.370
427,-0.500,-0.375
428,-0.510,-0.390
429,-0.545,-0.400
430,-0.575,-0.420
431,-0.590,-0.415
432,-0.610,-0.405
433,-0.625,-0.395
434,-0.645,-0.395
435,-0.640,-0.390
436,-0.640,-0.390
437,-0.630,-0.375
438,-0.630,-0.390
439,-0.645,-0.385
440,-0.650,-0.400
441,-0.660,-0.410
442,-0.680,-0.400
443,-0.705,-0.400
444,-0.710,-0.405
445,-0.705,-0.400
446,-0.700,-0.395
447,-0.695,-0.395
448,-0.700,-0.390
449,-0.680,-0.395
450,-0.690,-0.380
451,-0.700,-0.380
452,-0.705,-0.385
453,-0.705,-0.385
454,-0.725,-0.400
455,-0.720,-0.410
456,-0.720,-0.405
457,-0.705,-0.400
458,-0.690,-0.390
459,-0.685,-0.385
460,-0.680,-0.380
461,-0.670,-0.370
462,-0.670,-0.380
463,-0.660,-0.380
464,-0.660,-0.390
465,-0.665,-0.395
466,-0.660,-0.395
467,-0.670,-0.400
468,-0.665,-0.395
469,-0.660,-0.385
470,-0.645,-0.385
471,-0.630,-0.395
472,-0.625,-0.385
473,-0.625,-0.380
474,-0.615,-0.375
475,-0.630,-0.380
476,-0.625,-0.370
477,-0.640,-0.380
478,-0.630,-0.385
479,-0.630,-0.405
480,-0.635,-0.405
481,-0.630,-0.400
482,-0.620,-0.395
483,-0.625,-0.380
484,-0.630,-0.365
485,-0.615,-0.360
486,-0.610,-0.375
487,-0.615,-0.380
488,-0.620,-0.385
489,-0.625,-0.395
490,-0.640,-0.400
491,-0.645,-0.400
492,-0.650,-0.395
493,-0.650,-0.390
494,-0.645,-0.375
495,-0.645,-0.375
496,-0.640,-0.380
497,-0.630,-0.380
498,-0.635,-0.380
499,-0.650,-0.385
500,-0.655,-0.380
501,-0.675,-0.395
502,-0.695,-0.390
503,-0.685,-0.395
504,-0.695,-0.385
505,-0.705,-0.390
506,-0.705,-0.390
507,-0.690,-0.385
508,-0.685,-0.375
509,-0.685,-0.365
510,-0.680,-0.380
511,-0.680,-0.375
512,-0.700,-0.380
513,-0.710,-0.385
514,-0.720,-0.400
515,-0.720,-0.405
516,-0.725,-0.405
517,-0.725,-0.395
518,-0.730,-0.395
519,-0.740,-0.380
520,-0.715,-0.375
521,-0.710,-0.365
522,-0.710,-0.370
523,-0.715,-0.380
524,-0.715,-0.390
525,-0.725,-0.395
526,-0.740,-0.410
527,-0.755,-0.405
528,-0.755,-0.385
529,-0.745,-0.375
530,-0.750,-0.375
531,-0.740,-0.365
532,-0.730,-0.380
533,-0.725,-0.370
534,-0.710,-0.380
535,-0.715,-0.370
536,-0.730,-0.380
537,-0.740,-0.380
538,-0.755,-0.390
539,-0.750,-0.410
540,-0.755,-0.400
541,-0.760,-0.395
542,-0.760,-0.405
543,-0.750,-0.385
544,-0.755,-0.380
545,-0.740,-0.370
546,-0.730,-0.375
547,-0.715,-0.375
548,-0.715,-0.395
549,-0.725,-0.400
550,-0.730,-0.415
551,-0.740,-0.395
552,-0.745,-0.390
553,-0.755,-0.385
554,-0.745,-0.385
555,-0.735,-0.365
556,-0.745,-0.370
557,-0.730,-0.365
558,-0.730,-0.375
559,-0.725,-0.390
560,-0.720,-0.385
561,-0.725,-0.385
562,-0.725,-0.390
563,-0.735,-0.390
564,-0.725,-0.380
565,-0.710,-0.400
566,-0.695,-0.380
567,-0.680,-0.385
568,-0.665,-0.365
569,-0.650,-0.340
570,-0.640,-0.345
571,-0.630,-0.330
572,-0.615,-0.335
573,-0.610,-0.340
574,-0.600,-0.335
575,-0.595,-0.355
576,-0.600,-0.350
577,-0.600,-0.360
578,-0.600,-0.370
579,-0.605,-0.365
580,-0.625,-0.390
581,-0.630,-0.395
582,-0.635,-0.405
583,-0.645,-0.420
584,-0.645,-0.430
585,-0.635,-0.430
586,-0.645,-0.425
587,-0.655,-0.420
588,-0.670,-0.410
589,-0.660,-0.405
590,-0.680,-0.380
591,-0.695,-0.375
592,-0.705,-0.370
593,-0.710,-0.380
594,-0.720,-0.365
595,-0.730,-0.385
596,-0.735,-0.385
597,-0.740,-0.405
598,-0.750,-0.415
599,-0.740,-0.410
600,-0.745,-0.410
601,-0.715,-0.420
602,-0.700,-0.405
603,-0.665,-0.380
604,-0.625,-0.360
605,-0.560,-0.350
606,-0.470,-0.335
607,-0.325,-0.305
608,-0.075,-0.285
609,0.230,-0.260
610,0.625,-0.235
611,0.995,-0.245
612,1.295,-0.290
613,1.440,-0.370
614,1.405,-0.510
615,1.160,-0.655
616,0.675,-0.810
617,0.035,-0.970
618,-0.605,-1.085
619,-1.245,-1.115
620,-1.590,-1.085
621,-1.585,-0.990
622,-1.375,-0.880
623,-1.165,-0.785
624,-0.985,-0.680
625,-0.885,-0.605
626,-0.855,-0.545
627,-0.870,-0.505
628,-0.885,-0.480
629,-0.885,-0.435
630,-0.870,-0.415
631,-0.840,-0.400
632,-0.835,-0.400
633,-0.835,-0.395
634,-0.845,-0.410
635,-0.860,-0.410
636,-0.875,-0.400
637,-0.890,-0.385
638,-0.880,-0.360
639,-0.875,-0.340
640,-0.865,-0.340
641,-0.855,-0.340
642,-0.835,-0.340
643,-0.845,-0.345
644,-0.850,-0.355
645,-0.860,-0.355
646,-0.865,-0.350
647,-0.870,-0.360
648,-0.860,-0.345
649,-0.860,-0.345
650,-0.850,-0.340
651,-0.835,-0.335
652,-0.825,-0.330
653,-0.810,-0.335
654,-0.800,-0.330
655,-0.800,-0.320
656,-0.805,-0.325
657,-0.810,-0.325
658,-0.815,-0.330
659,-0.810,-0.345
660,-0.805,-0.335
661,-0.800,-0.340
662,-0.790,-0.345
663,-0.780,-0.330
664,-0.775,-0.330
665,-0.760,-0.315
666,-0.755,-0.310
667,-0.745,-0.315
668,-0.745,-0.325
669,-0.730,-0.330
670,-0.720,-0.340
671,-0.725,-0.330
672,-0.730,-0.340
673,-0.715,-0.335
674,-0.715,-0.310
675,-0.705,-0.290
676,-0.705,-0.300
677,-0.685,-0.300
678,-0.685,-0.315
679,-0.675,-0.325
680,-0.675,-0.325
681,-0.675,-0.315
682,-0.675,-0.320
683,-0.670,-0.315
684,-0.665,-0.315
685,-0.650,-0.305
686,-0.640,-0.315
687,-0.630,-0.305
688,-0.625,-0.320
689,-0.615,-0.300
690,-0.615,-0.300
691,-0.610,-0.300
692,-0.600,-0.285
693,-0.600,-0.310
694,-0.610,-0.315
695,-0.605,-0.325
696,-0.605,-0.330
697,-0.595,-0.315
698,-0.605,-0.310
699,-0.605,-0.290
700,-0.595,-0.275
701,-0.575,-0.265
702,-0.565,-0.280
703,-0.565,-0.290
704,-0.575,-0.285
705,-0.575,-0.310
706,-0.580,-0.320
707,-0.585,-0.315
708,-0.585,-0.315
709,-0.570,-0.300
710,-0.560,-0.295
711,-0.550,-0.285
712,-0.540,-0.290
713,-0.520,-0.290
714,-0.495,-0.290
715,-0.485,-0.290
716,-0.490,-0.315
717,-0.490,-0.315
718,-0.470,-0.315
719,-0.475,-0.325
720,-0.480,-0.325
721,-0.470,-0.345
722,-0.440,-0.340
723,-0.420,-0.340
724,-0.430,-0.345
725,-0.420,-0.350
726,-0.435,-0.355
727,-0.455,-0.360
728,-0.485,-0.370
729,-0.505,-0.370
730,-0.515,-0.390
731,-0.530,-0.390
732,-0.555,-0.395
733,-0.585,-0.395
734,-0.595,-0.375
735,-0.620,-0.365
736,-0.605,-0.370
737,-0.615,-0.370
738,-0.620,-0.370
739,-0.630,-0.390
740,-0.635,-0.395
741,-0.645,-0.395
742,-0.665,-0.410
743,-0.680,-0.400
744,-0.690,-0.400
745,-0.705,-0.380
746,-0.705,-0.380
747,-0.710,-0.375
748,-0.715,-0.375
749,-0.705,-0.375
750,-0.695,-0.390
751,-0.715,-0.385
752,-0.710,-0.390
753,-0.715,-0.395
754,-0.730,-0.400
755,-0.725,-0.410
756,-0.730,-0.400
757,-0.720,-0.385
758,-0.720,-0.385
759,-0.720,-0.370
760,-0.705,-0.360
761,-0.695,-0.355
762,-0.690,-0.375
763,-0.690,-0.365
764,-0.680,-0.395
765,-0.675,-0.395
766,-0.675,-0.405
767,-0.680,-0.405
768,-0.680,-0.390
769,-0.680,-0.385
770,-0.675,-0.370
771,-0.670,-0.360
772,-0.660,-0.365
773,-0.645,-0.355
774,-0.635,-0.370
775,-0.635,-0.385
776,-0.640,-0.375
777,-0.650,-0.385
778,-0.655,-0.390
779,-0.655,-0.380
780,-0.650,-0.385
781,-0.645,-0.380
782,-0.640,-0.385
783,-0.625,-0.365
784,-0.605,-0.370
785,-0.600,-0.360
786,-0.595,-0.355
787,-0.610,-0.350
788,-0.610,-0.365
789,-0.625,-0.370
790,-0.630,-0.385
791,-0.635,-0.400
792,-0.650,-0.400
793,-0.655,-0.385
794,-0.645,-0.385
795,-0.650,-0.375
796,-0.640,-0.355
797,-0.640,-0.365
798,-0.625,-0.360
799,-0.620,-0.365
800,-0.620,-0.395
801,-0.635,-0.395
802,-0.645,-0.405
803,-0.660,-0.405
804,-0.675,-0.395
805,-0.685,-0.385
806,-0.685,-0.375
807,-0.680,-0.370
808,-0.675,-0.365
809,-0.680,-0.370
810,-0.675,-0.370
811,-0.675,-0.370
812,-0.690,-0.385
813,-0.695,-0.380
814,-0.695,-0.385
815,-0.695,-0.385
816,-0.695,-0.395
817,-0.705,-0.405
818,-0.715,-0.390
819,-0.715,-0.385
820,-0.700,-0.375
821,-0.695,-0.370
822,-0.700,-0.370
823,-0.700,-0.360
824,-0.715,-0.365
825,-0.725,-0.390
826,-0.720,-0.400
827,-0.725,-0.405
828,-0.750,-0.405
829,-0.745,-0.395
830,-0.730,-0.380
831,-0.730,-0.370
832,-0.730,-0.365
833,-0.705,-0.350
834,-0.720,-0.365
835,-0.720,-0.385
836,-0.720,-0.385
837,-0.730,-0.395
838,-0.735,-0.395
839,-0.745,-0.390
840,-0.745,-0.390
841,-0.740,-0.390
842,-0.740,-0.390
843,-0.740,-0.390
844,-0.735,-0.380
845,-0.725,-0.365
846,-0.725,-0.365
847,-0.720,-0.365
848,-0.730,-0.375
849,-0.730,-0.385
850,-0.745,-0.395
851,-0.745,-0.400
852,-0.755,-0.400
853,-0.750,-0.400
854,-0.750,-0.390
855,-0.755,-0.380
856,-0.735,-0.370
857,-0.710,-0.355
858,-0.710,-0.360
859,-0.705,-0.375
860,-0.710,-0.375
861,-0.720,-0.385
862,-0.720,-0.395
863,-0.735,-0.410
864,-0.745,-0.395
865,-0.730,-0.395
866,-0.720,-0.380
867,-0.710,-0.380
868,-0.705,-0.370
869,-0.680,-0.375
870,-0.665,-0.365
871,-0.650,-0.370
872,-0.650,-0.370
873,-0.640,-0.375
874,-0.620,-0.360
875,-0.625,-0.365
876,-0.610,-0.350
877,-0.595,-0.345
878,-0.595,-0.340
879,-0.575,-0.330
880,-0.565,-0.340
881,-0.560,-0.350
882,-0.575,-0.360
883,-0.595,-0.385
884,-0.605,-0.405
885,-0.625,-0.430
886,-0.635,-0.435
887,-0.640,-0.445
888,-0.640,-0.430
889,-0.635,-0.420
890,-0.640,-0.415
891,-0.640,-0.400
892,-0.650,-0.385
893,-0.665,-0.380
894,-0.665,-0.380
895,-0.685,-0.375
896,-0.710,-0.390
897,-0.720,-0.390
898,-0.740,-0.390
899,-0.745,-0.400
900,-0.745,-0.415
901,-0.730,-0.405
902,-0.715,-0.395
903,-0.705,-0.395
904,-0.710,-0.395
905,-0.695,-0.385
906,-0.660,-0.375
907,-0.630,-0.375
908,-0.585,-0.370
909,-0.530,-0.360
910,-0.430,-0.350
911,-0.250,-0.340
912,0.010,-0.280
913,0.340,-0.250
914,0.745,-0.215
915,1.140,-0.225
916,1.390,-0.300
917,1.480,-0.405
918,1.330,-0.570
919,0.890,-0.745
920,0.250,-0.915
921,-0.390,-1.050
922,-1.030,-1.095
923,-1.670,-1.055
924,-1.700,-0.970
925,-1.495,-0.865
926,-1.220,-0.755
927,-0.990,-0.660
928,-0.870,-0.580
929,-0.825,-0.525
930,-0.840,-0.500
931,-0.865,-0.460
932,-0.875,-0.455
933,-0.865,-0.435
934,-0.835,-0.425
935,-0.820,-0.430
936,-0.815,-0.410
937,-0.830,-0.400
938,-0.835,-0.390
939,-0.835,-0.365
940,-0.840,-0.345
941,-0.840,-0.340
942,-0.830,-0.360
943,-0.825,-0.355
944,-0.830,-0.360
945,-0.845,-0.365
946,-0.845,-0.370
947,-0.840,-0.355
948,-0.840,-0.355
949,-0.830,-0.350
950,-0.825,-0.345
951,-0.800,-0.355
952,-0.795,-0.345
953,-0.785,-0.325
954,-0.780,-0.330
955,-0.795,-0.320
956,-0.800,-0.325
957,-0.800,-0.320
958,-0.790,-0.330
959,-0.785,-0.350
960,-0.790,-0.355
961,-0.785,-0.345
962,-0.790,-0.350
963,-0.770,-0.345
964,-0.765,-0.320
965,-0.755,-0.305
966,-0.745,-0.310
967,-0.725,-0.325
968,-0.725,-0.330
969,-0.725,-0.340
970,-0.730,-0.335
971,-0.730,-0.350
972,-0.725,-0.345
973,-0.715,-0.335
974,-0.705,-0.315
975,-0.695,-0.330
976,-0.685,-0.320
977,-0.670,-0.320
978,-0.660,-0.320
979,-0.645,-0.325
980,-0.640,-0.320
981,-0.645,-0.315
982,-0.650,-0.305
983,-0.640,-0.330
984,-0.640,-0.330
985,-0.635,-0.335
986,-0.620,-0.335
987,-0.615,-0.320
988,-0.620,-0.310
989,-0.610,-0.295
990,-0.600,-0.295
991,-0.605,-0.295
992,-0.595,-0.310
993,-0.595,-0.310
994,-0.595,-0.325
995,-0.595,-0.335
996,-0.590,-0.330
997,-0.580,-0.325
998,-0.570,-0.320
999,-0.555,-0.290
1000,-0.555,-0.290
1001,-0.535,-0.290
1002,-0.545,-0.295
1003,-0.555,-0.305
1004,-0.565,-0.310
1005,-0.565,-0.305
1006,-0.565,-0.320
1007,-0.575,-0.310
1008,-0.555,-0.310
1009,-0.545,-0.310
1010,-0.525,-0.315
1011,-0.515,-0.300
1012,-0.505,-0.300
1013,-0.490,-0.310
1014,-0.490,-0.310
1015,-0.490,-0.315
1016,-0.485,-0.330
1017,-0.460,-0.335
1018,-0.445,-0.335
1019,-0.460,-0.340
1020,-0.455,-0.355
1021,-0.435,-0.345
1022,-0.440,-0.345
1023,-0.440,-0.355
1024,-0.440,-0.330
1025,-0.445,-0.350
1026,-0.450,-0.360
1027,-0.455,-0.365
1028,-0.470,-0.380
1029,-0.485,-0.390
1030,-0.510,-0.400
1031,-0.530,-0.400
1032,-0.560,-0.380
1033,-0.570,-0.380
1034,-0.570,-0.375
1035,-0.580,-0.370
1036,-0.580,-0.365
1037,-0.595,-0.365
1038,-0.610,-0.400
1039,-0.630,-0.390
1040,-0.640,-0.410
1041,-0.675,-0.405
1042,-0.680,-0.415
1043,-0.675,-0.400
1044,-0.680,-0.390
1045,-0.680,-0.395
1046,-0.670,-0.385
1047,-0.675,-0.375
1048,-0.660,-0.365
1049,-0.675,-0.370
1050,-0.680,-0.375
1051,-0.695,-0.385
1052,-0.685,-0.385
1053,-0.695,-0.390
1054,-0.710,-0.410
1055,-0.710,-0.410
1056,-0.700,-0.400
1057,-0.710,-0.385
1058,-0.695,-0.365
1059,-0.690,-0.370
1060,-0.680,-0.360
1061,-0.660,-0.365
1062,-0.660,-0.385
1063,-0.665,-0.400
1064,-0.665,-0.400
1065,-0.670,-0.405
1066,-0.665,-0.400
1067,-0.670,-0.390
1068,-0.675,-0.380
1069,-0.660,-0.385
1070,-0.645,-0.375
1071,-0.625,-0.370
1072,-0.630,-0.375
1073,-0.620,-0.360
1074,-0.610,-0.370
1075,-0.605,-0.380
1076,-0.620,-0.385
1077,-0.620,-0.380
1078,-0.630,-0.395
1079,-0.620,-0.410
1080,-0.620,-0.400
1081,-0.605,-0.390
1082,-0.595,-0.380
1083,-0.595,-0.375
1084,-0.605,-0.365
1085,-0.605,-0.365
1086,-0.585,-0.370
1087,-0.600,-0.385
1088,-0.600,-0.405
1089,-0.605,-0.400
1090,-0.590,-0.405
1091,-0.600,-0.405
1092,-0.610,-0.400
1093,-0.615,-0.385
1094,-0.610,-0.380
1095,-0.610,-0.370
1096,-0.610,-0.365
1097,-0.600,-0.370
1098,-0.615,-0.375
1099,-0.620,-0.380
1100,-0.630,-0.390
1101,-0.630,-0.400
1102,-0.635,-0.395
1103,-0.635,-0.395
1104,-0.640,-0.390
1105,-0.635,-0.395
1106,-0.640,-0.380
1107,-0.645,-0.380
1108,-0.645,-0.365
1109,-0.645,-0.350
1110,-0.645,-0.365
1111,-0.655,-0.370
1112,-0.670,-0.390
1113,-0.675,-0.395
1114,-0.670,-0.410
1115,-0.680,-0.410
1116,-0.685,-0.405
1117,-0.685,-0.395
1118,-0.700,-0.380
1119,-0.680,-0.370
1120,-0.675,-0.375
1121,-0.670,-0.365
1122,-0.675,-0.370
1123,-0.670,-0.385
1124,-0.675,-0.400
1125,-0.690,-0.395
1126,-0.685,-0.400
1127,-0.705,-0.390
1128,-0.700,-0.390
1129,-0.705,-0.385
1130,-0.685,-0.375
1131,-0.690,-0.385
1132,-0.680,-0.375
1133,-0.680,-0.375
1134,-0.685,-0.380
1135,-0.685,-0.375
1136,-0.690,-0.385
1137,-0.695,-0.395
1138,-0.705,-0.405
1139,-0.710,-0.395
1140,-0.715,-0.405
1141,-0.705,-0.395
1142,-0.705,-0.385
1143,-0.700,-0.375
1144,-0.700,-0.380
1145,-0.695,-0.365
1146,-0.705,-0.370
1147,-0.700,-0.380
1148,-0.695,-0.395
1149,-0.700,-0.395
1150,-0.710,-0.400
1151,-0.720,-0.400
1152,-0.715,-0.385
1153,-0.725,-0.385
1154,-0.715,-0.370
1155,-0.705,-0.380
1156,-0.695,-0.375
1157,-0.700,-0.375
1158,-0.710,-0.375
1159,-0.705,-0.370
1160,-0.715,-0.380
1161,-0.715,-0.390
1162,-0.720,-0.385
1163,-0.715,-0.390
1164,-0.720,-0.410
1165,-0.710,-0.400
1166,-0.700,-0.395
1167,-0.685,-0.365
1168,-0.675,-0.360
1169,-0.655,-0.355
1170,-0.655,-0.355
1171,-0.640,-0.355
1172,-0.630,-0.370
1173,-0.620,-0.370
1174,-0.605,-0.370
1175,-0.595,-0.360
1176,-0.585,-0.340
1177,-0.575,-0.325
1178,-0.570,-0.305
1179,-0.540,-0.315
1180,-0.530,-0.325
1181,-0.530,-0.350
1182,-0.545,-0.370
1183,-0.570,-0.395
1184,-0.585,-0.410
1185,-0.595,-0.420
1186,-0.615,-0.425
1187,-0.610,-0.430
1188,-0.605,-0.415
1189,-0.610,-0.405
1190,-0.615,-0.405
1191,-0.625,-0.385
1192,-0.640,-0.370
1193,-0.655,-0.370
1194,-0.690,-0.360
1195,-0.715,-0.375
1196,-0.710,-0.385
1197,-0.715,-0.410
1198,-0.710,-0.415
1199,-0.715,-0.420
1200,-0.705,-0.410
1201,-0.700,-0.405
1202,-0.675,-0.390
1203,-0.655,-0.385
1204,-0.625,-0.370
1205,-0.600,-0.385
1206,-0.545,-0.375
1207,-0.485,-0.365
1208,-0.375,-0.335
1209,-0.170,-0.310
1210,0.095,-0.265
1211,0.430,-0.235
1212,0.815,-0.230
1213,1.160,-0.265
1214,1.370,-0.345
1215,1.400,-0.455
1216,1.220,-0.585
1217,0.790,-0.730
1218,0.150,-0.905
1219,-0.490,-1.035
1220,-1.130,-1.090
1221,-1.535,-1.080
1222,-1.550,-0.995
1223,-1.385,-0.875
1224,-1.160,-0.765
1225,-0.965,-0.655
1226,-0.840,-0.580
1227,-0.815,-0.530
1228,-0.825,-0.495
1229,-0.835,-0.465
1230,-0.840,-0.450
1231,-0.830,-0.435
1232,-0.820,-0.415
1233,-0.805,-0.415
1234,-0.805,-0.395
1235,-0.805,-0.390
1236,-0.810,-0.390
1237,-0.810,-0.385
1238,-0.815,-0.375
1239,-0.815,-0.370
1240,-0.815,-0.355
1241,-0.805,-0.330
1242,-0.800,-0.335
1243,-0.800,-0.340
1244,-0.805,-0.350
1245,-0.805,-0.365
1246,-0.815,-0.370
1247,-0.805,-0.375
1248,-0.810,-0.365
1249,-0.800,-0.360
1250,-0.805,-0.330
1251,-0.780,-0.325
1252,-0.775,-0.310
1253,-0.765,-0.315
1254,-0.770,-0.335
1255,-0.765,-0.345
1256,-0.755,-0.340
1257,-0.765,-0.345
1258,-0.765,-0.350
1259,-0.775,-0.345
1260,-0.770,-0.335
1261,-0.765,-0.325
1262,-0.755,-0.325
1263,-0.735,-0.325
1264,-0.720,-0.315
1265,-0.710,-0.310
1266,-0.715,-0.315
1267,-0.695,-0.310
1268,-0.700,-0.315
1269,-0.705,-0.315
1270,-0.695,-0.340
1271,-0.700,-0.325
1272,-0.685,-0.340
1273,-0.670,-0.335
1274,-0.675,-0.320
1275,-0.670,-0.305
1276,-0.660,-0.285
1277,-0.645,-0.285
1278,-0.640,-0.305
1279,-0.640,-0.310
1280,-0.630,-0.320
1281,-0.625,-0.325
1282,-0.635,-0.320
1283,-0.625,-0.310
1284,-0.615,-0.315
1285,-0.605,-0.310
1286,-0.590,-0.310
1287,-0.575,-0.290
1288,-0.560,-0.295
1289,-0.565,-0.300
1290,-0.560,-0.285
1291,-0.560,-0.290
1292,-0.565,-0.290
1293,-0.550,-0.290
1294,-0.565,-0.305
1295,-0.560,-0.295
1296,-0.550,-0.305
1297,-0.545,-0.305
1298,-0.535,-0.300
1299,-0.530,-0.285
1300,-0.515,-0.265
1301,-0.510,-0.275
1302,-0.515,-0.275
1303,-0.515,-0.275
1304,-0.510,-0.285
1305,-0.515,-0.310
1306,-0.510,-0.305
1307,-0.510,-0.305
1308,-0.500,-0.305
1309,-0.505,-0.300
1310,-0.495,-0.290
1311,-0.475,-0.290
1312,-0.470,-0.280
1313,-0.445,-0.290
1314,-0.435,-0.295
1315,-0.425,-0.315
1316,-0.420,-0.310
1317,-0.420,-0.330
1318,-0.420,-0.335
1319,-0.410,-0.335
1320,-0.415,-0.330
1321,-0.410,-0.335
1322,-0.400,-0.345
1323,-0.390,-0.350
1324,-0.405,-0.355
1325,-0.420,-0.360
1326,-0.425,-0.365
1327,-0.445,-0.365
1328,-0.475,-0.380
1329,-0.490,-0.390
1330,-0.515,-0.385
1331,-0.520,-0.390
1332,-0.540,-0.400
1333,-0.565,-0.385
1334,-0.580,-0.385
1335,-0.580,-0.380
1336,-0.580,-0.370
1337,-0.580,-0.380
1338,-0.600,-0.375
1339,-0.610,-0.390
1340,-0.620,-0.400
1341,-0.635,-0.400
1342,-0.635,-0.395
1343,-0.655,-0.390
1344,-0.655,-0.390
1345,-0.660,-0.385
1346,-0.655,-0.370
1347,-0.660,-0.370
1348,-0.660,-0.370
1349,-0.655,-0.370
1350,-0.670,-0.395
1351,-0.660,-0.380
1352,-0.675,-0.380
1353,-0.670,-0.385
1354,-0.685,-0.390
1355,-0.680,-0.395
1356,-0.680,-0.390
1357,-0.660,-0.395
1358,-0.670,-0.385
1359,-0.655,-0.375
1360,-0.650,-0.370
1361,-0.645,-0.355
1362,-0.650,-0.375
1363,-0.640,-0.375
1364,-0.640,-0.380
1365,-0.655,-0.385
1366,-0.655,-0.390
1367,-0.640,-0.390
1368,-0.640,-0.375
1369,-0.630,-0.370
1370,-0.620,-0.355
1371,-0.620,-0.350
1372,-0.590,-0.355
1373,-0.590,-0.360
1374,-0.595,-0.375
1375,-0.605,-0.380
1376,-0.600,-0.385
1377,-0.600,-0.395
1378,-0.605,-0.395
1379,-0.605,-0.380
1380,-0.595,-0.375
1381,-0.600,-0.365
1382,-0.600,-0.355
1383,-0.590,-0.365
1384,-0.590,-0.355
1385,-0.575,-0.365
1386,-0.570,-0.380
1387,-0.570,-0.375
1388,-0.585,-0.375
1389,-0.585,-0.385
1390,-0.585,-0.395
1391,-0.595,-0.385
1392,-0.595,-0.380
1393,-0.595,-0.375
1394,-0.590,-0.380
1395,-0.590,-0.370
1396,-0.580,-0.370
1397,-0.580,-0.360
1398,-0.585,-0.365
1399,-0.585,-0.375
1400,-0.595,-0.380
1401,-0.605,-0.400
1402,-0.625,-0.395
1403,-0.625,-0.405
1404,-0.635,-0.395
1405,-0.630,-0.385
1406,-0.630,-0.370
1407,-0.630,-0.365
1408,-0.625,-0.360
1409,-0.620,-0.370
1410,-0.620,-0.380
1411,-0.620,-0.380
1412,-0.635,-0.395
1413,-0.645,-0.395
1414,-0.660,-0.380
1415,-0.665,-0.390
1416,-0.665,-0.380
1417,-0.680,-0.385
1418,-0.670,-0.365
1419,-0.655,-0.365
1420,-0.660,-0.365
1421,-0.650,-0.360
1422,-0.665,-0.370
1423,-0.660,-0.365
1424,-0.665,-0.375
1425,-0.675,-0.385
1426,-0.685,-0.400
1427,-0.680,-0.400
1428,-0.690,-0.390
1429,-0.685,-0.385
1430,-0.685,-0.375
1431,-0.680,-0.355
1432,-0.675,-0.350
1433,-0.660,-0.360
1434,-0.655,-0.375
1435,-0.660,-0.380
1436,-0.675,-0.380
1437,-0.675,-0.385
1438,-0.690,-0.395
1439,-0.685,-0.390
1440,-0.700,-0.385
1441,-0.700,-0.375
1442,-0.695,-0.375
1443,-0.680,-0.365
1444,-0.680,-0.360
1445,-0.680,-0.355
1446,-0.685,-0.365
1447,-0.680,-0.375
1448,-0.680,-0.380
1449,-0.690,-0.385
1450,-0.690,-0.375
1451,-0.700,-0.410
1452,-0.700,-0.400
1453,-0.695,-0.385
1454,-0.695,-0.370
1455,-0.695,-0.360
1456,-0.700,-0.345
1457,-0.670,-0.335
1458,-0.685,-0.365
1459,-0.680,-0.375
1460,-0.680,-0.370
1461,-0.685,-0.400
1462,-0.690,-0.385
1463,-0.695,-0.385
1464,-0.705,-0.380
1465,-0.685,-0.375
1466,-0.675,-0.365
1467,-0.670,-0.360
1468,-0.665,-0.360
1469,-0.650,-0.360
1470,-0.650,-0.370
1471,-0.635,-0.360
1472,-0.640,-0.370
1473,-0.635,-0.380
1474,-0.635,-0.385
1475,-0.625,-0.375
1476,-0.620,-0.370
1477,-0.590,-0.355
1478,-0.580,-0.335
1479,-0.555,-0.310
1480,-0.550,-0.290
1481,-0.525,-0.300
1482,-0.530,-0.315
1483,-0.530,-0.355
1484,-0.535,-0.385
1485,-0.560,-0.410
1486,-0.575,-0.435
1487,-0.595,-0.430
1488,-0.595,-0.420
1489,-0.605,-0.410
1490,-0.590,-0.395
1491,-0.595,-0.380
1492,-0.585,-0.375
1493,-0.595,-0.375
1494,-0.615,-0.380
1495,-0.625,-0.375
1496,-0.660,-0.380
1497,-0.665,-0.375
1498,-0.690,-0.390
1499,-0.685,-0.395
1500,-0.690,-0.390
1501,-0.670,-0.395
1502,-0.665,-0.390
1503,-0.655,-0.370
1504,-0.635,-0.370
1505,-0.620,-0.360
1506,-0.620,-0.360
1507,-0.605,-0.370
1508,-0.580,-0.370
1509,-0.555,-0.380
1510,-0.520,-0.380
1511,-0.450,-0.365
1512,-0.320,-0.330
1513,-0.140,-0.280
1514,0.105,-0.225
1515,0.415,-0.200
1516,0.730,-0.180
1517,1.010,-0.205
1518,1.195,-0.285
1519,1.250,-0.395
1520,1.145,-0.550
1521,0.855,-0.710
1522,0.400,-0.880
1523,-0.150,-1.035
1524,-0.700,-1.125
1525,-1.105,-1.145
1526,-1.290,-1.105
1527,-1.270,-1.005
1528,-1.115,-0.900
1529,-0.945,-0.800
1530,-0.845,-0.715
1531,-0.775,-0.635
1532,-0.770,-0.585
1533,-0.805,-0.555
1534,-0.820,-0.525
1535,-0.835,-0.500
1536,-0.815,-0.480
1537,-0.800,-0.445
1538,-0.765,-0.415
1539,-0.755,-0.395
1540,-0.750,-0.360
1541,-0.745,-0.355
1542,-0.760,-0.345
1543,-0.780,-0.345
1544,-0.800,-0.355
1545,-0.810,-0.350
1546,-0.820,-0.360
1547,-0.820,-0.365
1548,-0.815,-0.340
1549,-0.815,-0.330
1550,-0.795,-0.320
1551,-0.790,-0.320
1552,-0.785,-0.325
1553,-0.770,-0.310
1554,-0.775,-0.320
1555,-0.760,-0.310
1556,-0.775,-0.320
1557,-0.770,-0.320
1558,-0.770,-0.325
1559,-0.765,-0.330
1560,-0.760,-0.330
1561,-0.760,-0.315
1562,-0.755,-0.325
1563,-0.745,-0.310
1564,-0.745,-0.305
1565,-0.730,-0.290
1566,-0.715,-0.295
1567,-0.705,-0.290
1568,-0.715,-0.305
1569,-0.710,-0.320
1570,-0.710,-0.325
1571,-0.710,-0.325
1572,-0.700,-0.315
1573,-0.690,-0.310
1574,-0.690,-0.300
1575,-0.675,-0.285
1576,-0.670,-0.285
1577,-0.655,-0.290
1578,-0.640,-0.295
1579,-0.645,-0.300
1580,-0.645,-0.295
1581,-0.640,-0.295
1582,-0.650,-0.300
1583,-0.645,-0.295
1584,-0.635,-0.295
1585,-0.635,-0.295
1586,-0.610,-0.300
1587,-0.600,-0.300
1588,-0.600,-0.285
1589,-0.580,-0.280
1590,-0.585,-0.290
1591,-0.580,-0.275
1592,-0.580,-0.285
1593,-0.575,-0.295
1594,-0.580,-0.305
1595,-0.585,-0.300
1596,-0.565,-0.300
1597,-0.565,-0.295
1598,-0.555,-0.285
1599,-0.540,-0.270
1600,-0.530,-0.260
1601,-0.505,-0.260
1602,-0.515,-0.270
1603,-0.505,-0.275
1604,-0.495,-0.280
1605,-0.505,-0.285
1606,-0.515,-0.295
1607,-0.510,-0.290
1608,-0.505,-0.275
1609,-0.510,-0.260
1610,-0.490,-0.265
1611,-0.485,-0.250
1612,-0.465,-0.265
1613,-0.455,-0.260
1614,-0.450,-0.275
1615,-0.460,-0.280
1616,-0.455,-0.290
1617,-0.455,-0.290
1618,-0.455,-0.290
1619,-0.455,-0.285
1620,-0.440,-0.285
1621,-0.420,-0.290
1622,-0.395,-0.290
1623,-0.380,-0.295
1624,-0.350,-0.285
1625,-0.335,-0.290
1626,-0.330,-0.305
1627,-0.330,-0.315
1628,-0.335,-0.325
1629,-0.350,-0.345
1630,-0.380,-0.355
1631,-0.390,-0.360
1632,-0.400,-0.360
1633,-0.415,-0.355
1634,-0.445,-0.355
1635,-0.440,-0.350
1636,-0.445,-0.350
1637,-0.465,-0.350
1638,-0.475,-0.370
1639,-0.490,-0.385
1640,-0.505,-0.380
1641,-0.530,-0.380
1642,-0.545,-0.380
1643,-0.560,-0.380
1644,-0.575,-0.360
1645,-0.585,-0.355
1646,-0.595,-0.365
1647,-0.605,-0.355
1648,-0.605,-0.355
1649,-0.605,-0.350
1650,-0.615,-0.360
1651,-0.610,-0.355
1652,-0.625,-0.370
1653,-0.635,-0.375
1654,-0.655,-0.370
1655,-0.655,-0.380
1656,-0.655,-0.375
1657,-0.650,-0.365
1658,-0.650,-0.360
1659,-0.650,-0.355
1660,-0.640,-0.350
1661,-0.635,-0.355
1662,-0.625,-0.350
1663,-0.630,-0.365
1664,-0.635,-0.380
1665,-0.645,-0.385
1666,-0.640,-0.385
1667,-0.635,-0.380
1668,-0.635,-0.360
1669,-0.630,-0.355
1670,-0.620,-0.345
1671,-0.610,-0.345
1672,-0.590,-0.350
1673,-0.590,-0.340
1674,-0.585,-0.360
1675,-0.580,-0.360
1676,-0.590,-0.375
1677,-0.595,-0.360
1678,-0.595,-0.370
1679,-0.590,-0.380
1680,-0.590,-0.375
1681,-0.590,-0.360
1682,-0.575,-0.365
1683,-0.565,-0.355
1684,-0.565,-0.345
1685,-0.555,-0.340
1686,-0.570,-0.350
1687,-0.565,-0.355
1688,-0.575,-0.380
1689,-0.585,-0.380
1690,-0.585,-0.380
1691,-0.590,-0.390
1692,-0.590,-0.370
1693,-0.590,-0.365
1694,-0.580,-0.360
1695,-0.575,-0.350
1696,-0.580,-0.350
1697,-0.565,-0.350
1698,-0.570,-0.370
1699,-0.575,-0.370
1700,-0.580,-0.375
1701,-0.590,-0.375
1702,-0.595,-0.390
1703,-0.605,-0.380
1704,-0.605,-0.375
1705,-0.615,-0.370
1706,-0.615,-0.370
1707,-0.620,-0.360
1708,-0.620,-0.355
1709,-0.615,-0.360
1710,-0.615,-0.360
1711,-0.615,-0.370
1712,-0.620,-0.380
1713,-0.620,-0.390
1714,-0.640,-0.400
1715,-0.655,-0.395
1716,-0.665,-0.385
1717,-0.670,-0.375
1718,-0.670,-0.365
1719,-0.670,-0.365
1720,-0.670,-0.360
1721,-0.650,-0.365
1722,-0.645,-0.375
1723,-0.655,-0.380
1724,-0.660,-0.380
1725,-0.660,-0.380
1726,-0.665,-0.385
1727,-0.675,-0.380
1728,-0.690,-0.380
1729,-0.680,-0.380
1730,-0.675,-0.365
1731,-0.680,-0.370
1732,-0.665,-0.355
1733,-0.670,-0.360
1734,-0.670,-0.355
1735,-0.665,-0.365
1736,-0.660,-0.380
1737,-0.700,-0.385
1738,-0.700,-0.390
1739,-0.685,-0.390
1740,-0.700,-0.380
1741,-0.690,-0.375
1742,-0.690,-0.370
1743,-0.690,-0.355
1744,-0.690,-0.360
1745,-0.675,-0.360
1746,-0.665,-0.370
1747,-0.675,-0.385
1748,-0.675,-0.385
1749,-0.685,-0.390
1750,-0.690,-0.380
1751,-0.685,-0.390
1752,-0.685,-0.375
1753,-0.700,-0.370
1754,-0.685,-0.380
1755,-0.680,-0.375
1756,-0.680,-0.365
1757,-0.675,-0.360
1758,-0.680,-0.375
1759,-0.680,-0.370
1760,-0.690,-0.380
1761,-0.685,-0.385
1762,-0.690,-0.400
1763,-0.685,-0.405
1764,-0.680,-0.390
1765,-0.690,-0.380
1766,-0.685,-0.370
1767,-0.675,-0.355
1768,-0.665,-0.350
1769,-0.645,-0.350
1770,-0.635,-0.360
1771,-0.635,-0.375
1772,-0.610,-0.375
1773,-0.605,-0.375
1774,-0.605,-0.365
1775,-0.585,-0.350
1776,-0.575,-0.325
1777,-0.560,-0.335
1778,-0.555,-0.315
1779,-0.535,-0.315
1780,-0.530,-0.325
1781,-0.535,-0.335
1782,-0.545,-0.375
1783,-0.565,-0.385
1784,-0.595,-0.410
1785,-0.595,-0.435
1786,-0.615,-0.435
1787,-0.610,-0.430
1788,-0.610,-0.430
1789,-0.615,-0.410
1790,-0.605,-0.400
1791,-0.610,-0.380
1792,-0.615,-0.360
1793,-0.630,-0.370
1794,-0.645,-0.380
1795,-0.665,-0.390
1796,-0.675,-0.405
1797,-0.695,-0.400
1798,-0.700,-0.405
1799,-0.705,-0.405
1800,-0.705,-0.385
1801,-0.690,-0.390
1802,-0.665,-0.380
1803,-0.670,-0.375
1804,-0.655,-0.390
1805,-0.635,-0.385
1806,-0.620,-0.385
1807,-0.605,-0.385
1808,-0.570,-0.380
1809,-0.515,-0.375
1810,-0.425,-0.370
1811,-0.270,-0.350
1812,-0.035,-0.305
1813,0.270,-0.265
1814,0.655,-0.240
1815,1.030,-0.225
1816,1.325,-0.265
1817,1.485,-0.335
1818,1.470,-0.455
1819,1.275,-0.590
1820,0.885,-0.740
1821,0.305,-0.885
1822,-0.335,-0.995
1823,-0.975,-1.065
1824,-1.415,-1.080
1825,-1.575,-1.025
1826,-1.475,-0.950
1827,-1.260,-0.845
1828,-1.025,-0.770
1829,-0.875,-0.705
1830,-0.800,-0.645
1831,-0.810,-0.590
1832,-0.855,-0.545
1833,-0.900,-0.510
1834,-0.900,-0.480
1835,-0.880,-0.470
1836,-0.835,-0.430
1837,-0.800,-0.420
1838,-0.780,-0.390
1839,-0.775,-0.380
1840,-0.775,-0.370
1841,-0.785,-0.365
1842,-0.800,-0.365
1843,-0.810,-0.360
1844,-0.815,-0.365
1845,-0.825,-0.350
1846,-0.815,-0.360
1847,-0.830,-0.370
1848,-0.825,-0.360
1849,-0.820,-0.345
1850,-0.805,-0.335
1851,-0.800,-0.335
1852,-0.795,-0.310
1853,-0.780,-0.305
1854,-0.770,-0.320
1855,-0.765,-0.330
1856,-0.755,-0.335
1857,-0.765,-0.350
1858,-0.775,-0.355
1859,-0.760,-0.355
1860,-0.770,-0.340
1861,-0.760,-0.330
1862,-0.755,-0.330
1863,-0.745,-0.315
1864,-0.730,-0.310
1865,-0.720,-0.315
1866,-0.715,-0.325
1867,-0.710,-0.325
1868,-0.710,-0.325
1869,-0.710,-0.315
1870,-0.700,-0.325
1871,-0.705,-0.330
1872,-0.695,-0.325
1873,-0.690,-0.330
1874,-0.680,-0.320
1875,-0.675,-0.305
1876,-0.670,-0.305
1877,-0.665,-0.285
1878,-0.665,-0.295
1879,-0.660,-0.305
1880,-0.660,-0.315
1881,-0.670,-0.325
1882,-0.655,-0.345
1883,-0.660,-0.345
1884,-0.650,-0.335
1885,-0.640,-0.315
1886,-0.635,-0.300
1887,-0.625,-0.300
1888,-0.620,-0.280
1889,-0.595,-0.290
1890,-0.595,-0.305
1891,-0.600,-0.300
1892,-0.600,-0.310
1893,-0.600,-0.310
1894,-0.605,-0.310
1895,-0.595,-0.315
1896,-0.595,-0.295
1897,-0.585,-0.285
1898,-0.575,-0.300
1899,-0.555,-0.290
1900,-0.550,-0.275
1901,-0.535,-0.280
1902,-0.530,-0.290
1903,-0.530,-0.280
1904,-0.535,-0.280
1905,-0.540,-0.290
1906,-0.550,-0.285
1907,-0.570,-0.280
1908,-0.570,-0.285
1909,-0.560,-0.295
1910,-0.565,-0.285
1911,-0.540,-0.290
1912,-0.525,-0.270
1913,-0.515,-0.275
1914,-0.510,-0.280
1915,-0.505,-0.280
1916,-0.490,-0.300
1917,-0.485,-0.290
1918,-0.495,-0.310
1919,-0.495,-0.305
1920,-0.475,-0.305
1921,-0.465,-0.310
1922,-0.455,-0.300
1923,-0.425,-0.300
1924,-0.405,-0.305
1925,-0.390,-0.325
1926,-0.380,-0.330
1927,-0.385,-0.340
1928,-0.390,-0.350
1929,-0.415,-0.350
1930,-0.435,-0.360
1931,-0.455,-0.360
1932,-0.465,-0.365
1933,-0.485,-0.365
1934,-0.500,-0.365
1935,-0.510,-0.365
1936,-0.525,-0.360
1937,-0.535,-0.350
1938,-0.545,-0.360
1939,-0.555,-0.370
1940,-0.570,-0.375
1941,-0.580,-0.390
1942,-0.605,-0.390
1943,-0.600,-0.390
1944,-0.625,-0.380
1945,-0.625,-0.380
1946,-0.635,-0.370
1947,-0.645,-0.360
1948,-0.660,-0.355
1949,-0.660,-0.345
1950,-0.660,-0.365
1951,-0.670,-0.365
1952,-0.675,-0.385
1953,-0.670,-0.390
1954,-0.675,-0.385
1955,-0.700,-0.380
1956,-0.695,-0.375
1957,-0.680,-0.365
1958,-0.660,-0.370
1959,-0.665,-0.360
1960,-0.650,-0.355
1961,-0.640,-0.365
1962,-0.645,-0.370
1963,-0.650,-0.360
1964,-0.650,-0.370
1965,-0.675,-0.370
1966,-0.680,-0.370
1967,-0.675,-0.380
1968,-0.670,-0.370
1969,-0.660,-0.375
1970,-0.655,-0.360
1971,-0.625,-0.370
1972,-0.615,-0.345
1973,-0.615,-0.340
1974,-0.605,-0.345
1975,-0.600,-0.355
1976,-0.590,-0.360
1977,-0.600,-0.375
1978,-0.615,-0.375
1979,-0.605,-0.380
1980,-0.615,-0.365
1981,-0.620,-0.365
1982,-0.610,-0.360
1983,-0.605,-0.350
1984,-0.595,-0.340
1985,-0.590,-0.345
1986,-0.580,-0.360
1987,-0.560,-0.365
1988,-0.555,-0.365
1989,-0.575,-0.390
1990,-0.580,-0.375
1991,-0.590,-0.365
1992,-0.580,-0.365
1993,-0.575,-0.365
1994,-0.590,-0.355
1995,-0.585,-0.355
1996,-0.565,-0.370
1997,-0.585,-0.355
1998,-0.590,-0.365
1999,-0.590,-0.360
2000,-0.590,-0.380
2001,-0.595,-0.380
2002,-0.610,-0.385
2003,-0.610,-0.390
2004,-0.615,-0.385
2005,-0.625,-0.380
2006,-0.625,-0.375
2007,-0.625,-0.355
2008,-0.630,-0.350
2009,-0.625,-0.360
2010,-0.615,-0.370
2011,-0.620,-0.365
2012,-0.625,-0.385
2013,-0.635,-0.390
2014,-0.650,-0.390
2015,-0.640,-0.390
2016,-0.645,-0.380
2017,-0.650,-0.375
2018,-0.650,-0.370
2019,-0.645,-0.365
2020,-0.655,-0.365
2021,-0.660,-0.360
2022,-0.655,-0.370
2023,-0.670,-0.355
2024,-0.665,-0.370
2025,-0.695,-0.370
2026,-0.685,-0.390
2027,-0.680,-0.390
2028,-0.680,-0.375
2029,-0.680,-0.380
2030,-0.680,-0.370
2031,-0.675,-0.355
2032,-0.670,-0.345
2033,-0.670,-0.350
2034,-0.680,-0.360
2035,-0.670,-0.365
2036,-0.690,-0.375
2037,-0.700,-0.385
2038,-0.695,-0.385
2039,-0.710,-0.390
2040,-0.710,-0.375
2041,-0.720,-0.365
2042,-0.705,-0.365
2043,-0.685,-0.350
2044,-0.690,-0.350
2045,-0.665,-0.355
2046,-0.665,-0.360
2047,-0.670,-0.365
2048,-0.680,-0.365
2049,-0.690,-0.375
2050,-0.695,-0.385
2051,-0.705,-0.385
2052,-0.715,-0.370
2053,-0.705,-0.375
2054,-0.700,-0.365
2055,-0.700,-0.360
2056,-0.685,-0.355
2057,-0.685,-0.355
2058,-0.685,-0.360
2059,-0.695,-0.365
2060,-0.685,-0.365
2061,-0.690,-0.375
2062,-0.700,-0.390
2063,-0.695,-0.390
2064,-0.705,-0.390
2065,-0.710,-0.380
2066,-0.705,-0.355
2067,-0.690,-0.360
2068,-0.675,-0.355
2069,-0.645,-0.350
2070,-0.645,-0.370
2071,-0.635,-0.365
2072,-0.625,-0.370
2073,-0.610,-0.360
2074,-0.615,-0.365
2075,-0.595,-0.360
2076,-0.590,-0.355
2077,-0.575,-0.335
2078,-0.555,-0.335
2079,-0.545,-0.315
2080,-0.540,-0.310
2081,-0.530,-0.310
2082,-0.525,-0.335
2083,-0.530,-0.345
2084,-0.560,-0.375
2085,-0.565,-0.395
2086,-0.580,-0.420
2087,-0.590,-0.435
2088,-0.590,-0.415
2089,-0.595,-0.410
2090,-0.585,-0.390
2091,-0.580,-0.375
2092,-0.590,-0.365
2093,-0.600,-0.365
2094,-0.605,-0.375
2095,-0.625,-0.370
2096,-0.650,-0.385
2097,-0.675,-0.400
2098,-0.690,-0.405
2099,-0.705,-0.400
2100,-0.705,-0.395
2101,-0.705,-0.385
2102,-0.675,-0.380
2103,-0.680,-0.380
2104,-0.670,-0.375
2105,-0.655,-0.370
2106,-0.655,-0.385
2107,-0.650,-0.375
2108,-0.650,-0.385
2109,-0.640,-0.380
2110,-0.635,-0.390
2111,-0.605,-0.395
2112,-0.560,-0.375
2113,-0.465,-0.360
2114,-0.345,-0.330
2115,-0.175,-0.300
2116,0.075,-0.245
2117,0.370,-0.205
2118,0.730,-0.200
2119,1.090,-0.200
2120,1.380,-0.260
2121,1.540,-0.335
2122,1.560,-0.440
2123,1.430,-0.560
2124,1.100,-0.695
2125,0.550,-0.820
2126,-0.090,-0.930
2127,-0.730,-1.020
2128,-1.370,-1.040
2129,-1.725,-0.995
2130,-1.645,-0.925
2131,-1.385,-0.830
2132,-1.115,-0.740
2133,-0.915,-0.660
2134,-0.840,-0.605
2135,-0.805,-0.550
2136,-0.835,-0.495
2137,-0.855,-0.475
2138,-0.855,-0.435
2139,-0.820,-0.420
2140,-0.785,-0.385
2141,-0.750,-0.370
2142,-0.755,-0.365
2143,-0.760,-0.350
2144,-0.780,-0.355
2145,-0.815,-0.365
2146,-0.820,-0.365
2147,-0.840,-0.365
2148,-0.835,-0.360
2149,-0.825,-0.360
2150,-0.815,-0.345
2151,-0.790,-0.330
2152,-0.775,-0.320
2153,-0.760,-0.315
2154,-0.750,-0.315
2155,-0.750,-0.310
2156,-0.750,-0.335
2157,-0.760,-0.330
2158,-0.790,-0.340
2159,-0.780,-0.335
2160,-0.775,-0.335
2161,-0.775,-0.325
2162,-0.765,-0.325
2163,-0.750,-0.315
2164,-0.740,-0.310
2165,-0.730,-0.310
2166,-0.710,-0.320
2167,-0.700,-0.330
2168,-0.705,-0.315
2169,-0.705,-0.325
2170,-0.710,-0.320
2171,-0.710,-0.315
2172,-0.720,-0.310
2173,-0.710,-0.310
2174,-0.700,-0.315
2175,-0.690,-0.315
2176,-0.680,-0.305
2177,-0.665,-0.295
2178,-0.670,-0.305
2179,-0.675,-0.295
2180,-0.660,-0.310
2181,-0.650,-0.305
2182,-0.650,-0.320
2183,-0.650,-0.320
2184,-0.630,-0.315
2185,-0.635,-0.315
2186,-0.620,-0.300
2187,-0.620,-0.290
2188,-0.615,-0.275
2189,-0.610,-0.270
2190,-0.595,-0.275
2191,-0.590,-0.290
2192,-0.600,-0.300
2193,-0.585,-0.310
2194,-0.595,-0.315
2195,-0.590,-0.315
2196,-0.600,-0.295
2197,-0.585,-0.280
2198,-0.570,-0.280
2199,-0.550,-0.280
2200,-0.545,-0.270
2201,-0.535,-0.270
2202,-0.530,-0.295
2203,-0.545,-0.295
2204,-0.540,-0.290
2205,-0.555,-0.295
2206,-0.560,-0.285
2207,-0.570,-0.280
2208,-0.570,-0.285
2209,-0.565,-0.285
2210,-0.545,-0.280
2211,-0.535,-0.270
2212,-0.535,-0.275
2213,-0.515,-0.255
2214,-0.525,-0.265
2215,-0.525,-0.265
2216,-0.515,-0.270
2217,-0.520,-0.285
2218,-0.520,-0.295
2219,-0.510,-0.300
2220,-0.530,-0.295
2221,-0.525,-0.290
2222,-0.500,-0.270
2223,-0.490,-0.280
2224,-0.465,-0.265
2225,-0.440,-0.265
2226,-0.420,-0.295
2227,-0.410,-0.305
2228,-0.405,-0.325
2229,-0.390,-0.345
2230,-0.385,-0.345
2231,-0.395,-0.350
2232,-0.405,-0.350
2233,-0.410,-0.320
2234,-0.415,-0.335
2235,-0.420,-0.335
2236,-0.440,-0.340
2237,-0.445,-0.335
2238,-0.455,-0.360
2239,-0.475,-0.350
2240,-0.490,-0.370
2241,-0.525,-0.365
2242,-0.550,-0.370
2243,-0.570,-0.385
2244,-0.575,-0.380
2245,-0.585,-0.385
2246,-0.575,-0.370
2247,-0.590,-0.365
2248,-0.600,-0.340
2249,-0.610,-0.340
2250,-0.615,-0.340
2251,-0.630,-0.355
2252,-0.635,-0.355
2253,-0.640,-0.375
2254,-0.650,-0.385
2255,-0.665,-0.390
2256,-0.665,-0.360
2257,-0.675,-0.365
2258,-0.665,-0.345
2259,-0.660,-0.345
2260,-0.660,-0.335
2261,-0.640,-0.340
2262,-0.630,-0.355
2263,-0.630,-0.360
2264,-0.635,-0.370
2265,-0.660,-0.365
2266,-0.660,-0.365
2267,-0.675,-0.365
2268,-0.670,-0.355
2269,-0.665,-0.375
2270,-0.675,-0.355
2271,-0.645,-0.370
2272,-0.645,-0.355
2273,-0.625,-0.345
2274,-0.615,-0.345
2275,-0.610,-0.340
2276,-0.610,-0.355
2277,-0.610,-0.360
2278,-0.600,-0.370
2279,-0.600,-0.380
2280,-0.600,-0.370
2281,-0.600,-0.380
2282,-0.590,-0.360
2283,-0.580,-0.340
2284,-0.590,-0.340
2285,-0.565,-0.320
2286,-0.570,-0.335
2287,-0.560,-0.350
2288,-0.560,-0.360
2289,-0.570,-0.365
2290,-0.575,-0.375
2291,-0.570,-0.375
2292,-0.580,-0.360
2293,-0.570,-0.360
2294,-0.560,-0.360
2295,-0.545,-0.350
2296,-0.550,-0.350
2297,-0.535,-0.335
2298,-0.535,-0.350
2299,-0.545,-0.335
2300,-0.555,-0.350
2301,-0.570,-0.345
2302,-0.570,-0.370
2303,-0.575,-0.380
2304,-0.585,-0.375
2305,-0.585,-0.375
2306,-0.580,-0.365
2307,-0.580,-0.355
2308,-0.580,-0.340
2309,-0.570,-0.325
2310,-0.565,-0.340
2311,-0.575,-0.340
2312,-0.580,-0.355
2313,-0.590,-0.370
2314,-0.605,-0.380
2315,-0.615,-0.380
2316,-0.635,-0.360
2317,-0.640,-0.360
2318,-0.640,-0.350
2319,-0.630,-0.355
2320,-0.615,-0.350
2321,-0.615,-0.350
2322,-0.630,-0.355
2323,-0.645,-0.345
2324,-0.655,-0.355
2325,-0.660,-0.355
2326,-0.645,-0.365
2327,-0.655,-0.370
2328,-0.655,-0.370
2329,-0.650,-0.370
2330,-0.650,-0.370
2331,-0.645,-0.370
2332,-0.645,-0.335
2333,-0.640,-0.325
2334,-0.630,-0.340
2335,-0.640,-0.340
2336,-0.645,-0.350
2337,-0.655,-0.360
2338,-0.660,-0.380
2339,-0.670,-0.385
2340,-0.675,-0.365
2341,-0.690,-0.355
2342,-0.685,-0.350
2343,-0.670,-0.335
2344,-0.650,-0.335
2345,-0.645,-0.340
2346,-0.640,-0.350
2347,-0.650,-0.345
2348,-0.655,-0.360
2349,-0.660,-0.370
2350,-0.670,-0.375
2351,-0.675,-0.360
2352,-0.675,-0.360
2353,-0.675,-0.365
2354,-0.660,-0.365
2355,-0.665,-0.345
2356,-0.660,-0.355
2357,-0.660,-0.345
2358,-0.670,-0.350
2359,-0.665,-0.340
2360,-0.670,-0.355
2361,-0.685,-0.355
2362,-0.685,-0.365
2363,-0.690,-0.380
2364,-0.695,-0.375
2365,-0.685,-0.365
2366,-0.675,-0.350
2367,-0.680,-0.350
2368,-0.665,-0.335
2369,-0.650,-0.325
2370,-0.650,-0.345
2371,-0.650,-0.340
2372,-0.665,-0.360
2373,-0.700,-0.360
2374,-0.685,-0.355
2375,-0.665,-0.370
2376,-0.655,-0.355
2377,-0.645,-0.355
2378,-0.615,-0.345
2379,-0.590,-0.350
2380,-0.595,-0.330
2381,-0.575,-0.320
2382,-0.550,-0.300
2383,-0.535,-0.305
2384,-0.525,-0.300
2385,-0.515,-0.305
2386,-0.505,-0.320
2387,-0.510,-0.340
2388,-0.525,-0.350
2389,-0.550,-0.370
2390,-0.555,-0.370
2391,-0.565,-0.375
2392,-0.570,-0.365
2393,-0.555,-0.360
2394,-0.555,-0.370
2395,-0.560,-0.375
2396,-0.570,-0.375
2397,-0.580,-0.375
2398,-0.605,-0.390
2399,-0.625,-0.380
2400,-0.635,-0.365
2401,-0.660,-0.350
2402,-0.665,-0.355
2403,-0.665,-0.355
2404,-0.665,-0.350
2405,-0.660,-0.350
2406,-0.660,-0.350
2407,-0.665,-0.345
2408,-0.680,-0.360
2409,-0.680,-0.355
2410,-0.665,-0.370
2411,-0.670,-0.385
2412,-0.665,-0.375
2413,-0.650,-0.375
2414,-0.615,-0.370
2415,-0.595,-0.355
2416,-0.535,-0.325
2417,-0.465,-0.305
2418,-0.355,-0.300
2419,-0.185,-0.275
2420,0.040,-0.240
2421,0.350,-0.215
2422,0.720,-0.200
2423,1.085,-0.200
2424,1.365,-0.235
2425,1.525,-0.305
2426,1.535,-0.405
2427,1.325,-0.545
2428,0.845,-0.705
2429,0.205,-0.860
2430,-0.435,-0.995
2431,-1.075,-1.065
2432,-1.635,-1.030
2433,-1.615,-0.935
2434,-1.385,-0.820
2435,-1.110,-0.695
2436,-0.905,-0.600
2437,-0.800,-0.530
2438,-0.765,-0.485
2439,-0.770,-0.445
2440,-0.765,-0.420
2441,-0.770,-0.385
2442,-0.770,-0.380
2443,-0.775,-0.345
2444,-0.770,-0.350
2445,-0.770,-0.360
2446,-0.790,-0.375
2447,-0.805,-0.370
2448,-0.805,-0.365
2449,-0.815,-0.335
2450,-0.805,-0.330
2451,-0.785,-0.310
2452,-0.785,-0.315
2453,-0.775,-0.300
2454,-0.760,-0.305
2455,-0.755,-0.310
2456,-0.765,-0.330
2457,-0.775,-0.320
2458,-0.785,-0.320
2459,-0.785,-0.325
2460,-0.780,-0.310
2461,-0.780,-0.305
2462,-0.765,-0.305
2463,-0.745,-0.305
2464,-0.740,-0.300
2465,-0.725,-0.295
2466,-0.725,-0.290
2467,-0.725,-0.290
2468,-0.715,-0.295
2469,-0.725,-0.290
2470,-0.725,-0.295
2471,-0.710,-0.310
2472,-0.725,-0.300
2473,-0.720,-0.305
2474,-0.715,-0.300
2475,-0.695,-0.285
2476,-0.690,-0.270
2477,-0.670,-0.260
2478,-0.665,-0.275
2479,-0.650,-0.285
2480,-0.650,-0.290
2481,-0.655,-0.300
2482,-0.650,-0.310
2483,-0.655,-0.305
2484,-0.655,-0.290
2485,-0.645,-0.280
2486,-0.640,-0.290
2487,-0.625,-0.270
2488,-0.615,-0.270
2489,-0.595,-0.275
2490,-0.585,-0.275
2491,-0.590,-0.285
2492,-0.580,-0.285
2493,-0.585,-0.290
2494,-0.590,-0.285
2495,-0.585,-0.280
2496,-0.580,-0.270
2497,-0.580,-0.280
2498,-0.565,-0.270
2499,-0.555,-0.280
2500,-0.540,-0.265
2501,-0.530,-0.255
2502,-0.525,-0.255
2503,-0.525,-0.275
2504,-0.530,-0.265
2505,-0.525,-0.270
2506,-0.530,-0.285
2507,-0.520,-0.290
2508,-0.530,-0.280
2509,-0.520,-0.270
2510,-0.530,-0.270
2511,-0.520,-0.260
2512,-0.495,-0.260
2513,-0.485,-0.260
2514,-0.480,-0.265
2515,-0.485,-0.270
2516,-0.485,-0.265
2517,-0.485,-0.270
2518,-0.480,-0.280
2519,-0.470,-0.275
2520,-0.460,-0.280
2521,-0.450,-0.285
2522,-0.435,-0.275
2523,-0.410,-0.285
2524,-0.395,-0.285
2525,-0.370,-0.280
2526,-0.370,-0.285
2527,-0.355,-0.295
2528,-0.360,-0.305
2529,-0.365,-0.325
2530,-0.370,-0.335
2531,-0.370,-0.350
2532,-0.385,-0.350
2533,-0.405,-0.340
2534,-0.410,-0.330
2535,-0.420,-0.325
2536,-0.425,-0.325
2537,-0.435,-0.330
2538,-0.445,-0.355
2539,-0.470,-0.355
2540,-0.485,-0.365
2541,-0.510,-0.365
2542,-0.525,-0.365
2543,-0.545,-0.360
2544,-0.555,-0.360
2545,-0.570,-0.360
2546,-0.570,-0.360
2547,-0.585,-0.365
2548,-0.575,-0.355
2549,-0.585,-0.350
2550,-0.590,-0.355
2551,-0.595,-0.345
2552,-0.600,-0.360
2553,-0.610,-0.365
2554,-0.615,-0.375
2555,-0.625,-0.380
2556,-0.630,-0.385
2557,-0.630,-0.365
2558,-0.640,-0.365
2559,-0.635,-0.345
2560,-0.635,-0.345
2561,-0.625,-0.340
2562,-0.615,-0.345
2563,-0.620,-0.345
2564,-0.610,-0.365
2565,-0.610,-0.370
2566,-0.620,-0.380
2567,-0.620,-0.370
2568,-0.635,-0.380
2569,-0.640,-0.360
2570,-0.635,-0.340
2571,-0.615,-0.330
2572,-0.605,-0.330
2573,-0.580,-0.335
2574,-0.580,-0.350
2575,-0.570,-0.350
2576,-0.575,-0.350
2577,-0.595,-0.355
2578,-0.580,-0.360
2579,-0.580,-0.360
2580,-0.585,-0.360
2581,-0.580,-0.350
2582,-0.575,-0.360
2583,-0.565,-0.350
2584,-0.565,-0.335
2585,-0.570,-0.340
2586,-0.560,-0.335
2587,-0.560,-0.340
2588,-0.555,-0.350
2589,-0.555,-0.370
2590,-0.555,-0.375
2591,-0.560,-0.380
2592,-0.550,-0.365
2593,-0.545,-0.355
2594,-0.550,-0.345
2595,-0.535,-0.350
2596,-0.545,-0.340
2597,-0.530,-0.330
2598,-0.520,-0.360
2599,-0.525,-0.360
2600,-0.540,-0.365
2601,-0.555,-0.375
2602,-0.560,-0.370
2603,-0.570,-0.375
2604,-0.560,-0.370
2605,-0.575,-0.365
2606,-0.570,-0.355
2607,-0.575,-0.360
2608,-0.565,-0.355
2609,-0.560,-0.325
2610,-0.565,-0.345
2611,-0.565,-0.340
2612,-0.570,-0.355
2613,-0.595,-0.365
2614,-0.605,-0.375
2615,-0.610,-0.375
2616,-0.635,-0.375
2617,-0.620,-0.355
2618,-0.620,-0.350
2619,-0.615,-0.340
2620,-0.600,-0.345
2621,-0.610,-0.345
2622,-0.600,-0.360
2623,-0.610,-0.360
2624,-0.610,-0.365
2625,-0.620,-0.375
2626,-0.630,-0.375
2627,-0.635,-0.375
2628,-0.640,-0.365
2629,-0.640,-0.370
2630,-0.635,-0.365
2631,-0.645,-0.365
2632,-0.635,-0.345
2633,-0.625,-0.350
2634,-0.630,-0.350
2635,-0.635,-0.350
2636,-0.635,-0.360
2637,-0.645,-0.370
2638,-0.640,-0.380
2639,-0.650,-0.380
2640,-0.655,-0.380
2641,-0.655,-0.370
2642,-0.665,-0.355
2643,-0.650,-0.345
2644,-0.645,-0.335
2645,-0.625,-0.345
2646,-0.625,-0.360
2647,-0.635,-0.360
2648,-0.630,-0.370
2649,-0.650,-0.370
2650,-0.660,-0.375
2651,-0.665,-0.375
2652,-0.660,-0.370
2653,-0.660,-0.365
2654,-0.660,-0.355
2655,-0.660,-0.360
2656,-0.660,-0.350
2657,-0.645,-0.350
2658,-0.640,-0.355
2659,-0.650,-0.350
2660,-0.655,-0.370
2661,-0.660,-0.365
2662,-0.655,-0.375
2663,-0.660,-0.385
2664,-0.655,-0.385
2665,-0.660,-0.370
2666,-0.665,-0.350
2667,-0.650,-0.340
2668,-0.645,-0.340
2669,-0.630,-0.330
2670,-0.620,-0.360
2671,-0.625,-0.355
2672,-0.620,-0.355
2673,-0.610,-0.375
2674,-0.615,-0.370
2675,-0.625,-0.370
2676,-0.600,-0.360
2677,-0.585,-0.355
2678,-0.565,-0.350
2679,-0.545,-0.340
2680,-0.530,-0.325
2681,-0.510,-0.310
2682,-0.505,-0.300
2683,-0.495,-0.295
2684,-0.490,-0.300
2685,-0.485,-0.320
2686,-0.490,-0.345
2687,-0.505,-0.375
2688,-0.510,-0.385
2689,-0.535,-0.405
2690,-0.550,-0.405
2691,-0.550,-0.395
2692,-0.545,-0.390
2693,-0.540,-0.365
2694,-0.535,-0.375
2695,-0.530,-0.385
2696,-0.550,-0.380
2697,-0.560,-0.390
2698,-0.580,-0.395
2699,-0.605,-0.395
2700,-0.640,-0.370
2701,-0.655,-0.345
2702,-0.660,-0.350
2703,-0.640,-0.350
2704,-0.655,-0.350
2705,-0.645,-0.355
2706,-0.635,-0.370
2707,-0.625,-0.370
2708,-0.635,-0.375
2709,-0.640,-0.370
2710,-0.640,-0.385
2711,-0.640,-0.380
2712,-0.625,-0.370
2713,-0.610,-0.375
2714,-0.580,-0.370
2715,-0.545,-0.365
2716,-0.495,-0.335
2717,-0.400,-0.300
2718,-0.220,-0.280
2719,0.055,-0.225
2720,0.455,-0.195
2721,0.905,-0.185
2722,1.315,-0.215
2723,1.565,-0.310
2724,1.620,-0.470
2725,1.355,-0.670
2726,0.745,-0.865
2727,0.105,-1.055
2728,-0.535,-1.170
2729,-1.175,-1.175
2730,-1.550,-1.110
2731,-1.405,-0.960
2732,-1.150,-0.830
2733,-0.910,-0.710
2734,-0.760,-0.620
2735,-0.710,-0.565
2736,-0.725,-0.510
2737,-0.755,-0.490
2738,-0.775,-0.460
2739,-0.770,-0.425
2740,-0.760,-0.390
2741,-0.735,-0.365
2742,-0.725,-0.350
2743,-0.720,-0.350
2744,-0.735,-0.355
2745,-0.745,-0.360
2746,-0.760,-0.355
2747,-0.765,-0.365
2748,-0.765,-0.350
2749,-0.770,-0.335
2750,-0.770,-0.320
2751,-0.750,-0.305
2752,-0.745,-0.300
2753,-0.730,-0.295
2754,-0.730,-0.305
2755,-0.715,-0.320
2756,-0.725,-0.320
2757,-0.745,-0.315
2758,-0.745,-0.320
2759,-0.750,-0.330
2760,-0.735,-0.310
2761,-0.735,-0.305
2762,-0.725,-0.305
2763,-0.700,-0.295
2764,-0.700,-0.295
2765,-0.710,-0.280
2766,-0.695,-0.275
2767,-0.690,-0.280
2768,-0.685,-0.295
2769,-0.680,-0.295
2770,-0.675,-0.310
2771,-0.680,-0.315
2772,-0.670,-0.310
2773,-0.670,-0.305
2774,-0.665,-0.305
2775,-0.650,-0.290
2776,-0.635,-0.275
2777,-0.620,-0.270
2778,-0.615,-0.270
2779,-0.610,-0.270
2780,-0.605,-0.285
2781,-0.605,-0.300
2782,-0.605,-0.310
2783,-0.610,-0.310
2784,-0.610,-0.295
2785,-0.605,-0.295
2786,-0.585,-0.280
2787,-0.585,-0.275
2788,-0.565,-0.270
2789,-0.560,-0.280
2790,-0.545,-0.280
2791,-0.540,-0.265
2792,-0.545,-0.275
2793,-0.555,-0.285
2794,-0.545,-0.300
2795,-0.525,-0.290
2796,-0.530,-0.290
2797,-0.520,-0.295
2798,-0.515,-0.280
2799,-0.505,-0.265
2800,-0.495,-0.260
2801,-0.495,-0.245
2802,-0.495,-0.260
2803,-0.485,-0.250
2804,-0.495,-0.270
2805,-0.480,-0.280
2806,-0.485,-0.290
2807,-0.500,-0.295
2808,-0.490,-0.280
2809,-0.485,-0.270
2810,-0.470,-0.260
2811,-0.460,-0.255
2812,-0.455,-0.250
2813,-0.445,-0.250
2814,-0.420,-0.255
2815,-0.430,-0.270
2816,-0.430,-0.265
2817,-0.420,-0.280
2818,-0.420,-0.295
2819,-0.405,-0.300
2820,-0.395,-0.305
2821,-0.370,-0.295
2822,-0.360,-0.300
2823,-0.335,-0.305
2824,-0.320,-0.300
2825,-0.305,-0.295
2826,-0.300,-0.305
2827,-0.295,-0.310
2828,-0.295,-0.320
2829,-0.305,-0.340
2830,-0.320,-0.365
2831,-0.350,-0.375
2832,-0.385,-0.365
2833,-0.370,-0.360
2834,-0.385,-0.355
2835,-0.400,-0.350
2836,-0.405,-0.345
2837,-0.400,-0.350
2838,-0.415,-0.355
2839,-0.425,-0.380
2840,-0.435,-0.375
2841,-0.460,-0.380
2842,-0.505,-0.385
2843,-0.530,-0.390
2844,-0.530,-0.375
2845,-0.540,-0.375
2846,-0.540,-0.380
2847,-0.545,-0.370
2848,-0.545,-0.360
2849,-0.545,-0.365
2850,-0.550,-0.370
2851,-0.555,-0.360
2852,-0.570,-0.370
2853,-0.580,-0.360
2854,-0.595,-0.375
2855,-0.590,-0.375
2856,-0.605,-0.385
2857,-0.600,-0.380
2858,-0.600,-0.380
2859,-0.590,-0.380
2860,-0.595,-0.360
2861,-0.590,-0.355
2862,-0.580,-0.350
2863,-0.590,-0.350
2864,-0.585,-0.355
2865,-0.590,-0.375
2866,-0.600,-0.375
2867,-0.605,-0.395
2868,-0.610,-0.385
2869,-0.600,-0.375
2870,-0.585,-0.360
2871,-0.565,-0.360
2872,-0.565,-0.360
2873,-0.545,-0.345
2874,-0.535,-0.360
2875,-0.535,-0.360
2876,-0.530,-0.360
2877,-0.530,-0.365
2878,-0.550,-0.375
2879,-0.545,-0.380
2880,-0.545,-0.365
2881,-0.535,-0.370
2882,-0.520,-0.370
2883,-0.510,-0.365
2884,-0.505,-0.355
2885,-0.505,-0.350
2886,-0.505,-0.355
2887,-0.500,-0.345
2888,-0.510,-0.370
2889,-0.505,-0.365
2890,-0.520,-0.385
2891,-0.510,-0.390
2892,-0.525,-0.385
2893,-0.520,-0.380
2894,-0.535,-0.375
2895,-0.520,-0.370
2896,-0.520,-0.355
2897,-0.515,-0.340
2898,-0.505,-0.360
2899,-0.505,-0.365
2900,-0.515,-0.380
2901,-0.530,-0.390
2902,-0.535,-0.400
2903,-0.535,-0.385
2904,-0.555,-0.380
2905,-0.555,-0.375
2906,-0.570,-0.370
2907,-0.545,-0.375
2908,-0.535,-0.375
2909,-0.530,-0.360
2910,-0.530,-0.370
2911,-0.545,-0.370
2912,-0.560,-0.370
2913,-0.570,-0.380
2914,-0.570,-0.375
2915,-0.580,-0.385
2916,-0.595,-0.390
2917,-0.590,-0.385
2918,-0.595,-0.380
2919,-0.585,-0.375
2920,-0.585,-0.370
2921,-0.575,-0.355
2922,-0.580,-0.355
2923,-0.580,-0.360
2924,-0.575,-0.385
2925,-0.585,-0.385
2926,-0.590,-0.385
2927,-0.600,-0.400
2928,-0.605,-0.390
2929,-0.605,-0.380
2930,-0.615,-0.375
2931,-0.615,-0.365
2932,-0.610,-0.365
2933,-0.610,-0.360
2934,-0.600,-0.365
2935,-0.605,-0.365
2936,-0.620,-0.395
2937,-0.630,-0.390
2938,-0.640,-0.390
2939,-0.660,-0.380
2940,-0.655,-0.385
2941,-0.645,-0.375
2942,-0.640,-0.370
2943,-0.625,-0.370
2944,-0.635,-0.365
2945,-0.635,-0.375
2946,-0.625,-0.375
2947,-0.630,-0.365
2948,-0.635,-0.375
2949,-0.650,-0.375
2950,-0.645,-0.395
2951,-0.630,-0.390
2952,-0.650,-0.385
2953,-0.650,-0.385
2954,-0.645,-0.380
2955,-0.645,-0.375
2956,-0.645,-0.370
2957,-0.635,-0.360
2958,-0.625,-0.370
2959,-0.620,-0.370
2960,-0.625,-0.385
2961,-0.645,-0.385
2962,-0.650,-0.390
2963,-0.645,-0.395
2964,-0.650,-0.385
2965,-0.645,-0.375
2966,-0.645,-0.365
2967,-0.640,-0.385
2968,-0.630,-0.380
2969,-0.625,-0.365
2970,-0.625,-0.375
2971,-0.645,-0.380
2972,-0.645,-0.370
2973,-0.645,-0.390
2974,-0.625,-0.390
2975,-0.635,-0.390
2976,-0.635,-0.400
2977,-0.625,-0.395
2978,-0.610,-0.395
2979,-0.595,-0.365
2980,-0.575,-0.365
2981,-0.565,-0.360
2982,-0.560,-0.350
2983,-0.555,-0.350
2984,-0.545,-0.360
2985,-0.530,-0.360
2986,-0.520,-0.360
2987,-0.515,-0.350
2988,-0.500,-0.345
2989,-0.500,-0.340
2990,-0.495,-0.335
2991,-0.475,-0.330
2992,-0.475,-0.355
2993,-0.475,-0.375
2994,-0.485,-0.405
2995,-0.515,-0.415
2996,-0.520,-0.430
2997,-0.525,-0.440
2998,-0.540,-0.445
2999,-0.545,-0.440
3000,-0.545,-0.415
3001,-0.550,-0.400
3002,-0.555,-0.395
3003,-0.565,-0.390
3004,-0.605,-0.385
3005,-0.605,-0.380
3006,-0.615,-0.375
3007,-0.630,-0.380
3008,-0.635,-0.380
3009,-0.640,-0.390
3010,-0.635,-0.400
3011,-0.640,-0.420
3012,-0.635,-0.410
3013,-0.635,-0.420
3014,-0.625,-0.400
3015,-0.625,-0.400
3016,-0.605,-0.385
3017,-0.580,-0.360
3018,-0.535,-0.365
3019,-0.485,-0.365
3020,-0.390,-0.355
3021,-0.230,-0.315
3022,0.025,-0.285
3023,0.385,-0.240
3024,0.800,-0.210
3025,1.205,-0.205
3026,1.495,-0.255
3027,1.625,-0.345
3028,1.580,-0.495
3029,1.290,-0.650
3030,0.760,-0.820
3031,0.120,-0.970
3032,-0.520,-1.095
3033,-1.160,-1.150
3034,-1.610,-1.145
3035,-1.560,-1.060
3036,-1.310,-0.945
3037,-1.035,-0.850
3038,-0.840,-0.750
3039,-0.745,-0.660
3040,-0.745,-0.585
3041,-0.775,-0.540
3042,-0.815,-0.500
3043,-0.825,-0.485
3044,-0.810,-0.460
3045,-0.785,-0.455
3046,-0.750,-0.435
3047,-0.735,-0.425
3048,-0.745,-0.410
3049,-0.745,-0.395
3050,-0.775,-0.375
3051,-0.785,-0.365
3052,-0.775,-0.345
3053,-0.775,-0.345
3054,-0.780,-0.340
3055,-0.780,-0.345
3056,-0.780,-0.355
3057,-0.760,-0.350
3058,-0.770,-0.350
3059,-0.770,-0.350
3060,-0.765,-0.350
3061,-0.775,-0.350
3062,-0.765,-0.340
3063,-0.740,-0.325
3064,-0.740,-0.320
3065,-0.735,-0.300
3066,-0.720,-0.320
3067,-0.720,-0.315
3068,-0.725,-0.315
3069,-0.725,-0.325
3070,-0.715,-0.335
3071,-0.715,-0.335
3072,-0.700,-0.335
3073,-0.705,-0.350
3074,-0.700,-0.320
3075,-0.710,-0.315
3076,-0.700,-0.295
3077,-0.685,-0.290
3078,-0.680,-0.300
3079,-0.675,-0.300
3080,-0.675,-0.315
3081,-0.675,-0.320
3082,-0.675,-0.330
3083,-0.665,-0.345
3084,-0.655,-0.325
3085,-0.655,-0.320
3086,-0.635,-0.320
3087,-0.625,-0.305
3088,-0.625,-0.305
3089,-0.605,-0.300
3090,-0.590,-0.300
3091,-0.595,-0.310
3092,-0.595,-0.310
3093,-0.595,-0.315
3094,-0.590,-0.320
3095,-0.585,-0.320
3096,-0.585,-0.305
3097,-0.570,-0.320
3098,-0.560,-0.305
3099,-0.545,-0.305
3100,-0.540,-0.300
3101,-0.525,-0.280
3102,-0.535,-0.295
3103,-0.535,-0.285
3104,-0.520,-0.295
3105,-0.525,-0.295
3106,-0.515,-0.300
3107,-0.535,-0.315
3108,-0.530,-0.320
3109,-0.520,-0.305
3110,-0.515,-0.295
3111,-0.505,-0.280
3112,-0.500,-0.280
3113,-0.495,-0.265
3114,-0.485,-0.265
3115,-0.485,-0.290
3116,-0.485,-0.285
3117,-0.500,-0.295
3118,-0.495,-0.290
3119,-0.505,-0.290
3120,-0.500,-0.290
3121,-0.500,-0.290
3122,-0.485,-0.280
3123,-0.475,-0.285
3124,-0.465,-0.280
3125,-0.450,-0.280
3126,-0.445,-0.285
3127,-0.440,-0.285
3128,-0.440,-0.295
3129,-0.440,-0.305
3130,-0.440,-0.305
3131,-0.435,-0.320
3132,-0.440,-0.320
3133,-0.420,-0.320
3134,-0.405,-0.320
3135,-0.375,-0.335
3136,-0.355,-0.320
3137,-0.350,-0.315
3138,-0.345,-0.330
3139,-0.360,-0.330
3140,-0.355,-0.345
3141,-0.370,-0.360
3142,-0.405,-0.375
3143,-0.420,-0.380
3144,-0.435,-0.380
3145,-0.445,-0.385
3146,-0.460,-0.375
3147,-0.465,-0.355
3148,-0.475,-0.355
3149,-0.470,-0.350
3150,-0.485,-0.375
3151,-0.500,-0.380
3152,-0.520,-0.395
3153,-0.550,-0.395
3154,-0.565,-0.395
3155,-0.585,-0.395
3156,-0.595,-0.390
3157,-0.605,-0.380
3158,-0.605,-0.385
3159,-0.605,-0.380
3160,-0.600,-0.375
3161,-0.600,-0.370
3162,-0.595,-0.375
3163,-0.605,-0.380
3164,-0.600,-0.380
3165,-0.620,-0.390
3166,-0.625,-0.395
3167,-0.625,-0.400
3168,-0.630,-0.410
3169,-0.625,-0.385
3170,-0.630,-0.380
3171,-0.620,-0.370
3172,-0.620,-0.365
3173,-0.615,-0.360
3174,-0.605,-0.350
3175,-0.590,-0.365
3176,-0.585,-0.375
3177,-0.585,-0.395
3178,-0.590,-0.400
3179,-0.585,-0.395
3180,-0.595,-0.390
3181,-0.585,-0.385
3182,-0.590,-0.370
3183,-0.570,-0.355
3184,-0.560,-0.360
3185,-0.540,-0.360
3186,-0.545,-0.360
3187,-0.545,-0.365
3188,-0.545,-0.370
3189,-0.545,-0.380
3190,-0.540,-0.375
3191,-0.535,-0.385
3192,-0.530,-0.380
3193,-0.525,-0.385
3194,-0.510,-0.375
3195,-0.510,-0.370
3196,-0.515,-0.360
3197,-0.520,-0.350
3198,-0.505,-0.355
3199,-0.525,-0.365
3200,-0.510,-0.375
3201,-0.500,-0.395
3202,-0.520,-0.405
3203,-0.530,-0.410
3204,-0.540,-0.400
3205,-0.550,-0.385
3206,-0.535,-0.385
3207,-0.540,-0.365
3208,-0.535,-0.370
3209,-0.545,-0.350
3210,-0.530,-0.375
3211,-0.540,-0.385
3212,-0.550,-0.390
3213,-0.560,-0.390
3214,-0.555,-0.390
3215,-0.570,-0.405
3216,-0.565,-0.400
3217,-0.565,-0.395
3218,-0.570,-0.380
3219,-0.565,-0.385
3220,-0.565,-0.370
3221,-0.565,-0.365
3222,-0.575,-0.360
3223,-0.590,-0.370
3224,-0.595,-0.375
3225,-0.600,-0.400
3226,-0.610,-0.395
3227,-0.620,-0.415
3228,-0.620,-0.405
3229,-0.630,-0.395
3230,-0.625,-0.380
3231,-0.615,-0.370
3232,-0.600,-0.375
3233,-0.595,-0.365
3234,-0.600,-0.370
3235,-0.615,-0.385
3236,-0.635,-0.395
3237,-0.635,-0.400
3238,-0.650,-0.395
3239,-0.660,-0.390
3240,-0.655,-0.405
3241,-0.650,-0.400
3242,-0.645,-0.395
3243,-0.625,-0.390
3244,-0.625,-0.390
3245,-0.625,-0.365
3246,-0.620,-0.365
3247,-0.630,-0.370
3248,-0.625,-0.375
3249,-0.635,-0.385
3250,-0.650,-0.405
3251,-0.660,-0.410
3252,-0.665,-0.410
3253,-0.660,-0.410
3254,-0.665,-0.400
3255,-0.655,-0.390
3256,-0.660,-0.385
3257,-0.640,-0.370
3258,-0.625,-0.380
3259,-0.630,-0.395
3260,-0.640,-0.395
3261,-0.640,-0.400
3262,-0.680,-0.400
3263,-0.680,-0.390
3264,-0.670,-0.400
3265,-0.670,-0.385
3266,-0.660,-0.405
3267,-0.650,-0.400
3268,-0.650,-0.390
3269,-0.645,-0.370
3270,-0.655,-0.375
3271,-0.650,-0.380
3272,-0.640,-0.385
3273,-0.660,-0.390
3274,-0.670,-0.415
3275,-0.660,-0.405
3276,-0.675,-0.420
3277,-0.665,-0.405
3278,-0.660,-0.400
3279,-0.645,-0.395
3280,-0.645,-0.375
3281,-0.635,-0.365
3282,-0.620,-0.370
3283,-0.605,-0.370
3284,-0.590,-0.385
3285,-0.585,-0.400
3286,-0.575,-0.405
3287,-0.565,-0.390
3288,-0.565,-0.385
3289,-0.550,-0.375
3290,-0.530,-0.350
3291,-0.520,-0.325
3292,-0.505,-0.315
3293,-0.480,-0.320
3294,-0.485,-0.335
3295,-0.485,-0.350
3296,-0.495,-0.375
3297,-0.515,-0.400
3298,-0.540,-0.430
3299,-0.560,-0.445
3300,-0.565,-0.455
3301,-0.555,-0.445
3302,-0.540,-0.440
3303,-0.535,-0.430
3304,-0.545,-0.400
3305,-0.540,-0.390
3306,-0.570,-0.390
3307,-0.575,-0.375
3308,-0.595,-0.395
3309,-0.625,-0.395
3310,-0.650,-0.405
3311,-0.660,-0.425
3312,-0.670,-0.425
3313,-0.665,-0.425
3314,-0.655,-0.410
3315,-0.640,-0.410
3316,-0.635,-0.400
3317,-0.635,-0.390
3318,-0.610,-0.405
3319,-0.600,-0.400
3320,-0.580,-0.400
3321,-0.575,-0.415
3322,-0.550,-0.415
3323,-0.510,-0.400
3324,-0.430,-0.390
3325,-0.280,-0.360
3326,-0.035,-0.325
3327,0.310,-0.265
3328,0.705,-0.230
3329,1.105,-0.220
3330,1.430,-0.255
3331,1.560,-0.345
3332,1.500,-0.480
3333,1.185,-0.640
3334,0.575,-0.830
3335,-0.065,-0.995
3336,-0.705,-1.100
3337,-1.345,-1.115
3338,-1.685,-1.065
3339,-1.540,-0.960
3340,-1.255,-0.830
3341,-0.990,-0.715
3342,-0.805,-0.625
3343,-0.740,-0.575
3344,-0.730,-0.530
3345,-0.760,-0.510
3346,-0.780,-0.490
3347,-0.800,-0.475
3348,-0.790,-0.440
3349,-0.770,-0.420
3350,-0.750,-0.410
3351,-0.745,-0.390
3352,-0.740,-0.380
3353,-0.750,-0.380
3354,-0.755,-0.375
3355,-0.755,-0.370
3356,-0.760,-0.360
3357,-0.755,-0.365
3358,-0.755,-0.375
3359,-0.770,-0.370
3360,-0.775,-0.380
3361,-0.750,-0.375
3362,-0.750,-0.360
3363,-0.745,-0.350
3364,-0.740,-0.340
3365,-0.735,-0.330
3366,-0.725,-0.340
3367,-0.730,-0.345
3368,-0.715,-0.355
3369,-0.715,-0.355
3370,-0.715,-0.355
3371,-0.715,-0.365
3372,-0.720,-0.360
3373,-0.705,-0.350
3374,-0.680,-0.340
3375,-0.670,-0.335
3376,-0.665,-0.345
3377,-0.665,-0.325
3378,-0.670,-0.325
3379,-0.660,-0.320
3380,-0.660,-0.325
3381,-0.655,-0.335
3382,-0.685,-0.340
3383,-0.660,-0.340
3384,-0.655,-0.355
3385,-0.670,-0.350
3386,-0.655,-0.350
3387,-0.630,-0.335
3388,-0.610,-0.330
3389,-0.600,-0.315
3390,-0.590,-0.305
3391,-0.590,-0.315
3392,-0.590,-0.315
3393,-0.600,-0.330
3394,-0.590,-0.335
3395,-0.600,-0.335
3396,-0.595,-0.330
3397,-0.600,-0.335
3398,-0.585,-0.320
3399,-0.585,-0.320
3400,-0.555,-0.310
3401,-0.545,-0.310
3402,-0.530,-0.310
3403,-0.530,-0.315
3404,-0.535,-0.315
3405,-0.530,-0.315
3406,-0.525,-0.315
3407,-0.535,-0.315
3408,-0.530,-0.320
3409,-0.525,-0.315
3410,-0.525,-0.315
3411,-0.520,-0.310
3412,-0.530,-0.300
3413,-0.525,-0.290
3414,-0.535,-0.290
3415,-0.520,-0.295
3416,-0.520,-0.300
3417,-0.520,-0.305
3418,-0.525,-0.310
3419,-0.520,-0.315
3420,-0.520,-0.330
3421,-0.520,-0.310
3422,-0.510,-0.305
3423,-0.500,-0.290
3424,-0.500,-0.290
3425,-0.495,-0.280
3426,-0.490,-0.285
3427,-0.485,-0.310
3428,-0.475,-0.310
3429,-0.470,-0.325
3430,-0.460,-0.335
3431,-0.465,-0.340
3432,-0.450,-0.325
3433,-0.435,-0.325
3434,-0.410,-0.320
3435,-0.390,-0.330
3436,-0.370,-0.340
3437,-0.365,-0.335
3438,-0.355,-0.360
3439,-0.370,-0.360
3440,-0.385,-0.360
3441,-0.400,-0.370
3442,-0.425,-0.385
3443,-0.445,-0.380
3444,-0.455,-0.385
3445,-0.475,-0.385
3446,-0.480,-0.385
3447,-0.485,-0.395
3448,-0.505,-0.390
3449,-0.505,-0.395
3450,-0.510,-0.380
3451,-0.520,-0.385
3452,-0.530,-0.390
3453,-0.560,-0.410
3454,-0.570,-0.410
3455,-0.590,-0.420
3456,-0.610,-0.410
3457,-0.630,-0.395
3458,-0.615,-0.390
3459,-0.640,-0.385
3460,-0.635,-0.375
3461,-0.625,-0.390
3462,-0.615,-0.410
3463,-0.615,-0.400
3464,-0.625,-0.405
3465,-0.645,-0.415
3466,-0.640,-0.410
3467,-0.650,-0.405
3468,-0.660,-0.400
3469,-0.635,-0.405
3470,-0.625,-0.405
3471,-0.630,-0.400
3472,-0.625,-0.390
3473,-0.620,-0.380
3474,-0.615,-0.395
3475,-0.615,-0.385
3476,-0.600,-0.380
3477,-0.615,-0.410
3478,-0.605,-0.400
3479,-0.605,-0.420
3480,-0.595,-0.420
3481,-0.590,-0.410
3482,-0.585,-0.400
3483,-0.580,-0.385
3484,-0.570,-0.380
3485,-0.575,-0.370
3486,-0.560,-0.390
3487,-0.555,-0.400
3488,-0.560,-0.400
3489,-0.560,-0.400
3490,-0.550,-0.405
3491,-0.555,-0.405
3492,-0.560,-0.400
3493,-0.555,-0.405
3494,-0.555,-0.405
3495,-0.550,-0.395
3496,-0.530,-0.385
3497,-0.525,-0.380
3498,-0.520,-0.370
3499,-0.520,-0.390
3500,-0.525,-0.400
3501,-0.530,-0.405
3502,-0.545,-0.410
3503,-0.545,-0.415
3504,-0.560,-0.420
3505,-0.560,-0.400
3506,-0.550,-0.410
3507,-0.545,-0.395
3508,-0.550,-0.380
3509,-0.545,-0.380
3510,-0.530,-0.390
3511,-0.545,-0.390
3512,-0.565,-0.400
3513,-0.590,-0.395
3514,-0.605,-0.400
3515,-0.605,-0.400
3516,-0.615,-0.405
3517,-0.625,-0.405
3518,-0.610,-0.405
3519,-0.640,-0.400
3520,-0.620,-0.390
3521,-0.620,-0.390
3522,-0.600,-0.385
3523,-0.595,-0.395
3524,-0.605,-0.395
3525,-0.605,-0.410
3526,-0.615,-0.400
3527,-0.635,-0.415
3528,-0.645,-0.405
3529,-0.645,-0.395
3530,-0.640,-0.400
3531,-0.640,-0.395
3532,-0.640,-0.390
3533,-0.640,-0.385
3534,-0.620,-0.385
3535,-0.625,-0.400
3536,-0.620,-0.400
3537,-0.640,-0.405
3538,-0.645,-0.400
3539,-0.655,-0.405
3540,-0.670,-0.415
3541,-0.665,-0.405
3542,-0.650,-0.405
3543,-0.645,-0.395
3544,-0.645,-0.395
3545,-0.650,-0.390
3546,-0.645,-0.390
3547,-0.655,-0.395
3548,-0.655,-0.405
3549,-0.675,-0.420
3550,-0.665,-0.425
3551,-0.665,-0.420
3552,-0.670,-0.415
3553,-0.675,-0.405
3554,-0.665,-0.405
3555,-0.665,-0.395
3556,-0.660,-0.385
3557,-0.650,-0.385
3558,-0.640,-0.385
3559,-0.650,-0.400
3560,-0.655,-0.405
3561,-0.660,-0.410
3562,-0.665,-0.410
3563,-0.675,-0.405
3564,-0.665,-0.400
3565,-0.670,-0.400
3566,-0.670,-0.405
3567,-0.660,-0.400
3568,-0.655,-0.405
3569,-0.655,-0.390
3570,-0.645,-0.390
3571,-0.645,-0.395
3572,-0.640,-0.385
3573,-0.645,-0.400
3574,-0.660,-0.415
3575,-0.645,-0.410
3576,-0.635,-0.415
3577,-0.625,-0.410
3578,-0.620,-0.390
3579,-0.610,-0.385
3580,-0.580,-0.380
3581,-0.570,-0.375
3582,-0.545,-0.365
3583,-0.545,-0.375
3584,-0.520,-0.360
3585,-0.525,-0.365
3586,-0.515,-0.355
3587,-0.515,-0.345
3588,-0.510,-0.350
3589,-0.505,-0.355
3590,-0.520,-0.375
3591,-0.520,-0.400
3592,-0.535,-0.420
3593,-0.550,-0.430
3594,-0.555,-0.430
3595,-0.555,-0.430
3596,-0.555,-0.430
3597,-0.555,-0.435
3598,-0.565,-0.420
3599,-0.580,-0.430
3600,-0.600,-0.435
3601,-0.620,-0.410
3602,-0.645,-0.415
3603,-0.660,-0.385
3604,-0.680,-0.390
3605,-0.675,-0.395
3606,-0.650,-0.405
3607,-0.655,-0.415
3608,-0.655,-0.415
3609,-0.640,-0.425
3610,-0.650,-0.425
3611,-0.645,-0.415
3612,-0.635,-0.420
3613,-0.625,-0.400
3614,-0.595,-0.420
3615,-0.545,-0.400
3616,-0.465,-0.385
3617,-0.350,-0.355
3618,-0.155,-0.325
3619,0.100,-0.280
3620,0.460,-0.260
3621,0.850,-0.220
3622,1.210,-0.250
3623,1.460,-0.320
3624,1.530,-0.430
3625,1.375,-0.555
3626,0.945,-0.715
3627,0.305,-0.875
3628,-0.335,-1.010
3629,-0.975,-1.095
3630,-1.615,-1.105
3631,-1.640,-1.030
3632,-1.435,-0.925
3633,-1.165,-0.820
3634,-0.945,-0.720
3635,-0.830,-0.635
3636,-0.810,-0.575
3637,-0.840,-0.540
3638,-0.845,-0.515
3639,-0.835,-0.485
3640,-0.810,-0.465
3641,-0.775,-0.435
3642,-0.755,-0.420
3643,-0.745,-0.405
3644,-0.760,-0.395
3645,-0.770,-0.390
3646,-0.780,-0.405
3647,-0.790,-0.405
3648,-0.805,-0.405
3649,-0.810,-0.395
3650,-0.800,-0.390
3651,-0.790,-0.370
3652,-0.780,-0.355
3653,-0.780,-0.345
3654,-0.775,-0.345
3655,-0.770,-0.350
3656,-0.765,-0.365
3657,-0.775,-0.375
3658,-0.770,-0.385
3659,-0.775,-0.385
3660,-0.775,-0.370
3661,-0.760,-0.375
3662,-0.755,-0.360
3663,-0.745,-0.335
3664,-0.730,-0.345
3665,-0.725,-0.340
3666,-0.715,-0.340
3667,-0.715,-0.355
3668,-0.720,-0.350
3669,-0.720,-0.370
3670,-0.725,-0.365
3671,-0.720,-0.360
3672,-0.715,-0.360
3673,-0.700,-0.345
3674,-0.715,-0.345
3675,-0.700,-0.350
3676,-0.675,-0.330
3677,-0.665,-0.320
3678,-0.660,-0.325
3679,-0.650,-0.320
3680,-0.645,-0.330
3681,-0.650,-0.350
3682,-0.635,-0.360
3683,-0.640,-0.365
3684,-0.635,-0.350
3685,-0.635,-0.340
3686,-0.630,-0.335
3687,-0.625,-0.325
3688,-0.620,-0.310
3689,-0.605,-0.310
3690,-0.580,-0.320
3691,-0.585,-0.330
3692,-0.575,-0.330
3693,-0.580,-0.340
3694,-0.585,-0.340
3695,-0.585,-0.335
3696,-0.585,-0.335
3697,-0.580,-0.340
3698,-0.560,-0.330
3699,-0.555,-0.330
3700,-0.540,-0.320
3701,-0.525,-0.300
3702,-0.540,-0.305
3703,-0.545,-0.310
3704,-0.550,-0.300
3705,-0.540,-0.315
3706,-0.540,-0.315
3707,-0.560,-0.330
3708,-0.570,-0.325
3709,-0.555,-0.320
3710,-0.565,-0.305
3711,-0.560,-0.300
3712,-0.530,-0.290
3713,-0.535,-0.280
3714,-0.510,-0.290
3715,-0.510,-0.300
3716,-0.520,-0.295
3717,-0.510,-0.320
3718,-0.525,-0.330
3719,-0.525,-0.325
3720,-0.530,-0.330
3721,-0.525,-0.315
3722,-0.515,-0.305
3723,-0.485,-0.315
3724,-0.470,-0.310
3725,-0.465,-0.310
3726,-0.430,-0.315
3727,-0.425,-0.325
3728,-0.410,-0.340
3729,-0.410,-0.340
3730,-0.410,-0.360
3731,-0.430,-0.370
3732,-0.435,-0.375
3733,-0.430,-0.390
3734,-0.425,-0.380
3735,-0.450,-0.390
3736,-0.450,-0.395
3737,-0.465,-0.365
3738,-0.465,-0.370
3739,-0.485,-0.375
3740,-0.495,-0.395
3741,-0.515,-0.400
3742,-0.515,-0.415
3743,-0.535,-0.430
3744,-0.565,-0.435
3745,-0.590,-0.415
3746,-0.595,-0.410
3747,-0.600,-0.395
3748,-0.610,-0.390
3749,-0.620,-0.390
3750,-0.610,-0.385
3751,-0.605,-0.405
3752,-0.625,-0.395
3753,-0.635,-0.405
3754,-0.650,-0.410
3755,-0.660,-0.415
3756,-0.680,-0.410
3757,-0.665,-0.410
3758,-0.650,-0.410
3759,-0.650,-0.415
3760,-0.650,-0.395
3761,-0.640,-0.380
3762,-0.645,-0.385
3763,-0.635,-0.395
3764,-0.640,-0.395
3765,-0.635,-0.415
3766,-0.645,-0.410
3767,-0.640,-0.420
3768,-0.645,-0.415
3769,-0.645,-0.420
3770,-0.635,-0.405
3771,-0.625,-0.395
3772,-0.620,-0.380
3773,-0.605,-0.375
3774,-0.590,-0.385
3775,-0.585,-0.390
3776,-0.585,-0.405
3777,-0.585,-0.405
3778,-0.590,-0.420
3779,-0.600,-0.415
3780,-0.610,-0.410
3781,-0.590,-0.400
3782,-0.590,-0.395
3783,-0.575,-0.400
3784,-0.555,-0.400
3785,-0.555,-0.405
3786,-0.550,-0.375
3787,-0.550,-0.390
3788,-0.550,-0.390
3789,-0.560,-0.400
3790,-0.555,-0.410
3791,-0.560,-0.420
3792,-0.555,-0.425
3793,-0.560,-0.420
3794,-0.570,-0.420
3795,-0.565,-0.400
3796,-0.570,-0.390
3797,-0.550,-0.385
3798,-0.545,-0.380
3799,-0.550,-0.395
3800,-0.550,-0.400
3801,-0.560,-0.405
3802,-0.565,-0.420
3803,-0.575,-0.420
3804,-0.590,-0.415
3805,-0.595,-0.400
3806,-0.590,-0.415
3807,-0.590,-0.410
3808,-0.580,-0.390
3809,-0.585,-0.400
3810,-0.585,-0.400
3811,-0.590,-0.390
3812,-0.600,-0.400
3813,-0.605,-0.405
3814,-0.610,-0.415
3815,-0.615,-0.415
3816,-0.630,-0.435
3817,-0.630,-0.410
3818,-0.625,-0.425
3819,-0.620,-0.410
3820,-0.630,-0.400
3821,-0.635,-0.390
3822,-0.630,-0.390
3823,-0.630,-0.395
3824,-0.620,-0.410
3825,-0.630,-0.425
3826,-0.625,-0.425
3827,-0.650,-0.430
3828,-0.655,-0.430
3829,-0.655,-0.420
3830,-0.665,-0.410
3831,-0.650,-0.405
3832,-0.665,-0.405
3833,-0.655,-0.395
3834,-0.650,-0.395
3835,-0.660,-0.405
3836,-0.665,-0.400
3837,-0.675,-0.405
3838,-0.680,-0.410
3839,-0.685,-0.420
3840,-0.680,-0.420
3841,-0.670,-0.420
3842,-0.670,-0.420
3843,-0.675,-0.410
3844,-0.680,-0.405
3845,-0.660,-0.400
3846,-0.655,-0.385
3847,-0.660,-0.380
3848,-0.660,-0.400
3849,-0.655,-0.405
3850,-0.660,-0.420
3851,-0.670,-0.435
3852,-0.685,-0.425
3853,-0.690,-0.415
3854,-0.680,-0.400
3855,-0.680,-0.390
3856,-0.660,-0.390
3857,-0.660,-0.395
3858,-0.645,-0.390
3859,-0.645,-0.405
3860,-0.650,-0.410
3861,-0.660,-0.410
3862,-0.670,-0.405
3863,-0.675,-0.405
3864,-0.675,-0.405
3865,-0.680,-0.400
3866,-0.675,-0.405
3867,-0.670,-0.410
3868,-0.660,-0.410
3869,-0.660,-0.400
3870,-0.650,-0.390
3871,-0.655,-0.390
3872,-0.645,-0.390
3873,-0.660,-0.405
3874,-0.665,-0.400
3875,-0.660,-0.410
3876,-0.660,-0.420
3877,-0.645,-0.415
3878,-0.630,-0.410
3879,-0.630,-0.405
3880,-0.610,-0.375
3881,-0.600,-0.380
3882,-0.575,-0.370
3883,-0.560,-0.365
3884,-0.545,-0.365
3885,-0.545,-0.350
3886,-0.530,-0.360
3887,-0.525,-0.350
3888,-0.520,-0.365
3889,-0.510,-0.365
3890,-0.510,-0.380
3891,-0.515,-0.390
3892,-0.530,-0.410
3893,-0.540,-0.430
3894,-0.535,-0.435
3895,-0.545,-0.450
3896,-0.550,-0.440
3897,-0.565,-0.435
3898,-0.565,-0.430
3899,-0.585,-0.430
3900,-0.595,-0.435
3901,-0.605,-0.425
3902,-0.640,-0.415
3903,-0.650,-0.395
3904,-0.640,-0.400
3905,-0.650,-0.400
3906,-0.640,-0.390
3907,-0.635,-0.385
3908,-0.640,-0.405
3909,-0.640,-0.415
3910,-0.640,-0.430
3911,-0.635,-0.440
3912,-0.640,-0.435
3913,-0.635,-0.425
3914,-0.620,-0.415
3915,-0.590,-0.400
3916,-0.565,-0.395
3917,-0.510,-0.385
3918,-0.440,-0.365
3919,-0.280,-0.345
3920,-0.045,-0.290
3921,0.265,-0.250
3922,0.635,-0.200
3923,1.050,-0.195
3924,1.365,-0.230
3925,1.580,-0.305
3926,1.610,-0.430
3927,1.470,-0.595
3928,1.100,-0.765
3929,0.495,-0.930
3930,-0.145,-1.100
3931,-0.785,-1.215
3932,-1.425,-1.240
3933,-1.605,-1.205
3934,-1.490,-1.090
3935,-1.220,-0.990
3936,-0.970,-0.895
3937,-0.800,-0.800
3938,-0.735,-0.705
3939,-0.750,-0.630
3940,-0.805,-0.570
3941,-0.835,-0.535
3942,-0.825,-0.490
3943,-0.800,-0.475
3944,-0.765,-0.460
3945,-0.740,-0.445
3946,-0.725,-0.440
3947,-0.745,-0.420
3948,-0.765,-0.410
3949,-0.775,-0.395
3950,-0.790,-0.380
3951,-0.795,-0.370
3952,-0.795,-0.360
3953,-0.790,-0.360
3954,-0.775,-0.360
3955,-0.770,-0.370
3956,-0.785,-0.360
3957,-0.785,-0.370
3958,-0.770,-0.365
3959,-0.775,-0.360
3960,-0.775,-0.345
3961,-0.775,-0.360
3962,-0.755,-0.355
3963,-0.760,-0.345
3964,-0.750,-0.345
3965,-0.740,-0.335
3966,-0.720,-0.330
3967,-0.730,-0.335
3968,-0.730,-0.340
3969,-0.720,-0.340
3970,-0.720,-0.350
3971,-0.725,-0.360
3972,-0.720,-0.360
3973,-0.715,-0.345
3974,-0.705,-0.345
3975,-0.705,-0.325
3976,-0.700,-0.325
3977,-0.680,-0.320
3978,-0.670,-0.325
3979,-0.665,-0.345
3980,-0.665,-0.340
3981,-0.665,-0.340
3982,-0.670,-0.345
3983,-0.660,-0.345
3984,-0.650,-0.330
3985,-0.650,-0.310
3986,-0.640,-0.340
3987,-0.620,-0.325
3988,-0.625,-0.320
3989,-0.605,-0.320
3990,-0.600,-0.320
3991,-0.595,-0.315
3992,-0.590,-0.320
3993,-0.590,-0.325
3994,-0.590,-0.335
3995,-0.585,-0.340
3996,-0.570,-0.345
3997,-0.565,-0.340
3998,-0.565,-0.335
3999,-0.550,-0.310
4000,-0.540,-0.305
4001,-0.540,-0.305
4002,-0.525,-0.305
4003,-0.525,-0.310
4004,-0.515,-0.320
4005,-0.515,-0.330
4006,-0.510,-0.330
4007,-0.515,-0.335
4008,-0.525,-0.335
4009,-0.530,-0.320
4010,-0.510,-0.305
4011,-0.505,-0.310
4012,-0.490,-0.300
4013,-0.485,-0.300
4014,-0.485,-0.300
4015,-0.475,-0.310
4016,-0.465,-0.310
4017,-0.465,-0.325
4018,-0.470,-0.320
4019,-0.465,-0.325
4020,-0.465,-0.330
4021,-0.460,-0.320
4022,-0.450,-0.320
4023,-0.450,-0.320
4024,-0.440,-0.310
4025,-0.430,-0.305
4026,-0.415,-0.315
4027,-0.400,-0.320
4028,-0.375,-0.325
4029,-0.380,-0.340
4030,-0.365,-0.350
4031,-0.355,-0.355
4032,-0.340,-0.380
4033,-0.330,-0.370
4034,-0.340,-0.370
4035,-0.330,-0.365
4036,-0.335,-0.365
4037,-0.335,-0.355
4038,-0.340,-0.365
4039,-0.355,-0.385
4040,-0.370,-0.395
4041,-0.400,-0.410
4042,-0.430,-0.405
4043,-0.455,-0.425
4044,-0.480,-0.425
4045,-0.505,-0.415
4046,-0.525,-0.425
4047,-0.530,-0.425
4048,-0.535,-0.415
4049,-0.550,-0.400
4050,-0.565,-0.390
4051,-0.580,-0.395
4052,-0.580,-0.400
4053,-0.595,-0.415
4054,-0.600,-0.435
4055,-0.610,-0.430
4056,-0.615,-0.430
4057,-0.620,-0.415
4058,-0.615,-0.410
4059,-0.625,-0.395
4060,-0.620,-0.400
4061,-0.605,-0.395
4062,-0.600,-0.390
4063,-0.610,-0.405
4064,-0.605,-0.410
4065,-0.605,-0.405
4066,-0.605,-0.415
4067,-0.630,-0.415
4068,-0.615,-0.415
4069,-0.610,-0.415
4070,-0.605,-0.410
4071,-0.595,-0.400
4072,-0.580,-0.395
4073,-0.575,-0.395
4074,-0.570,-0.380
4075,-0.570,-0.395
4076,-0.560,-0.395
4077,-0.570,-0.405
4078,-0.570,-0.410
4079,-0.560,-0.430
4080,-0.545,-0.415
4081,-0.560,-0.415
4082,-0.550,-0.400
4083,-0.550,-0.390
4084,-0.550,-0.390
4085,-0.535,-0.385
4086,-0.525,-0.390
4087,-0.505,-0.405
4088,-0.520,-0.410
4089,-0.525,-0.410
4090,-0.535,-0.415
4091,-0.535,-0.410
4092,-0.540,-0.420
4093,-0.545,-0.405
4094,-0.535,-0.420
4095,-0.535,-0.410
4096,-0.530,-0.400
4097,-0.530,-0.390
4098,-0.525,-0.390
4099,-0.525,-0.395
4100,-0.540,-0.390
4101,-0.545,-0.410
4102,-0.560,-0.420
4103,-0.545,-0.425
4104,-0.550,-0.430
4105,-0.560,-0.420
4106,-0.575,-0.415
4107,-0.560,-0.405
4108,-0.560,-0.385
4109,-0.555,-0.375
4110,-0.560,-0.380
4111,-0.555,-0.395
4112,-0.560,-0.405
4113,-0.575,-0.420
4114,-0.595,-0.420
4115,-0.605,-0.415
4116,-0.605,-0.415
4117,-0.605,-0.410
4118,-0.605,-0.405
4119,-0.600,-0.405
4120,-0.595,-0.405
4121,-0.600,-0.405
4122,-0.595,-0.395
4123,-0.605,-0.405
4124,-0.595,-0.390
4125,-0.600,-0.405
4126,-0.615,-0.430
4127,-0.620,-0.435
4128,-0.625,-0.445
4129,-0.635,-0.430
4130,-0.635,-0.415
4131,-0.630,-0.400
4132,-0.630,-0.400
4133,-0.635,-0.395
4134,-0.635,-0.380
4135,-0.625,-0.410
4136,-0.635,-0.410
4137,-0.625,-0.420
4138,-0.635,-0.440
4139,-0.630,-0.420
4140,-0.655,-0.420
4141,-0.645,-0.395
4142,-0.655,-0.405
4143,-0.645,-0.400
4144,-0.640,-0.405
4145,-0.625,-0.395
4146,-0.635,-0.390
4147,-0.635,-0.405
4148,-0.640,-0.410
4149,-0.655,-0.410
4150,-0.650,-0.415
4151,-0.665,-0.410
4152,-0.655,-0.425
4153,-0.665,-0.420
4154,-0.655,-0.415
4155,-0.670,-0.420
4156,-0.660,-0.390
4157,-0.655,-0.385
4158,-0.650,-0.380
4159,-0.655,-0.390
4160,-0.645,-0.405
4161,-0.650,-0.410
4162,-0.650,-0.430
4163,-0.655,-0.420
4164,-0.665,-0.430
4165,-0.670,-0.420
4166,-0.670,-0.415
4167,-0.660,-0.400
4168,-0.650,-0.390
4169,-0.650,-0.385
4170,-0.635,-0.385
4171,-0.640,-0.395
4172,-0.640,-0.415
4173,-0.640,-0.405
4174,-0.645,-0.415
4175,-0.655,-0.420
4176,-0.645,-0.420
4177,-0.655,-0.410
4178,-0.645,-0.405
4179,-0.635,-0.405
4180,-0.615,-0.405
4181,-0.600,-0.400
4182,-0.585,-0.395
4183,-0.580,-0.380
4184,-0.575,-0.385
4185,-0.565,-0.370
4186,-0.550,-0.360
4187,-0.540,-0.360
4188,-0.525,-0.370
4189,-0.525,-0.375
4190,-0.525,-0.380
4191,-0.515,-0.390
4192,-0.515,-0.415
4193,-0.540,-0.435
4194,-0.545,-0.440
4195,-0.555,-0.470
4196,-0.570,-0.470
4197,-0.570,-0.460
4198,-0.575,-0.445
4199,-0.595,-0.455
4200,-0.605,-0.450
4201,-0.615,-0.430
4202,-0.635,-0.430
4203,-0.635,-0.420
4204,-0.650,-0.415
4205,-0.645,-0.405
4206,-0.650,-0.410
4207,-0.650,-0.415
4208,-0.650,-0.415
4209,-0.650,-0.425
4210,-0.650,-0.440
4211,-0.655,-0.460
4212,-0.645,-0.455
4213,-0.640,-0.445
4214,-0.630,-0.430
4215,-0.605,-0.415
4216,-0.565,-0.385
4217,-0.520,-0.380
4218,-0.410,-0.355
4219,-0.270,-0.345
4220,-0.040,-0.290
4221,0.275,-0.275
4222,0.635,-0.240
4223,1.005,-0.215
4224,1.320,-0.245
4225,1.495,-0.320
4226,1.515,-0.430
4227,1.370,-0.575
4228,1.000,-0.755
4229,0.420,-0.935
4230,-0.220,-1.090
4231,-0.860,-1.220
4232,-1.395,-1.245
4233,-1.540,-1.200
4234,-1.430,-1.100
4235,-1.200,-0.985
4236,-0.965,-0.895
4237,-0.815,-0.790
4238,-0.765,-0.710
4239,-0.770,-0.640
4240,-0.795,-0.575
4241,-0.835,-0.540
4242,-0.825,-0.495
4243,-0.800,-0.480
4244,-0.775,-0.455
4245,-0.750,-0.445
4246,-0.750,-0.435
4247,-0.750,-0.430
4248,-0.760,-0.430
4249,-0.785,-0.425
4250,-0.790,-0.405
4251,-0.800,-0.385
4252,-0.790,-0.375
4253,-0.780,-0.370
4254,-0.775,-0.370
4255,-0.775,-0.375
4256,-0.795,-0.370
4257,-0.785,-0.375
4258,-0.800,-0.375
4259,-0.795,-0.375
4260,-0.800,-0.370
4261,-0.790,-0.370
4262,-0.775,-0.370
4263,-0.765,-0.365
4264,-0.755,-0.355
4265,-0.745,-0.360
4266,-0.745,-0.345
4267,-0.745,-0.340
4268,-0.735,-0.340
4269,-0.725,-0.350
4270,-0.730,-0.355
4271,-0.740,-0.360
4272,-0.730,-0.380
4273,-0.720,-0.370
4274,-0.720,-0.365
4275,-0.715,-0.355
4276,-0.705,-0.340
4277,-0.690,-0.330
4278,-0.675,-0.330
4279,-0.670,-0.330
4280,-0.650,-0.330
4281,-0.670,-0.335
4282,-0.670,-0.345
4283,-0.660,-0.350
4284,-0.670,-0.360
4285,-0.670,-0.340
4286,-0.665,-0.330
4287,-0.650,-0.335
4288,-0.640,-0.330
4289,-0.620,-0.325
4290,-0.615,-0.325
4291,-0.620,-0.335
4292,-0.620,-0.335
4293,-0.615,-0.340
4294,-0.605,-0.330
4295,-0.615,-0.340
4296,-0.610,-0.345
4297,-0.585,-0.330
4298,-0.590,-0.345
4299,-0.570,-0.345
4300,-0.565,-0.335
4301,-0.550,-0.305
4302,-0.535,-0.305
4303,-0.545,-0.315
4304,-0.540,-0.330
4305,-0.540,-0.320
4306,-0.535,-0.325
4307,-0.530,-0.340
4308,-0.540,-0.345
4309,-0.550,-0.335
4310,-0.545,-0.325
4311,-0.540,-0.310
4312,-0.535,-0.310
4313,-0.535,-0.300
4314,-0.525,-0.300
4315,-0.515,-0.315
4316,-0.515,-0.315
4317,-0.510,-0.320
4318,-0.510,-0.330
4319,-0.510,-0.330
4320,-0.515,-0.325
4321,-0.520,-0.330
4322,-0.500,-0.315
4323,-0.505,-0.315
4324,-0.495,-0.310
4325,-0.480,-0.315
4326,-0.455,-0.325
4327,-0.455,-0.315
4328,-0.445,-0.330
4329,-0.420,-0.340
4330,-0.410,-0.345
4331,-0.400,-0.355
4332,-0.390,-0.365
4333,-0.385,-0.370
4334,-0.370,-0.365
4335,-0.375,-0.375
4336,-0.370,-0.360
4337,-0.390,-0.370
4338,-0.395,-0.380
4339,-0.395,-0.385
4340,-0.410,-0.395
4341,-0.420,-0.420
4342,-0.450,-0.405
4343,-0.470,-0.410
4344,-0.500,-0.425
4345,-0.520,-0.415
4346,-0.535,-0.415
4347,-0.550,-0.400
4348,-0.535,-0.410
4349,-0.545,-0.405
4350,-0.550,-0.410
4351,-0.560,-0.410
4352,-0.575,-0.410
4353,-0.590,-0.420
4354,-0.605,-0.420
4355,-0.610,-0.420
4356,-0.610,-0.425
4357,-0.610,-0.420
4358,-0.635,-0.410
4359,-0.635,-0.420
4360,-0.630,-0.410
4361,-0.625,-0.400
4362,-0.620,-0.390
4363,-0.610,-0.400
4364,-0.605,-0.395
4365,-0.620,-0.400
4366,-0.610,-0.410
4367,-0.595,-0.420
4368,-0.610,-0.425
4369,-0.620,-0.410
4370,-0.620,-0.390
4371,-0.625,-0.390
4372,-0.605,-0.390
4373,-0.600,-0.385
4374,-0.585,-0.390
4375,-0.580,-0.410
4376,-0.570,-0.405
4377,-0.565,-0.410
4378,-0.570,-0.415
4379,-0.565,-0.405
4380,-0.570,-0.405
4381,-0.570,-0.400
4382,-0.575,-0.395
4383,-0.565,-0.400
4384,-0.555,-0.390
4385,-0.530,-0.380
4386,-0.525,-0.385
4387,-0.525,-0.385
4388,-0.520,-0.390
4389,-0.520,-0.400
4390,-0.520,-0.405
4391,-0.520,-0.430
4392,-0.525,-0.425
4393,-0.530,-0.410
4394,-0.520,-0.410
4395,-0.520,-0.390
4396,-0.520,-0.385
4397,-0.515,-0.370
4398,-0.500,-0.370
4399,-0.510,-0.385
4400,-0.510,-0.395
4401,-0.520,-0.405
4402,-0.540,-0.430
4403,-0.535,-0.435
4404,-0.535,-0.430
4405,-0.545,-0.400
4406,-0.540,-0.390
4407,-0.545,-0.385
4408,-0.535,-0.395
4409,-0.525,-0.380
4410,-0.530,-0.380
4411,-0.540,-0.390
4412,-0.555,-0.400
4413,-0.560,-0.405
4414,-0.575,-0.415
4415,-0.580,-0.420
4416,-0.580,-0.425
4417,-0.580,-0.425
4418,-0.575,-0.420
4419,-0.585,-0.405
4420,-0.585,-0.385
4421,-0.590,-0.380
4422,-0.595,-0.375
4423,-0.610,-0.385
4424,-0.615,-0.390
4425,-0.600,-0.420
4426,-0.610,-0.420
4427,-0.620,-0.430
4428,-0.620,-0.425
4429,-0.620,-0.415
4430,-0.610,-0.405
4431,-0.610,-0.400
4432,-0.610,-0.390
4433,-0.600,-0.385
4434,-0.590,-0.385
4435,-0.585,-0.410
4436,-0.595,-0.415
4437,-0.615,-0.405
4438,-0.625,-0.415
4439,-0.635,-0.425
4440,-0.635,-0.420
4441,-0.635,-0.425
4442,-0.635,-0.415
4443,-0.620,-0.415
4444,-0.620,-0.400
4445,-0.625,-0.400
4446,-0.620,-0.390
4447,-0.610,-0.390
4448,-0.615,-0.390
4449,-0.635,-0.395
4450,-0.640,-0.420
4451,-0.630,-0.420
4452,-0.645,-0.435
4453,-0.650,-0.425
4454,-0.650,-0.415
4455,-0.650,-0.410
4456,-0.630,-0.395
4457,-0.630,-0.390
4458,-0.615,-0.390
4459,-0.615,-0.390
4460,-0.620,-0.405
4461,-0.620,-0.410
4462,-0.630,-0.415
4463,-0.640,-0.430
4464,-0.650,-0.420
4465,-0.645,-0.410
4466,-0.655,-0.400
4467,-0.650,-0.410
4468,-0.640,-0.395
4469,-0.630,-0.395
4470,-0.615,-0.400
4471,-0.615,-0.395
4472,-0.620,-0.405
4473,-0.615,-0.400
4474,-0.620,-0.400
4475,-0.625,-0.410
4476,-0.635,-0.430
4477,-0.640,-0.415
4478,-0.630,-0.435
4479,-0.630,-0.425
4480,-0.610,-0.400
4481,-0.605,-0.395
4482,-0.585,-0.375
4483,-0.575,-0.385
4484,-0.565,-0.390
4485,-0.545,-0.395
4486,-0.530,-0.400
4487,-0.535,-0.390
4488,-0.525,-0.375
4489,-0.510,-0.360
4490,-0.505,-0.345
4491,-0.475,-0.330
4492,-0.455,-0.350
4493,-0.460,-0.355
4494,-0.460,-0.375
4495,-0.485,-0.415
4496,-0.505,-0.445
4497,-0.520,-0.450
4498,-0.545,-0.460
4499,-0.550,-0.460
4500,-0.545,-0.465
4501,-0.555,-0.440
4502,-0.530,-0.445
4503,-0.550,-0.430
4504,-0.560,-0.425
4505,-0.565,-0.405
4506,-0.575,-0.400
4507,-0.615,-0.390
4508,-0.620,-0.380
4509,-0.625,-0.395
4510,-0.630,-0.405
4511,-0.625,-0.430
4512,-0.625,-0.445
4513,-0.625,-0.430
4514,-0.620,-0.425
4515,-0.615,-0.420
4516,-0.610,-0.420
4517,-0.615,-0.405
4518,-0.600,-0.390
4519,-0.590,-0.415
4520,-0.565,-0.410
4521,-0.540,-0.420
4522,-0.515,-0.415
4523,-0.480,-0.415
4524,-0.390,-0.405
4525,-0.260,-0.370
4526,-0.040,-0.315
4527,0.230,-0.270
4528,0.585,-0.240
4529,0.945,-0.225
4530,1.270,-0.235
4531,1.470,-0.290
4532,1.530,-0.405
4533,1.425,-0.540
4534,1.105,-0.695
4535,0.545,-0.855
4536,-0.095,-1.020
4537,-0.735,-1.130
4538,-1.340,-1.170
4539,-1.535,-1.115
4540,-1.470,-1.015
4541,-1.245,-0.890
4542,-1.005,-0.785
4543,-0.845,-0.695
4544,-0.775,-0.635
4545,-0.770,-0.580
4546,-0.795,-0.560
4547,-0.820,-0.535
4548,-0.840,-0.520
4549,-0.825,-0.480
4550,-0.790,-0.460
4551,-0.760,-0.430
4552,-0.740,-0.405
4553,-0.740,-0.395
4554,-0.750,-0.385
4555,-0.760,-0.395
4556,-0.770,-0.400
4557,-0.765,-0.410
4558,-0.775,-0.400
4559,-0.770,-0.385
4560,-0.770,-0.375
4561,-0.770,-0.375
4562,-0.760,-0.370
4563,-0.770,-0.355
4564,-0.750,-0.365
4565,-0.740,-0.370
4566,-0.735,-0.350
4567,-0.735,-0.375
4568,-0.730,-0.370
4569,-0.735,-0.365
4570,-0.725,-0.360
4571,-0.735,-0.365
4572,-0.710,-0.370
4573,-0.710,-0.370
4574,-0.705,-0.375
4575,-0.705,-0.350
4576,-0.685,-0.350
4577,-0.690,-0.335
4578,-0.670,-0.335
4579,-0.670,-0.335
4580,-0.660,-0.345
4581,-0.675,-0.360
4582,-0.660,-0.370
4583,-0.660,-0.380
4584,-0.655,-0.365
4585,-0.655,-0.355
4586,-0.635,-0.340
4587,-0.625,-0.325
4588,-0.610,-0.330
4589,-0.610,-0.330
4590,-0.600,-0.335
4591,-0.595,-0.335
4592,-0.600,-0.345
4593,-0.600,-0.350
4594,-0.600,-0.355
4595,-0.600,-0.355
4596,-0.600,-0.350
4597,-0.590,-0.350
4598,-0.580,-0.345
4599,-0.565,-0.345
4600,-0.550,-0.335
4601,-0.555,-0.335
4602,-0.530,-0.315
4603,-0.525,-0.325
4604,-0.525,-0.320
4605,-0.520,-0.330
4606,-0.535,-0.335
4607,-0.525,-0.350
4608,-0.525,-0.360
4609,-0.530,-0.350
4610,-0.525,-0.345
4611,-0.520,-0.325
4612,-0.510,-0.320
4613,-0.500,-0.300
4614,-0.485,-0.310
4615,-0.480,-0.310
4616,-0.475,-0.325
4617,-0.475,-0.330
4618,-0.495,-0.335
4619,-0.500,-0.345
4620,-0.500,-0.345
4621,-0.510,-0.330
4622,-0.505,-0.315
4623,-0.500,-0.300
4624,-0.500,-0.310
4625,-0.480,-0.310
4626,-0.475,-0.310
4627,-0.465,-0.325
4628,-0.455,-0.320
4629,-0.445,-0.320
4630,-0.455,-0.330
4631,-0.455,-0.340
4632,-0.440,-0.345
4633,-0.435,-0.345
4634,-0.430,-0.350
4635,-0.410,-0.345
4636,-0.405,-0.350
4637,-0.385,-0.335
4638,-0.380,-0.345
4639,-0.355,-0.360
4640,-0.345,-0.375
4641,-0.340,-0.390
4642,-0.345,-0.410
4643,-0.375,-0.410
4644,-0.380,-0.415
4645,-0.400,-0.410
4646,-0.415,-0.400
4647,-0.445,-0.390
4648,-0.445,-0.400
4649,-0.445,-0.395
4650,-0.445,-0.400
4651,-0.450,-0.410
4652,-0.485,-0.415
4653,-0.505,-0.420
4654,-0.525,-0.425
4655,-0.540,-0.420
4656,-0.545,-0.430
4657,-0.550,-0.425
4658,-0.565,-0.430
4659,-0.570,-0.415
4660,-0.570,-0.400
4661,-0.590,-0.400
4662,-0.580,-0.395
4663,-0.585,-0.390
4664,-0.600,-0.405
4665,-0.605,-0.415
4666,-0.620,-0.435
4667,-0.605,-0.440
4668,-0.605,-0.450
4669,-0.625,-0.430
4670,-0.615,-0.425
4671,-0.590,-0.420
4672,-0.595,-0.405
4673,-0.565,-0.395
4674,-0.570,-0.385
4675,-0.565,-0.410
4676,-0.560,-0.410
4677,-0.575,-0.430
4678,-0.590,-0.420
4679,-0.590,-0.420
4680,-0.590,-0.420
4681,-0.595,-0.425
4682,-0.590,-0.415
4683,-0.565,-0.410
4684,-0.545,-0.410
4685,-0.540,-0.405
4686,-0.525,-0.395
4687,-0.520,-0.395
4688,-0.525,-0.395
4689,-0.515,-0.400
4690,-0.515,-0.405
4691,-0.520,-0.425
4692,-0.515,-0.435
4693,-0.520,-0.430
4694,-0.515,-0.425
4695,-0.520,-0.415
4696,-0.505,-0.395
4697,-0.515,-0.395
4698,-0.500,-0.390
4699,-0.500,-0.395
4700,-0.490,-0.400
4701,-0.485,-0.420
4702,-0.500,-0.425
4703,-0.505,-0.430
4704,-0.515,-0.430
4705,-0.510,-0.425
4706,-0.515,-0.410
4707,-0.530,-0.405
4708,-0.510,-0.405
4709,-0.505,-0.395
4710,-0.495,-0.390
4711,-0.490,-0.410
4712,-0.500,-0.410
4713,-0.505,-0.405
4714,-0.515,-0.420
4715,-0.520,-0.435
4716,-0.535,-0.425
4717,-0.535,-0.435
4718,-0.545,-0.430
4719,-0.545,-0.425
4720,-0.550,-0.415
4721,-0.550,-0.405
4722,-0.555,-0.375
4723,-0.555,-0.400
4724,-0.565,-0.400
4725,-0.565,-0.410
4726,-0.575,-0.425
4727,-0.575,-0.445
4728,-0.590,-0.440
4729,-0.610,-0.430
4730,-0.590,-0.420
4731,-0.600,-0.415
4732,-0.585,-0.395
4733,-0.580,-0.395
4734,-0.575,-0.395
4735,-0.580,-0.410
4736,-0.590,-0.415
4737,-0.610,-0.410
4738,-0.620,-0.420
4739,-0.620,-0.425
4740,-0.630,-0.425
4741,-0.630,-0.420
4742,-0.620,-0.410
4743,-0.625,-0.435
4744,-0.605,-0.420
4745,-0.610,-0.400
4746,-0.600,-0.390
4747,-0.595,-0.395
4748,-0.600,-0.390
4749,-0.625,-0.395
4750,-0.615,-0.405
4751,-0.630,-0.430
4752,-0.635,-0.430
4753,-0.645,-0.430
4754,-0.650,-0.425
4755,-0.650,-0.415
4756,-0.645,-0.405
4757,-0.630,-0.395
4758,-0.625,-0.385
4759,-0.625,-0.400
4760,-0.625,-0.410
4761,-0.625,-0.420
4762,-0.620,-0.410
4763,-0.640,-0.425
4764,-0.630,-0.430
4765,-0.645,-0.415
4766,-0.640,-0.405
4767,-0.635,-0.405
4768,-0.635,-0.405
4769,-0.650,-0.405
4770,-0.630,-0.405
4771,-0.640,-0.410
4772,-0.640,-0.405
4773,-0.630,-0.405
4774,-0.630,-0.405
4775,-0.645,-0.425
4776,-0.640,-0.435
4777,-0.630,-0.425
4778,-0.630,-0.415
4779,-0.625,-0.405
4780,-0.620,-0.400
4781,-0.620,-0.385
4782,-0.600,-0.390
4783,-0.605,-0.400
4784,-0.595,-0.395
4785,-0.595,-0.420
4786,-0.595,-0.415
4787,-0.580,-0.420
4788,-0.575,-0.405
4789,-0.565,-0.395
4790,-0.525,-0.380
4791,-0.505,-0.365
4792,-0.480,-0.350
4793,-0.465,-0.345
4794,-0.450,-0.350
4795,-0.450,-0.360
4796,-0.465,-0.375
4797,-0.475,-0.395
4798,-0.500,-0.420
4799,-0.515,-0.450
4800,-0.535,-0.455
4801,-0.540,-0.465
4802,-0.540,-0.455
4803,-0.530,-0.450
4804,-0.525,-0.440
4805,-0.525,-0.425
4806,-0.530,-0.400
4807,-0.555,-0.405
4808,-0.560,-0.405
4809,-0.575,-0.410
4810,-0.590,-0.415
4811,-0.605,-0.425
4812,-0.635,-0.435
4813,-0.625,-0.430
4814,-0.630,-0.415
4815,-0.620,-0.410
4816,-0.620,-0.410
4817,-0.605,-0.405
4818,-0.590,-0.415
4819,-0.580,-0.415
4820,-0.595,-0.415
4821,-0.570,-0.425
4822,-0.540,-0.415
4823,-0.500,-0.420
4824,-0.455,-0.415
4825,-0.375,-0.390
4826,-0.255,-0.375
4827,-0.055,-0.345
4828,0.210,-0.285
4829,0.545,-0.235
4830,0.910,-0.205
4831,1.240,-0.220
4832,1.455,-0.280
4833,1.525,-0.375
4834,1.430,-0.515
4835,1.140,-0.670
4836,0.635,-0.835
4837,-0.005,-0.980
4838,-0.645,-1.090
4839,-1.270,-1.145
4840,-1.520,-1.100
4841,-1.485,-1.005
4842,-1.285,-0.895
4843,-1.045,-0.805
4844,-0.875,-0.710
4845,-0.790,-0.640
4846,-0.770,-0.590
4847,-0.805,-0.540
4848,-0.815,-0.520
4849,-0.825,-0.480
4850,-0.805,-0.455
4851,-0.755,-0.435
4852,-0.740,-0.420
4853,-0.705,-0.405
4854,-0.700,-0.390
4855,-0.710,-0.400
4856,-0.725,-0.390
4857,-0.735,-0.385
4858,-0.745,-0.385
4859,-0.765,-0.375
4860,-0.770,-0.380
4861,-0.755,-0.390
4862,-0.755,-0.380
4863,-0.755,-0.385
4864,-0.750,-0.375
4865,-0.750,-0.355
4866,-0.725,-0.340
4867,-0.715,-0.345
4868,-0.705,-0.360
4869,-0.705,-0.360
4870,-0.700,-0.375
4871,-0.700,-0.375
4872,-0.710,-0.370
4873,-0.705,-0.360
4874,-0.695,-0.345
4875,-0.690,-0.340
4876,-0.690,-0.330
4877,-0.675,-0.335
4878,-0.670,-0.335
4879,-0.670,-0.345
4880,-0.665,-0.355
4881,-0.660,-0.355
4882,-0.660,-0.360
4883,-0.670,-0.360
4884,-0.660,-0.350
4885,-0.655,-0.350
4886,-0.645,-0.345
4887,-0.635,-0.355
4888,-0.625,-0.340
4889,-0.620,-0.345
4890,-0.600,-0.340
4891,-0.605,-0.330
4892,-0.590,-0.335
4893,-0.595,-0.325
4894,-0.590,-0.340
4895,-0.595,-0.355
4896,-0.590,-0.365
4897,-0.580,-0.355
4898,-0.575,-0.350
4899,-0.570,-0.345
4900,-0.560,-0.335
4901,-0.555,-0.325
4902,-0.540,-0.320
4903,-0.530,-0.315
4904,-0.525,-0.335
4905,-0.525,-0.335
4906,-0.520,-0.345
4907,-0.530,-0.345
4908,-0.535,-0.340
4909,-0.535,-0.320
4910,-0.540,-0.325
4911,-0.520,-0.320
4912,-0.510,-0.310
4913,-0.500,-0.325
4914,-0.485,-0.325
4915,-0.490,-0.330
4916,-0.470,-0.330
4917,-0.480,-0.325
4918,-0.495,-0.320
4919,-0.490,-0.330
4920,-0.500,-0.325
4921,-0.495,-0.325
4922,-0.495,-0.325
4923,-0.485,-0.310
4924,-0.490,-0.305
4925,-0.490,-0.295
4926,-0.485,-0.295
4927,-0.480,-0.305
4928,-0.470,-0.310
4929,-0.465,-0.330
4930,-0.455,-0.345
4931,-0.450,-0.335
4932,-0.445,-0.345
4933,-0.435,-0.350
4934,-0.420,-0.335
4935,-0.405,-0.325
4936,-0.370,-0.330
4937,-0.360,-0.335
4938,-0.335,-0.345
4939,-0.345,-0.365
4940,-0.345,-0.365
4941,-0.355,-0.385
4942,-0.365,-0.395
4943,-0.380,-0.390
4944,-0.395,-0.400
4945,-0.415,-0.410
4946,-0.430,-0.410
4947,-0.435,-0.395
4948,-0.450,-0.395
4949,-0.460,-0.390
4950,-0.470,-0.375
4951,-0.475,-0.385
4952,-0.500,-0.395
4953,-0.515,-0.410
4954,-0.530,-0.420
4955,-0.555,-0.430
4956,-0.580,-0.435
4957,-0.600,-0.420
4958,-0.590,-0.400
4959,-0.575,-0.400
4960,-0.580,-0.395
4961,-0.575,-0.390
4962,-0.560,-0.390
4963,-0.570,-0.395
4964,-0.570,-0.405
4965,-0.580,-0.400
4966,-0.600,-0.410
4967,-0.610,-0.415
4968,-0.615,-0.405
4969,-0.620,-0.410
4970,-0.630,-0.400
4971,-0.605,-0.410
4972,-0.610,-0.395
4973,-0.585,-0.395
4974,-0.580,-0.375
4975,-0.570,-0.390
4976,-0.565,-0.390
4977,-0.570,-0.400
4978,-0.575,-0.410
4979,-0.580,-0.415
4980,-0.580,-0.420
4981,-0.570,-0.415
4982,-0.575,-0.405
4983,-0.565,-0.385
4984,-0.555,-0.375
4985,-0.540,-0.370
4986,-0.520,-0.385
4987,-0.510,-0.400
4988,-0.515,-0.390
4989,-0.510,-0.405
4990,-0.515,-0.410
4991,-0.515,-0.405
4992,-0.520,-0.400
4993,-0.530,-0.400
4994,-0.515,-0.395
4995,-0.510,-0.390
4996,-0.510,-0.390
4997,-0.490,-0.385
4998,-0.480,-0.380
4999,-0.485,-0.385
5000,-0.490,-0.385
5001,-0.495,-0.400
5002,-0.495,-0.415
5003,-0.505,-0.415
5004,-0.505,-0.420
5005,-0.510,-0.410
5006,-0.510,-0.395
5007,-0.500,-0.390
5008,-0.495,-0.380
5009,-0.500,-0.385
5010,-0.495,-0.380
5011,-0.490,-0.400
5012,-0.505,-0.400
5013,-0.515,-0.400
5014,-0.520,-0.400
5015,-0.530,-0.405
5016,-0.545,-0.405
5017,-0.560,-0.390
5018,-0.550,-0.400
5019,-0.560,-0.400
5020,-0.560,-0.395
5021,-0.560,-0.390
5022,-0.550,-0.380
5023,-0.560,-0.385
5024,-0.565,-0.390
5025,-0.575,-0.385
5026,-0.585,-0.400
5027,-0.595,-0.425
5028,-0.605,-0.415
5029,-0.615,-0.400
5030,-0.605,-0.395
5031,-0.605,-0.385
5032,-0.600,-0.385
5033,-0.600,-0.375
5034,-0.585,-0.385
5035,-0.585,-0.400
5036,-0.590,-0.395
5037,-0.590,-0.400
5038,-0.595,-0.405
5039,-0.605,-0.395
5040,-0.620,-0.400
5041,-0.625,-0.395
5042,-0.620,-0.395
5043,-0.620,-0.395
5044,-0.610,-0.400
5045,-0.615,-0.390
5046,-0.600,-0.380
5047,-0.605,-0.380
5048,-0.605,-0.390
5049,-0.605,-0.385
5050,-0.610,-0.395
5051,-0.620,-0.405
5052,-0.625,-0.415
5053,-0.630,-0.405
5054,-0.635,-0.395
5055,-0.635,-0.380
5056,-0.630,-0.375
5057,-0.620,-0.360
5058,-0.620,-0.360
5059,-0.605,-0.380
5060,-0.605,-0.380
5061,-0.610,-0.405
5062,-0.620,-0.405
5063,-0.630,-0.410
5064,-0.640,-0.405
5065,-0.650,-0.395
5066,-0.635,-0.395
5067,-0.640,-0.390
5068,-0.635,-0.380
5069,-0.635,-0.385
5070,-0.625,-0.385
5071,-0.615,-0.380
5072,-0.615,-0.385
5073,-0.610,-0.380
5074,-0.610,-0.400
5075,-0.595,-0.410
5076,-0.590,-0.415
5077,-0.590,-0.400
5078,-0.585,-0.395
5079,-0.580,-0.385
5080,-0.560,-0.375
5081,-0.535,-0.365
5082,-0.515,-0.350
5083,-0.510,-0.355
5084,-0.475,-0.360
5085,-0.470,-0.360
5086,-0.465,-0.350
5087,-0.470,-0.345
5088,-0.465,-0.345
5089,-0.470,-0.345
5090,-0.475,-0.355
5091,-0.475,-0.380
5092,-0.490,-0.395
5093,-0.500,-0.405
5094,-0.515,-0.410
5095,-0.515,-0.410
5096,-0.500,-0.400
5097,-0.495,-0.405
5098,-0.520,-0.405
5099,-0.545,-0.400
5100,-0.560,-0.410
5101,-0.555,-0.400
5102,-0.555,-0.410
5103,-0.580,-0.395
5104,-0.600,-0.375
5105,-0.600,-0.370
5106,-0.605,-0.370
5107,-0.610,-0.370
5108,-0.605,-0.380
5109,-0.605,-0.405
5110,-0.610,-0.410
5111,-0.615,-0.420
5112,-0.615,-0.420
5113,-0.615,-0.410
5114,-0.615,-0.395
5115,-0.595,-0.390
5116,-0.575,-0.380
5117,-0.555,-0.375
5118,-0.510,-0.365
5119,-0.460,-0.375
5120,-0.420,-0.375
5121,-0.340,-0.360
5122,-0.215,-0.345
5123,-0.020,-0.300
5124,0.230,-0.265
5125,0.570,-0.225
5126,0.940,-0.200
5127,1.280,-0.215
5128,1.510,-0.285
5129,1.590,-0.375
5130,1.495,-0.495
5131,1.135,-0.655
5132,0.515,-0.835
5133,-0.125,-0.995
5134,-0.765,-1.075
5135,-1.405,-1.100
5136,-1.585,-1.025
5137,-1.445,-0.905
5138,-1.175,-0.780
5139,-0.950,-0.660
5140,-0.790,-0.565
5141,-0.715,-0.485
5142,-0.695,-0.455
5143,-0.710,-0.445
5144,-0.710,-0.445
5145,-0.725,-0.435
5146,-0.725,-0.420
5147,-0.725,-0.415
5148,-0.740,-0.405
5149,-0.745,-0.400
5150,-0.755,-0.380
5151,-0.765,-0.365
5152,-0.755,-0.365
5153,-0.740,-0.360
5154,-0.730,-0.350
5155,-0.715,-0.350
5156,-0.720,-0.345
5157,-0.715,-0.350
5158,-0.725,-0.355
5159,-0.715,-0.365
5160,-0.715,-0.375
5161,-0.715,-0.370
5162,-0.715,-0.350
5163,-0.710,-0.350
5164,-0.700,-0.335
5165,-0.710,-0.315
5166,-0.690,-0.320
5167,-0.680,-0.320
5168,-0.675,-0.325
5169,-0.675,-0.345
5170,-0.685,-0.350
5171,-0.670,-0.360
5172,-0.690,-0.355
5173,-0.700,-0.340
5174,-0.685,-0.340
5175,-0.670,-0.335
5176,-0.650,-0.310
5177,-0.635,-0.310
5178,-0.625,-0.315
5179,-0.615,-0.325
5180,-0.615,-0.315
5181,-0.615,-0.320
5182,-0.615,-0.325
5183,-0.615,-0.330
5184,-0.620,-0.345
5185,-0.610,-0.330
5186,-0.600,-0.340
5187,-0.590,-0.320
5188,-0.580,-0.330
5189,-0.575,-0.320
5190,-0.565,-0.295
5191,-0.565,-0.305
5192,-0.555,-0.295
5193,-0.545,-0.300
5194,-0.550,-0.325
5195,-0.545,-0.325
5196,-0.545,-0.345
5197,-0.560,-0.335
5198,-0.535,-0.330
5199,-0.540,-0.310
5200,-0.525,-0.305
5201,-0.515,-0.290
5202,-0.510,-0.290
5203,-0.490,-0.295
5204,-0.485,-0.300
5205,-0.470,-0.310
5206,-0.485,-0.325
5207,-0.485,-0.315
5208,-0.485,-0.325
5209,-0.495,-0.310
5210,-0.480,-0.310
5211,-0.490,-0.305
5212,-0.475,-0.290
5213,-0.475,-0.290
5214,-0.465,-0.280
5215,-0.460,-0.275
5216,-0.435,-0.280
5217,-0.445,-0.295
5218,-0.450,-0.300
5219,-0.455,-0.315
5220,-0.445,-0.315
5221,-0.445,-0.320
5222,-0.450,-0.315
5223,-0.435,-0.305
5224,-0.425,-0.290
5225,-0.410,-0.295
5226,-0.385,-0.285
5227,-0.380,-0.310
5228,-0.365,-0.305
5229,-0.350,-0.325
5230,-0.330,-0.345
5231,-0.330,-0.360
5232,-0.330,-0.355
5233,-0.330,-0.355
5234,-0.330,-0.355
5235,-0.335,-0.355
5236,-0.330,-0.370
5237,-0.345,-0.360
5238,-0.345,-0.365
5239,-0.355,-0.360
5240,-0.375,-0.370
5241,-0.400,-0.370
5242,-0.410,-0.370
5243,-0.440,-0.380
5244,-0.455,-0.405
5245,-0.475,-0.405
5246,-0.480,-0.415
5247,-0.480,-0.405
5248,-0.490,-0.390
5249,-0.510,-0.375
5250,-0.505,-0.360
5251,-0.515,-0.370
5252,-0.525,-0.370
5253,-0.535,-0.385
5254,-0.545,-0.385
5255,-0.565,-0.400
5256,-0.565,-0.410
5257,-0.575,-0.405
5258,-0.580,-0.395
5259,-0.575,-0.385
5260,-0.575,-0.375
5261,-0.565,-0.365
5262,-0.560,-0.360
5263,-0.550,-0.375
5264,-0.555,-0.375
5265,-0.565,-0.380
5266,-0.580,-0.395
5267,-0.570,-0.395
5268,-0.570,-0.390
5269,-0.585,-0.375
5270,-0.575,-0.380
5271,-0.565,-0.375
5272,-0.560,-0.375
5273,-0.550,-0.380
5274,-0.550,-0.370
5275,-0.530,-0.375
5276,-0.535,-0.380
5277,-0.535,-0.370
5278,-0.550,-0.375
5279,-0.545,-0.385
5280,-0.545,-0.390
5281,-0.540,-0.385
5282,-0.535,-0.395
5283,-0.525,-0.390
5284,-0.510,-0.375
5285,-0.495,-0.360
5286,-0.490,-0.365
5287,-0.490,-0.370
5288,-0.500,-0.375
5289,-0.495,-0.380
5290,-0.495,-0.390
5291,-0.490,-0.400
5292,-0.505,-0.405
5293,-0.495,-0.380
5294,-0.495,-0.380
5295,-0.495,-0.375
5296,-0.495,-0.370
5297,-0.475,-0.370
5298,-0.480,-0.375
5299,-0.470,-0.370
5300,-0.470,-0.390
5301,-0.475,-0.395
5302,-0.485,-0.385
5303,-0.500,-0.390
5304,-0.495,-0.390
5305,-0.505,-0.380
5306,-0.505,-0.385
5307,-0.500,-0.385
5308,-0.495,-0.380
5309,-0.505,-0.380
5310,-0.495,-0.370
5311,-0.510,-0.375
5312,-0.510,-0.385
5313,-0.515,-0.375
5314,-0.520,-0.385
5315,-0.525,-0.405
5316,-0.525,-0.400
5317,-0.550,-0.395
5318,-0.550,-0.395
5319,-0.540,-0.380
5320,-0.550,-0.370
5321,-0.545,-0.360
5322,-0.540,-0.360
5323,-0.540,-0.370
5324,-0.540,-0.385
5325,-0.540,-0.400
5326,-0.565,-0.410
5327,-0.565,-0.395
5328,-0.570,-0.405
5329,-0.595,-0.385
5330,-0.590,-0.400
5331,-0.595,-0.360
5332,-0.580,-0.365
5333,-0.570,-0.365
5334,-0.555,-0.385
5335,-0.555,-0.380
5336,-0.560,-0.385
5337,-0.570,-0.385
5338,-0.565,-0.380
5339,-0.575,-0.390
5340,-0.585,-0.400
5341,-0.590,-0.395
5342,-0.590,-0.400
5343,-0.590,-0.380
5344,-0.585,-0.380
5345,-0.575,-0.370
5346,-0.575,-0.350
5347,-0.575,-0.360
5348,-0.585,-0.365
5349,-0.580,-0.380
5350,-0.585,-0.390
5351,-0.600,-0.390
5352,-0.605,-0.410
5353,-0.600,-0.395
5354,-0.600,-0.400
5355,-0.605,-0.380
5356,-0.595,-0.380
5357,-0.590,-0.355
5358,-0.590,-0.355
5359,-0.585,-0.360
5360,-0.590,-0.370
5361,-0.590,-0.380
5362,-0.595,-0.400
5363,-0.605,-0.395
5364,-0.605,-0.395
5365,-0.620,-0.385
5366,-0.605,-0.395
5367,-0.610,-0.380
5368,-0.595,-0.365
5369,-0.590,-0.375
5370,-0.590,-0.360
5371,-0.580,-0.360
5372,-0.590,-0.355
5373,-0.585,-0.350
5374,-0.600,-0.380
5375,-0.605,-0.390
5376,-0.605,-0.395
5377,-0.615,-0.385
5378,-0.600,-0.385
5379,-0.610,-0.385
5380,-0.595,-0.360
5381,-0.590,-0.355
5382,-0.570,-0.345
5383,-0.565,-0.335
5384,-0.555,-0.360
5385,-0.545,-0.365
5386,-0.545,-0.390
5387,-0.540,-0.390
5388,-0.535,-0.395
5389,-0.540,-0.375
5390,-0.530,-0.360
5391,-0.500,-0.325
5392,-0.490,-0.315
5393,-0.470,-0.305
5394,-0.445,-0.295
5395,-0.425,-0.305
5396,-0.430,-0.330
5397,-0.435,-0.360
5398,-0.455,-0.375
5399,-0.465,-0.400
5400,-0.495,-0.430
5401,-0.510,-0.435
5402,-0.505,-0.425
5403,-0.495,-0.425
5404,-0.490,-0.415
5405,-0.490,-0.390
5406,-0.500,-0.375
5407,-0.500,-0.370
5408,-0.525,-0.365
5409,-0.535,-0.365
5410,-0.560,-0.370
5411,-0.570,-0.385
5412,-0.585,-0.385
5413,-0.605,-0.390
5414,-0.610,-0.400
5415,-0.615,-0.385
5416,-0.600,-0.380
5417,-0.590,-0.360
5418,-0.590,-0.350
5419,-0.570,-0.360
5420,-0.575,-0.365
5421,-0.565,-0.385
5422,-0.570,-0.400
5423,-0.555,-0.405
5424,-0.555,-0.400
5425,-0.535,-0.390
5426,-0.510,-0.375
5427,-0.475,-0.370
5428,-0.385,-0.335
5429,-0.260,-0.295
5430,-0.055,-0.245
5431,0.250,-0.215
5432,0.615,-0.170
5433,1.025,-0.160
5434,1.350,-0.215
5435,1.550,-0.320
5436,1.570,-0.470
5437,1.380,-0.645
5438,0.930,-0.855
5439,0.290,-1.045
5440,-0.350,-1.180
5441,-0.990,-1.230
5442,-1.410,-1.200
5443,-1.440,-1.110
5444,-1.260,-0.975
5445,-0.995,-0.875
5446,-0.795,-0.780
5447,-0.685,-0.700
5448,-0.675,-0.635
5449,-0.710,-0.580
5450,-0.755,-0.530
5451,-0.770,-0.495
5452,-0.770,-0.460
5453,-0.735,-0.415
5454,-0.700,-0.390
5455,-0.655,-0.380
5456,-0.660,-0.370
5457,-0.675,-0.380
5458,-0.695,-0.380
5459,-0.720,-0.380
5460,-0.735,-0.375
5461,-0.735,-0.350
5462,-0.745,-0.350
5463,-0.735,-0.335
5464,-0.730,-0.330
5465,-0.720,-0.335
5466,-0.695,-0.325
5467,-0.695,-0.330
5468,-0.705,-0.330
5469,-0.690,-0.335
5470,-0.715,-0.330
5471,-0.705,-0.330
5472,-0.710,-0.330
5473,-0.705,-0.315
5474,-0.705,-0.320
5475,-0.695,-0.320
5476,-0.680,-0.315
5477,-0.665,-0.310
5478,-0.660,-0.310
5479,-0.655,-0.310
5480,-0.650,-0.295
5481,-0.655,-0.305
5482,-0.655,-0.315
5483,-0.645,-0.320
5484,-0.655,-0.330
5485,-0.660,-0.325
5486,-0.650,-0.325
5487,-0.630,-0.305
5488,-0.635,-0.285
5489,-0.630,-0.280
5490,-0.615,-0.275
5491,-0.595,-0.285
5492,-0.580,-0.290
5493,-0.575,-0.315
5494,-0.570,-0.315
5495,-0.575,-0.315
5496,-0.575,-0.315
5497,-0.575,-0.305
5498,-0.575,-0.300
5499,-0.560,-0.285
5500,-0.555,-0.285
5501,-0.550,-0.285
5502,-0.535,-0.280
5503,-0.540,-0.290
5504,-0.535,-0.285
5505,-0.535,-0.300
5506,-0.535,-0.285
5507,-0.515,-0.290
5508,-0.515,-0.295
5509,-0.510,-0.305
5510,-0.500,-0.295
5511,-0.490,-0.285
5512,-0.490,-0.275
5513,-0.475,-0.270
5514,-0.465,-0.255
5515,-0.450,-0.250
5516,-0.450,-0.265
5517,-0.445,-0.285
5518,-0.450,-0.290
5519,-0.450,-0.300
5520,-0.450,-0.305
5521,-0.455,-0.295
5522,-0.460,-0.285
5523,-0.445,-0.270
5524,-0.440,-0.255
5525,-0.435,-0.260
5526,-0.420,-0.255
5527,-0.405,-0.265
5528,-0.410,-0.270
5529,-0.405,-0.295
5530,-0.405,-0.295
5531,-0.405,-0.295
5532,-0.415,-0.290
5533,-0.410,-0.290
5534,-0.385,-0.290
5535,-0.365,-0.290
5536,-0.350,-0.285
5537,-0.350,-0.285
5538,-0.330,-0.275
5539,-0.320,-0.285
5540,-0.300,-0.295
5541,-0.285,-0.310
5542,-0.275,-0.320
5543,-0.270,-0.335
5544,-0.285,-0.350
5545,-0.290,-0.350
5546,-0.285,-0.350
5547,-0.290,-0.355
5548,-0.285,-0.340
5549,-0.300,-0.340
5550,-0.305,-0.335
5551,-0.320,-0.345
5552,-0.335,-0.350
5553,-0.340,-0.385
5554,-0.365,-0.380
5555,-0.395,-0.400
5556,-0.435,-0.395
5557,-0.465,-0.395
5558,-0.470,-0.385
5559,-0.475,-0.385
5560,-0.480,-0.370
5561,-0.480,-0.365
5562,-0.490,-0.355
5563,-0.500,-0.370
5564,-0.510,-0.360
5565,-0.510,-0.375
5566,-0.525,-0.380
5567,-0.540,-0.385
5568,-0.555,-0.390
5569,-0.555,-0.395
5570,-0.570,-0.405
5571,-0.565,-0.380
5572,-0.555,-0.375
5573,-0.550,-0.370
5574,-0.545,-0.350
5575,-0.555,-0.350
5576,-0.545,-0.360
5577,-0.545,-0.380
5578,-0.555,-0.380
5579,-0.550,-0.380
5580,-0.550,-0.405
5581,-0.555,-0.400
5582,-0.555,-0.390
5583,-0.560,-0.370
5584,-0.545,-0.360
5585,-0.530,-0.350
5586,-0.510,-0.350
5587,-0.515,-0.365
5588,-0.515,-0.375
5589,-0.515,-0.365
5590,-0.510,-0.370
5591,-0.515,-0.365
5592,-0.520,-0.380
5593,-0.515,-0.385
5594,-0.500,-0.380
5595,-0.500,-0.375
5596,-0.495,-0.370
5597,-0.490,-0.355
5598,-0.490,-0.345
5599,-0.485,-0.350
5600,-0.490,-0.350
5601,-0.490,-0.355
5602,-0.480,-0.365
5603,-0.480,-0.385
5604,-0.475,-0.390
5605,-0.490,-0.390
5606,-0.485,-0.380
5607,-0.495,-0.370
5608,-0.485,-0.360
5609,-0.470,-0.345
5610,-0.475,-0.345
5611,-0.465,-0.355
5612,-0.465,-0.360
5613,-0.480,-0.365
5614,-0.475,-0.380
5615,-0.495,-0.385
5616,-0.500,-0.375
5617,-0.500,-0.370
5618,-0.490,-0.365
5619,-0.500,-0.375
5620,-0.485,-0.375
5621,-0.495,-0.365
5622,-0.485,-0.355
5623,-0.485,-0.355
5624,-0.515,-0.355
5625,-0.520,-0.370
5626,-0.525,-0.370
5627,-0.535,-0.370
5628,-0.540,-0.380
5629,-0.555,-0.385
5630,-0.550,-0.390
5631,-0.545,-0.380
5632,-0.545,-0.380
5633,-0.540,-0.370
5634,-0.530,-0.350
5635,-0.535,-0.360
5636,-0.545,-0.360
5637,-0.540,-0.380
5638,-0.545,-0.385
5639,-0.550,-0.400
5640,-0.565,-0.390
5641,-0.570,-0.385
5642,-0.580,-0.375
5643,-0.585,-0.370
5644,-0.575,-0.375
5645,-0.575,-0.360
5646,-0.575,-0.365
5647,-0.580,-0.365
5648,-0.580,-0.375
5649,-0.565,-0.370
5650,-0.570,-0.370
5651,-0.590,-0.380
5652,-0.605,-0.385
5653,-0.590,-0.390
5654,-0.585,-0.395
5655,-0.585,-0.385
5656,-0.570,-0.380
5657,-0.575,-0.370
5658,-0.570,-0.345
5659,-0.560,-0.370
5660,-0.570,-0.365
5661,-0.585,-0.375
5662,-0.585,-0.390
5663,-0.590,-0.390
5664,-0.590,-0.400
5665,-0.600,-0.400
5666,-0.590,-0.395
5667,-0.595,-0.375
5668,-0.595,-0.375
5669,-0.585,-0.370
5670,-0.580,-0.360
5671,-0.580,-0.360
5672,-0.585,-0.370
5673,-0.580,-0.395
5674,-0.590,-0.390
5675,-0.590,-0.395
5676,-0.595,-0.380
5677,-0.605,-0.385
5678,-0.615,-0.395
5679,-0.615,-0.380
5680,-0.600,-0.380
5681,-0.595,-0.375
5682,-0.590,-0.375
5683,-0.570,-0.375
5684,-0.575,-0.360
5685,-0.585,-0.370
5686,-0.585,-0.355
5687,-0.585,-0.385
5688,-0.585,-0.390
5689,-0.585,-0.385
5690,-0.575,-0.390
5691,-0.570,-0.375
5692,-0.560,-0.385
5693,-0.555,-0.370
5694,-0.530,-0.345
5695,-0.520,-0.350
5696,-0.515,-0.370
5697,-0.510,-0.365
5698,-0.500,-0.345
5699,-0.490,-0.345
5700,-0.480,-0.330
5701,-0.480,-0.320
5702,-0.460,-0.315
5703,-0.455,-0.315
5704,-0.440,-0.320
5705,-0.435,-0.355
5706,-0.425,-0.370
5707,-0.435,-0.415
5708,-0.455,-0.430
5709,-0.480,-0.435
5710,-0.500,-0.425
5711,-0.505,-0.430
5712,-0.505,-0.425
5713,-0.510,-0.415
5714,-0.510,-0.405
5715,-0.520,-0.400
5716,-0.515,-0.400
5717,-0.530,-0.385
5718,-0.550,-0.360
5719,-0.570,-0.365
5720,-0.580,-0.365
5721,-0.595,-0.385
5722,-0.605,-0.395
5723,-0.595,-0.410
5724,-0.600,-0.410
5725,-0.610,-0.415
5726,-0.600,-0.405
5727,-0.595,-0.395
5728,-0.595,-0.380
5729,-0.575,-0.375
5730,-0.555,-0.365
5731,-0.535,-0.385
5732,-0.520,-0.385
5733,-0.485,-0.390
5734,-0.435,-0.385
5735,-0.335,-0.355
5736,-0.200,-0.325
5737,0.025,-0.265
5738,0.335,-0.210
5739,0.710,-0.175
5740,1.085,-0.185
5741,1.375,-0.225
5742,1.515,-0.340
5743,1.470,-0.500
5744,1.215,-0.695
5745,0.725,-0.895
5746,0.085,-1.075
5747,-0.555,-1.210
5748,-1.155,-1.250
5749,-1.375,-1.185
5750,-1.335,-1.065
5751,-1.130,-0.915
5752,-0.900,-0.785
5753,-0.740,-0.670
5754,-0.670,-0.580
5755,-0.660,-0.535
5756,-0.700,-0.515
5757,-0.710,-0.495
5758,-0.720,-0.485
5759,-0.720,-0.455
5760,-0.715,-0.435
5761,-0.705,-0.405
5762,-0.695,-0.380
5763,-0.680,-0.375
5764,-0.685,-0.355
5765,-0.690,-0.355
5766,-0.705,-0.340
5767,-0.695,-0.340
5768,-0.700,-0.355
5769,-0.710,-0.345
5770,-0.715,-0.360
5771,-0.715,-0.340
5772,-0.715,-0.345
5773,-0.715,-0.335
5774,-0.710,-0.335
5775,-0.700,-0.330
5776,-0.685,-0.330
5777,-0.670,-0.320
5778,-0.690,-0.310
5779,-0.670,-0.305
5780,-0.670,-0.315
5781,-0.655,-0.315
5782,-0.670,-0.330
5783,-0.670,-0.345
5784,-0.660,-0.340
5785,-0.655,-0.345
5786,-0.655,-0.325
5787,-0.630,-0.315
5788,-0.635,-0.305
5789,-0.610,-0.300
5790,-0.610,-0.290
5791,-0.590,-0.305
5792,-0.605,-0.310
5793,-0.605,-0.325
5794,-0.610,-0.320
5795,-0.615,-0.335
5796,-0.610,-0.320
5797,-0.595,-0.315
5798,-0.575,-0.310
5799,-0.575,-0.310
5800,-0.550,-0.300
5801,-0.560,-0.300
5802,-0.550,-0.290
5803,-0.545,-0.300
5804,-0.545,-0.295
5805,-0.545,-0.295
5806,-0.540,-0.300
5807,-0.525,-0.320
5808,-0.530,-0.320
5809,-0.530,-0.325
5810,-0.525,-0.315
5811,-0.515,-0.300
5812,-0.515,-0.280
5813,-0.485,-0.280
5814,-0.480,-0.265
5815,-0.475,-0.280
5816,-0.465,-0.285
5817,-0.460,-0.295
5818,-0.470,-0.305
5819,-0.475,-0.320
5820,-0.470,-0.320
5821,-0.475,-0.310
5822,-0.470,-0.285
5823,-0.455,-0.275
5824,-0.445,-0.285
5825,-0.430,-0.275
5826,-0.435,-0.275
5827,-0.425,-0.280
5828,-0.425,-0.295
5829,-0.415,-0.290
5830,-0.430,-0.295
5831,-0.435,-0.305
5832,-0.445,-0.305
5833,-0.435,-0.300
5834,-0.420,-0.310
5835,-0.420,-0.300
5836,-0.410,-0.300
5837,-0.405,-0.275
5838,-0.385,-0.280
5839,-0.375,-0.270
5840,-0.370,-0.285
5841,-0.350,-0.300
5842,-0.350,-0.315
5843,-0.340,-0.340
5844,-0.325,-0.360
5845,-0.320,-0.350
5846,-0.310,-0.330
5847,-0.295,-0.340
5848,-0.285,-0.335
5849,-0.290,-0.325
5850,-0.275,-0.330
5851,-0.280,-0.345
5852,-0.295,-0.365
5853,-0.320,-0.370
5854,-0.330,-0.380
5855,-0.360,-0.375
5856,-0.380,-0.385
5857,-0.400,-0.390
5858,-0.400,-0.385
5859,-0.420,-0.385
5860,-0.425,-0.385
5861,-0.430,-0.375
5862,-0.430,-0.370
5863,-0.455,-0.375
5864,-0.480,-0.370
5865,-0.485,-0.370
5866,-0.485,-0.385
5867,-0.500,-0.390
5868,-0.520,-0.400
5869,-0.540,-0.400
5870,-0.535,-0.400
5871,-0.525,-0.395
5872,-0.535,-0.385
5873,-0.525,-0.365
5874,-0.525,-0.360
5875,-0.515,-0.360
5876,-0.525,-0.375
5877,-0.525,-0.380
5878,-0.530,-0.400
5879,-0.550,-0.400
5880,-0.555,-0.390
5881,-0.565,-0.395
5882,-0.550,-0.390
5883,-0.540,-0.385
5884,-0.520,-0.380
5885,-0.520,-0.380
5886,-0.505,-0.370
5887,-0.500,-0.370
5888,-0.500,-0.370
5889,-0.505,-0.370
5890,-0.510,-0.390
5891,-0.515,-0.395
5892,-0.500,-0.400
5893,-0.500,-0.400
5894,-0.500,-0.405
5895,-0.490,-0.390
5896,-0.485,-0.390
5897,-0.465,-0.365
5898,-0.460,-0.350
5899,-0.450,-0.370
5900,-0.440,-0.370
5901,-0.440,-0.385
5902,-0.450,-0.390
5903,-0.460,-0.400
5904,-0.470,-0.395
5905,-0.470,-0.400
5906,-0.480,-0.390
5907,-0.470,-0.390
5908,-0.455,-0.390
5909,-0.450,-0.385
5910,-0.450,-0.370
5911,-0.435,-0.365
5912,-0.440,-0.380
5913,-0.440,-0.375
5914,-0.445,-0.395
5915,-0.465,-0.400
5916,-0.475,-0.400
5917,-0.475,-0.410
5918,-0.480,-0.405
5919,-0.490,-0.400
5920,-0.480,-0.395
5921,-0.475,-0.385
5922,-0.470,-0.365
5923,-0.465,-0.375
5924,-0.465,-0.385
5925,-0.460,-0.385
5926,-0.475,-0.400
5927,-0.485,-0.400
5928,-0.500,-0.410
5929,-0.510,-0.405
5930,-0.515,-0.400
5931,-0.510,-0.395
5932,-0.505,-0.380
5933,-0.505,-0.390
5934,-0.510,-0.380
5935,-0.505,-0.380
5936,-0.520,-0.380
5937,-0.510,-0.390
5938,-0.510,-0.390
5939,-0.530,-0.390
5940,-0.540,-0.410
5941,-0.540,-0.400
5942,-0.540,-0.410
5943,-0.555,-0.400
5944,-0.550,-0.385
5945,-0.545,-0.385
5946,-0.545,-0.365
5947,-0.525,-0.380
5948,-0.525,-0.385
5949,-0.535,-0.395
5950,-0.545,-0.400
5951,-0.555,-0.415
5952,-0.570,-0.410
5953,-0.570,-0.415
5954,-0.575,-0.400
5955,-0.575,-0.395
5956,-0.560,-0.390
5957,-0.555,-0.380
5958,-0.555,-0.385
5959,-0.555,-0.385
5960,-0.550,-0.390
5961,-0.560,-0.390
5962,-0.570,-0.405
5963,-0.570,-0.395
5964,-0.565,-0.405
5965,-0.575,-0.400
5966,-0.585,-0.405
5967,-0.580,-0.395
5968,-0.580,-0.375
5969,-0.575,-0.375
5970,-0.570,-0.365
5971,-0.555,-0.365
5972,-0.560,-0.390
5973,-0.550,-0.400
5974,-0.575,-0.395
5975,-0.580,-0.410
5976,-0.575,-0.400
5977,-0.580,-0.400
5978,-0.605,-0.400
5979,-0.590,-0.395
5980,-0.580,-0.390
5981,-0.575,-0.380
5982,-0.565,-0.375
5983,-0.560,-0.380
5984,-0.550,-0.370
5985,-0.560,-0.385
5986,-0.555,-0.400
5987,-0.550,-0.405
5988,-0.550,-0.410
5989,-0.540,-0.395
5990,-0.540,-0.400
5991,-0.520,-0.375
5992,-0.520,-0.355
5993,-0.505,-0.345
5994,-0.485,-0.330
5995,-0.470,-0.335
5996,-0.460,-0.335
5997,-0.450,-0.345
5998,-0.440,-0.360
5999,-0.435,-0.370
6000,-0.440,-0.370
6001,-0.440,-0.385
6002,-0.450,-0.400
6003,-0.465,-0.400
6004,-0.465,-0.410
6005,-0.475,-0.420
6006,-0.475,-0.420
6007,-0.465,-0.415
6008,-0.480,-0.425
6009,-0.495,-0.415
6010,-0.505,-0.415
6011,-0.530,-0.420
6012,-0.565,-0.425
6013,-0.550,-0.415
6014,-0.575,-0.415
6015,-0.565,-0.405
6016,-0.570,-0.400
6017,-0.570,-0.395
6018,-0.570,-0.385
6019,-0.560,-0.395
6020,-0.550,-0.400
6021,-0.540,-0.410
6022,-0.540,-0.430
6023,-0.545,-0.425
6024,-0.525,-0.430
6025,-0.495,-0.420
6026,-0.450,-0.400
6027,-0.395,-0.395
6028,-0.285,-0.370
6029,-0.150,-0.335
6030,0.045,-0.305
6031,0.295,-0.275
6032,0.595,-0.255
6033,0.905,-0.265
6034,1.175,-0.295
6035,1.330,-0.370
6036,1.345,-0.465
6037,1.215,-0.595
6038,0.895,-0.730
6039,0.405,-0.870
6040,-0.230,-0.985
6041,-0.810,-1.045
6042,-1.225,-1.045
6043,-1.365,-0.995
6044,-1.305,-0.920
6045,-1.110,-0.825
6046,-0.920,-0.755
6047,-0.800,-0.700
6048,-0.735,-0.640
6049,-0.735,-0.595
6050,-0.750,-0.545
6051,-0.765,-0.505
6052,-0.760,-0.465
6053,-0.730,-0.445
6054,-0.705,-0.425
6055,-0.650,-0.410
6056,-0.645,-0.405
6057,-0.655,-0.405
6058,-0.670,-0.415
6059,-0.695,-0.390
6060,-0.715,-0.405
6061,-0.730,-0.405
6062,-0.720,-0.385
6063,-0.715,-0.370
6064,-0.710,-0.375
6065,-0.700,-0.365
6066,-0.695,-0.350
6067,-0.670,-0.360
6068,-0.665,-0.360
6069,-0.680,-0.350
6070,-0.670,-0.355
6071,-0.665,-0.365
6072,-0.675,-0.370
6073,-0.670,-0.370
6074,-0.660,-0.365
6075,-0.650,-0.365
6076,-0.650,-0.345
6077,-0.640,-0.335
6078,-0.635,-0.330
6079,-0.620,-0.320
6080,-0.625,-0.325
6081,-0.620,-0.335
6082,-0.625,-0.350
6083,-0.630,-0.365
6084,-0.630,-0.365
6085,-0.620,-0.355
6086,-0.620,-0.350
6087,-0.610,-0.340
6088,-0.600,-0.330
6089,-0.585,-0.340
6090,-0.580,-0.340
6091,-0.555,-0.335
6092,-0.560,-0.340
6093,-0.560,-0.340
6094,-0.575,-0.330
6095,-0.575,-0.340
6096,-0.575,-0.345
6097,-0.565,-0.355
6098,-0.555,-0.350
6099,-0.545,-0.335
6100,-0.535,-0.330
6101,-0.520,-0.320
6102,-0.505,-0.310
6103,-0.480,-0.315
6104,-0.500,-0.320
6105,-0.475,-0.330
6106,-0.500,-0.340
6107,-0.490,-0.345
6108,-0.495,-0.345
6109,-0.495,-0.350
6110,-0.490,-0.335
6111,-0.495,-0.335
6112,-0.475,-0.335
6113,-0.460,-0.315
6114,-0.445,-0.310
6115,-0.435,-0.315
6116,-0.445,-0.305
6117,-0.445,-0.320
6118,-0.450,-0.305
6119,-0.465,-0.315
6120,-0.455,-0.335
6121,-0.450,-0.335
6122,-0.450,-0.325
6123,-0.450,-0.320
6124,-0.445,-0.335
6125,-0.435,-0.310
6126,-0.425,-0.305
6127,-0.430,-0.310
6128,-0.420,-0.305
6129,-0.420,-0.305
6130,-0.410,-0.320
6131,-0.425,-0.330
6132,-0.425,-0.345
6133,-0.415,-0.340
6134,-0.405,-0.340
6135,-0.405,-0.335
6136,-0.385,-0.330
6137,-0.360,-0.325
6138,-0.335,-0.330
6139,-0.310,-0.340
6140,-0.305,-0.340
6141,-0.305,-0.355
6142,-0.305,-0.360
6143,-0.310,-0.365
6144,-0.320,-0.355
6145,-0.330,-0.350
6146,-0.350,-0.350
6147,-0.340,-0.350
6148,-0.355,-0.355
6149,-0.375,-0.355
6150,-0.360,-0.370
6151,-0.370,-0.370
6152,-0.390,-0.380
6153,-0.405,-0.370
6154,-0.445,-0.385
6155,-0.455,-0.395
6156,-0.470,-0.410
6157,-0.495,-0.415
6158,-0.495,-0.410
6159,-0.505,-0.415
6160,-0.510,-0.395
6161,-0.520,-0.395
6162,-0.525,-0.395
6163,-0.530,-0.385
6164,-0.535,-0.405
6165,-0.550,-0.400
6166,-0.555,-0.405
6167,-0.555,-0.415
6168,-0.575,-0.425
6169,-0.580,-0.420
6170,-0.575,-0.420
6171,-0.575,-0.415
6172,-0.560,-0.405
6173,-0.560,-0.395
6174,-0.540,-0.395
6175,-0.535,-0.405
6176,-0.545,-0.400
6177,-0.540,-0.405
6178,-0.555,-0.405
6179,-0.565,-0.405
6180,-0.550,-0.415
6181,-0.555,-0.415
6182,-0.555,-0.420
6183,-0.550,-0.410
6184,-0.555,-0.405
6185,-0.545,-0.400
6186,-0.535,-0.385
6187,-0.510,-0.385
6188,-0.505,-0.390
6189,-0.500,-0.395
6190,-0.490,-0.405
6191,-0.490,-0.415
6192,-0.490,-0.420
6193,-0.495,-0.405
6194,-0.500,-0.400
6195,-0.495,-0.390
6196,-0.485,-0.390
6197,-0.485,-0.390
6198,-0.475,-0.380
6199,-0.465,-0.395
6200,-0.475,-0.395
6201,-0.470,-0.410
6202,-0.470,-0.410
6203,-0.470,-0.410
6204,-0.475,-0.405
6205,-0.475,-0.415
6206,-0.495,-0.405
6207,-0.500,-0.400
6208,-0.475,-0.405
6209,-0.460,-0.410
6210,-0.465,-0.400
6211,-0.455,-0.400
6212,-0.455,-0.395
6213,-0.470,-0.405
6214,-0.485,-0.415
6215,-0.480,-0.415
6216,-0.495,-0.420
6217,-0.500,-0.420
6218,-0.505,-0.415
6219,-0.500,-0.420
6220,-0.495,-0.400
6221,-0.510,-0.400
6222,-0.495,-0.385
6223,-0.505,-0.385
6224,-0.505,-0.400
6225,-0.515,-0.400
6226,-0.525,-0.415
6227,-0.525,-0.425
6228,-0.535,-0.420
6229,-0.550,-0.425
6230,-0.575,-0.410
6231,-0.570,-0.400
6232,-0.560,-0.405
6233,-0.560,-0.400
6234,-0.540,-0.400
6235,-0.540,-0.405
6236,-0.550,-0.415
6237,-0.555,-0.405
6238,-0.550,-0.410
6239,-0.575,-0.415
6240,-0.580,-0.425
6241,-0.605,-0.410
6242,-0.590,-0.415
6243,-0.590,-0.420
6244,-0.590,-0.415
6245,-0.590,-0.395
6246,-0.590,-0.390
6247,-0.575,-0.395
6248,-0.595,-0.400
6249,-0.590,-0.405
6250,-0.585,-0.420
6251,-0.575,-0.430
6252,-0.595,-0.425
6253,-0.595,-0.415
6254,-0.600,-0.410
6255,-0.615,-0.400
6256,-0.615,-0.395
6257,-0.610,-0.395
6258,-0.590,-0.390
6259,-0.580,-0.405
6260,-0.590,-0.410
6261,-0.585,-0.415
6262,-0.595,-0.415
6263,-0.605,-0.420
6264,-0.615,-0.425
6265,-0.620,-0.405
6266,-0.610,-0.415
6267,-0.600,-0.410
6268,-0.595,-0.405
6269,-0.595,-0.400
6270,-0.590,-0.395
6271,-0.590,-0.390
6272,-0.590,-0.395
6273,-0.595,-0.400
6274,-0.605,-0.420
6275,-0.630,-0.425
6276,-0.620,-0.425
6277,-0.630,-0.425
6278,-0.620,-0.415
6279,-0.620,-0.410
6280,-0.615,-0.395
6281,-0.605,-0.390
6282,-0.585,-0.390
6283,-0.575,-0.400
6284,-0.570,-0.410
6285,-0.575,-0.405
6286,-0.580,-0.415
6287,-0.585,-0.415
6288,-0.600,-0.420
6289,-0.600,-0.415
6290,-0.610,-0.400
6291,-0.595,-0.400
6292,-0.575,-0.390
6293,-0.565,-0.380
6294,-0.550,-0.385
6295,-0.520,-0.380
6296,-0.520,-0.390
6297,-0.510,-0.385
6298,-0.505,-0.385
6299,-0.500,-0.375
6300,-0.485,-0.375
6301,-0.485,-0.380
6302,-0.465,-0.370
6303,-0.460,-0.385
6304,-0.470,-0.380
6305,-0.465,-0.385
6306,-0.470,-0.395
6307,-0.475,-0.405
6308,-0.485,-0.425
6309,-0.500,-0.435
6310,-0.510,-0.445
6311,-0.525,-0.455
6312,-0.520,-0.455
6313,-0.540,-0.445
6314,-0.550,-0.425
6315,-0.565,-0.410
6316,-0.560,-0.405
6317,-0.575,-0.390
6318,-0.570,-0.395
6319,-0.575,-0.395
6320,-0.590,-0.415
6321,-0.590,-0.415
6322,-0.580,-0.430
6323,-0.600,-0.435
6324,-0.595,-0.430
6325,-0.600,-0.430
6326,-0.590,-0.425
6327,-0.570,-0.425
6328,-0.540,-0.410
6329,-0.520,-0.415
6330,-0.490,-0.395
6331,-0.430,-0.380
6332,-0.360,-0.370
6333,-0.270,-0.365
6334,-0.135,-0.350
6335,0.065,-0.340
6336,0.305,-0.300
6337,0.595,-0.285
6338,0.905,-0.270
6339,1.165,-0.295
6340,1.325,-0.335
6341,1.375,-0.440
6342,1.250,-0.555
6343,0.945,-0.700
6344,0.435,-0.855
6345,-0.205,-1.010
6346,-0.815,-1.095
6347,-1.235,-1.110
6348,-1.385,-1.055
6349,-1.325,-0.960
6350,-1.160,-0.855
6351,-0.975,-0.750
6352,-0.830,-0.665
6353,-0.760,-0.600
6354,-0.745,-0.555
6355,-0.750,-0.515
6356,-0.755,-0.495
6357,-0.755,-0.470
6358,-0.725,-0.460
6359,-0.705,-0.455
6360,-0.705,-0.450
6361,-0.700,-0.445
6362,-0.720,-0.425
6363,-0.715,-0.420
6364,-0.725,-0.405
6365,-0.710,-0.385
6366,-0.715,-0.365
6367,-0.710,-0.375
6368,-0.715,-0.375
6369,-0.720,-0.365
6370,-0.725,-0.385
6371,-0.720,-0.390
6372,-0.720,-0.405
6373,-0.720,-0.400
6374,-0.715,-0.385
6375,-0.705,-0.385
6376,-0.680,-0.375
6377,-0.675,-0.350
6378,-0.660,-0.350
6379,-0.650,-0.350
6380,-0.655,-0.370
