'sample interval','MLII','V2'
'0.00277778 sec','mV','mV'
0,-0.925,-0.470
1,-0.925,-0.470
2,-0.925,-0.470
3,-0.925,-0.470
4,-0.925,-0.470
5,-0.925,-0.470
6,-0.925,-0.470
7,-0.920,-0.470
8,-0.920,-0.470
9,-0.940,-0.485
10,-0.940,-0.490
11,-0.955,-0.510
12,-0.970,-0.515
13,-0.970,-0.515
14,-0.980,-0.515
15,-0.980,-0.505
16,-0.965,-0.500
17,-0.950,-0.505
18,-0.940,-0.480
19,-0.910,-0.475
20,-0.925,-0.505
21,-0.930,-0.500
22,-0.945,-0.530
23,-0.950,-0.510
24,-0.960,-0.530
25,-0.960,-0.535
26,-0.965,-0.515
27,-0.970,-0.525
28,-0.965,-0.510
29,-0.970,-0.505
30,-0.985,-0.495
31,-0.950,-0.500
32,-0.950,-0.525
33,-0.950,-0.505
34,-0.930,-0.525
35,-0.925,-0.540
36,-0.940,-0.535
37,-0.950,-0.545
38,-0.970,-0.540
39,-0.955,-0.540
40,-0.960,-0.515
41,-0.960,-0.505
42,-0.945,-0.505
43,-0.930,-0.510
44,-0.925,-0.505
45,-0.940,-0.520
46,-0.940,-0.525
47,-0.940,-0.525
48,-0.955,-0.545
49,-0.950,-0.545
50,-0.980,-0.550
51,-0.960,-0.530
52,-0.965,-0.530
53,-0.945,-0.510
54,-0.950,-0.515
55,-0.945,-0.500
56,-0.945,-0.510
57,-0.955,-0.525
58,-0.960,-0.530
59,-0.955,-0.530
60,-0.970,-0.545
61,-0.980,-0.555
62,-0.970,-0.540
63,-0.975,-0.520
64,-0.965,-0.525
65,-0.950,-0.515
66,-0.950,-0.515
67,-0.935,-0.510
68,-0.930,-0.515
69,-0.930,-0.525
70,-0.940,-0.535
71,-0.935,-0.550
72,-0.950,-0.570
73,-0.970,-0.555
74,-0.965,-0.560
75,-0.965,-0.555
76,-0.970,-0.530
77,-0.970,-0.520
78,-0.960,-0.520
79,-0.930,-0.520
80,-0.950,-0.530
81,-0.960,-0.525
82,-0.975,-0.545
83,-0.955,-0.535
84,-0.960,-0.565
85,-0.960,-0.560
86,-0.960,-0.560
87,-0.970,-0.550
88,-0.955,-0.535
89,-0.940,-0.520
90,-0.940,-0.525
91,-0.930,-0.525
92,-0.925,-0.510
93,-0.930,-0.530
94,-0.925,-0.535
95,-0.935,-0.555
96,-0.960,-0.580
97,-0.950,-0.560
98,-0.960,-0.575
99,-0.955,-0.570
100,-0.945,-0.535
101,-0.940,-0.555
102,-0.925,-0.550
103,-0.920,-0.520
104,-0.925,-0.550
105,-0.920,-0.535
106,-0.925,-0.555
107,-0.935,-0.555
108,-0.935,-0.570
109,-0.935,-0.565
110,-0.960,-0.570
111,-0.945,-0.545
112,-0.905,-0.550
113,-0.885,-0.540
114,-0.855,-0.525
115,-0.825,-0.510
116,-0.825,-0.530
117,-0.815,-0.535
118,-0.825,-0.535
119,-0.810,-0.550
120,-0.835,-0.555
121,-0.835,-0.530
122,-0.835,-0.515
123,-0.785,-0.495
124,-0.780,-0.480
125,-0.760,-0.450
126,-0.750,-0.435
127,-0.760,-0.415
128,-0.745,-0.400
129,-0.750,-0.390
130,-0.775,-0.390
131,-0.780,-0.365
132,-0.800,-0.360
133,-0.825,-0.355
134,-0.845,-0.360
135,-0.840,-0.360
136,-0.835,-0.355
137,-0.825,-0.350
138,-0.835,-0.345
139,-0.850,-0.345
140,-0.865,-0.375
141,-0.895,-0.380
142,-0.920,-0.415
143,-0.930,-0.430
144,-0.940,-0.470
145,-0.945,-0.490
146,-0.955,-0.495
147,-0.980,-0.490
148,-0.970,-0.505
149,-0.970,-0.500
150,-0.970,-0.475
151,-0.935,-0.485
152,-0.965,-0.480
153,-0.960,-0.510
154,-0.960,-0.515
155,-0.965,-0.545
156,-0.985,-0.545
157,-0.985,-0.555
158,-0.990,-0.550
159,-0.995,-0.540
160,-0.975,-0.530
161,-0.985,-0.520
162,-0.970,-0.520
163,-0.955,-0.510
164,-0.945,-0.535
165,-0.945,-0.535
166,-0.955,-0.550
167,-0.950,-0.565
168,-0.970,-0.560
169,-0.985,-0.585
170,-0.975,-0.575
171,-0.950,-0.545
172,-0.905,-0.550
173,-0.830,-0.535
174,-0.750,-0.500
175,-0.620,-0.425
176,-0.500,-0.285
177,-0.340,-0.095
178,-0.175,0.120
179,-0.035,0.370
180,0.030,0.625
181,0.010,0.890
182,-0.110,1.085
183,-0.330,1.190
184,-0.580,1.175
185,-0.865,1.005
186,-1.155,0.720
187,-1.415,0.380
188,-1.625,-0.060
189,-1.755,-0.425
190,-1.760,-0.725
191,-1.680,-0.865
192,-1.565,-0.860
193,-1.445,-0.785
194,-1.330,-0.680
195,-1.245,-0.585
196,-1.165,-0.530
197,-1.100,-0.515
198,-1.015,-0.495
199,-0.940,-0.485
200,-0.885,-0.475
201,-0.860,-0.490
202,-0.865,-0.490
203,-0.870,-0.490
204,-0.885,-0.490
205,-0.890,-0.505
206,-0.905,-0.500
207,-0.910,-0.490
208,-0.890,-0.485
209,-0.850,-0.475
210,-0.845,-0.450
211,-0.835,-0.460
212,-0.845,-0.450
213,-0.835,-0.465
214,-0.840,-0.470
215,-0.850,-0.485
216,-0.830,-0.490
217,-0.845,-0.495
218,-0.845,-0.485
219,-0.855,-0.475
220,-0.820,-0.455
221,-0.810,-0.435
222,-0.810,-0.435
223,-0.790,-0.440
224,-0.785,-0.435
225,-0.785,-0.445
226,-0.775,-0.435
227,-0.790,-0.450
228,-0.780,-0.445
229,-0.800,-0.445
230,-0.785,-0.435
231,-0.785,-0.450
232,-0.780,-0.420
233,-0.760,-0.410
234,-0.755,-0.390
235,-0.730,-0.395
236,-0.720,-0.385
237,-0.720,-0.400
238,-0.725,-0.415
239,-0.730,-0.405
240,-0.725,-0.415
241,-0.725,-0.400
242,-0.720,-0.405
243,-0.740,-0.380
244,-0.725,-0.365
245,-0.705,-0.350
246,-0.685,-0.335
247,-0.660,-0.335
248,-0.680,-0.315
249,-0.665,-0.305
250,-0.655,-0.325
251,-0.645,-0.325
252,-0.650,-0.325
253,-0.625,-0.300
254,-0.630,-0.290
255,-0.615,-0.265
256,-0.590,-0.240
257,-0.570,-0.215
258,-0.560,-0.175
259,-0.530,-0.180
260,-0.515,-0.160
261,-0.505,-0.140
262,-0.485,-0.140
263,-0.470,-0.135
264,-0.480,-0.135
265,-0.450,-0.120
266,-0.450,-0.085
267,-0.440,-0.065
268,-0.395,-0.035
269,-0.380,-0.010
270,-0.335,0.020
271,-0.305,0.055
272,-0.305,0.050
273,-0.290,0.070
274,-0.275,0.065
275,-0.275,0.090
276,-0.250,0.070
277,-0.255,0.080
278,-0.250,0.100
279,-0.240,0.125
280,-0.220,0.145
281,-0.200,0.165
282,-0.195,0.185
283,-0.175,0.185
284,-0.170,0.195
285,-0.170,0.185
286,-0.175,0.190
287,-0.180,0.175
288,-0.195,0.170
289,-0.195,0.165
290,-0.230,0.135
291,-0.235,0.125
292,-0.265,0.140
293,-0.265,0.125
294,-0.280,0.115
295,-0.300,0.075
296,-0.335,0.030
297,-0.360,0.000
298,-0.400,-0.035
299,-0.430,-0.085
300,-0.470,-0.125
301,-0.505,-0.170
302,-0.540,-0.200
303,-0.565,-0.225
304,-0.590,-0.250
305,-0.610,-0.280
306,-0.630,-0.300
307,-0.650,-0.325
308,-0.665,-0.370
309,-0.690,-0.400
310,-0.735,-0.430
311,-0.750,-0.450
312,-0.775,-0.485
313,-0.795,-0.495
314,-0.790,-0.495
315,-0.820,-0.525
316,-0.810,-0.490
317,-0.810,-0.510
318,-0.810,-0.500
319,-0.815,-0.515
320,-0.815,-0.515
321,-0.820,-0.550
322,-0.825,-0.545
323,-0.845,-0.555
324,-0.865,-0.570
325,-0.870,-0.560
326,-0.890,-0.565
327,-0.885,-0.565
328,-0.875,-0.545
329,-0.870,-0.550
330,-0.870,-0.545
331,-0.850,-0.545
332,-0.860,-0.545
333,-0.855,-0.550
334,-0.855,-0.570
335,-0.860,-0.575
336,-0.870,-0.570
337,-0.870,-0.580
338,-0.870,-0.575
339,-0.865,-0.570
340,-0.865,-0.565
341,-0.850,-0.540
342,-0.840,-0.525
343,-0.845,-0.525
344,-0.820,-0.530
345,-0.860,-0.520
346,-0.870,-0.555
347,-0.860,-0.555
348,-0.865,-0.555
349,-0.870,-0.550
350,-0.865,-0.550
351,-0.860,-0.535
352,-0.845,-0.530
353,-0.840,-0.530
354,-0.820,-0.505
355,-0.820,-0.505
356,-0.820,-0.520
357,-0.830,-0.510
358,-0.825,-0.530
359,-0.835,-0.530
360,-0.850,-0.545
361,-0.870,-0.550
362,-0.875,-0.560
363,-0.875,-0.530
364,-0.880,-0.535
365,-0.875,-0.525
366,-0.875,-0.525
367,-0.865,-0.535
368,-0.855,-0.525
369,-0.855,-0.525
370,-0.865,-0.545
371,-0.880,-0.550
372,-0.875,-0.560
373,-0.890,-0.595
374,-0.895,-0.580
375,-0.900,-0.580
376,-0.890,-0.570
377,-0.895,-0.555
378,-0.885,-0.550
379,-0.885,-0.555
380,-0.885,-0.555
381,-0.890,-0.575
382,-0.900,-0.595
383,-0.915,-0.600
384,-0.915,-0.620
385,-0.920,-0.625
386,-0.935,-0.610
387,-0.920,-0.605
388,-0.925,-0.595
389,-0.905,-0.580
390,-0.900,-0.590
391,-0.895,-0.565
392,-0.905,-0.585
393,-0.915,-0.600
394,-0.930,-0.605
395,-0.930,-0.610
396,-0.950,-0.610
397,-0.945,-0.620
398,-0.975,-0.625
399,-0.955,-0.605
400,-0.930,-0.610
401,-0.935,-0.605
402,-0.910,-0.590
403,-0.905,-0.590
404,-0.895,-0.595
405,-0.910,-0.595
406,-0.905,-0.615
407,-0.915,-0.615
408,-0.915,-0.620
409,-0.935,-0.615
410,-0.930,-0.640
411,-0.935,-0.620
412,-0.930,-0.600
413,-0.920,-0.605
414,-0.915,-0.590
415,-0.905,-0.600
416,-0.920,-0.600
417,-0.920,-0.600
418,-0.925,-0.620
419,-0.915,-0.625
420,-0.930,-0.640
421,-0.940,-0.620
422,-0.945,-0.620
423,-0.950,-0.615
424,-0.930,-0.590
425,-0.920,-0.615
426,-0.920,-0.590
427,-0.910,-0.580
428,-0.920,-0.585
429,-0.915,-0.605
430,-0.920,-0.625
431,-0.940,-0.620
432,-0.950,-0.650
433,-0.945,-0.650
434,-0.940,-0.630
435,-0.945,-0.635
436,-0.945,-0.620
437,-0.940,-0.615
438,-0.925,-0.610
439,-0.930,-0.615
440,-0.920,-0.620
441,-0.925,-0.635
442,-0.935,-0.635
443,-0.935,-0.640
444,-0.945,-0.640
445,-0.945,-0.675
446,-0.975,-0.660
447,-0.975,-0.665
448,-0.960,-0.650
449,-0.935,-0.635
450,-0.925,-0.630
451,-0.915,-0.635
452,-0.925,-0.625
453,-0.925,-0.635
454,-0.920,-0.645
455,-0.925,-0.655
456,-0.935,-0.670
457,-0.935,-0.665
458,-0.950,-0.665
459,-0.940,-0.665
460,-0.935,-0.645
461,-0.925,-0.645
462,-0.925,-0.635
463,-0.915,-0.620
464,-0.920,-0.620
465,-0.925,-0.635
466,-0.920,-0.620
467,-0.935,-0.620
468,-0.945,-0.620
469,-0.955,-0.620
470,-0.955,-0.635
471,-0.955,-0.625
472,-0.950,-0.605
473,-0.930,-0.590
474,-0.930,-0.585
475,-0.915,-0.580
476,-0.920,-0.590
477,-0.930,-0.595
478,-0.945,-0.615
479,-0.955,-0.615
480,-0.970,-0.615
481,-0.980,-0.620
482,-0.960,-0.620
483,-0.975,-0.645
484,-0.945,-0.610
485,-0.940,-0.610
486,-0.935,-0.595
487,-0.915,-0.585
488,-0.920,-0.600
489,-0.930,-0.610
490,-0.925,-0.615
491,-0.940,-0.620
492,-0.940,-0.630
493,-0.935,-0.640
494,-0.945,-0.625
495,-0.940,-0.645
496,-0.935,-0.605
497,-0.925,-0.605
498,-0.920,-0.590
499,-0.920,-0.605
500,-0.915,-0.605
501,-0.930,-0.610
502,-0.920,-0.615
503,-0.920,-0.625
504,-0.930,-0.640
505,-0.940,-0.640
506,-0.945,-0.615
507,-0.935,-0.620
508,-0.930,-0.610
509,-0.925,-0.605
510,-0.915,-0.600
511,-0.910,-0.595
512,-0.905,-0.600
513,-0.905,-0.615
514,-0.915,-0.630
515,-0.935,-0.625
516,-0.935,-0.635
517,-0.945,-0.635
518,-0.930,-0.630
519,-0.905,-0.620
520,-0.885,-0.625
521,-0.860,-0.615
522,-0.845,-0.600
523,-0.815,-0.595
524,-0.810,-0.605
525,-0.800,-0.605
526,-0.805,-0.615
527,-0.830,-0.605
528,-0.820,-0.605
529,-0.825,-0.595
530,-0.800,-0.590
531,-0.795,-0.570
532,-0.785,-0.555
533,-0.760,-0.525
534,-0.735,-0.505
535,-0.720,-0.490
536,-0.725,-0.465
537,-0.740,-0.465
538,-0.750,-0.450
539,-0.770,-0.445
540,-0.800,-0.470
541,-0.810,-0.480
542,-0.820,-0.475
543,-0.810,-0.470
544,-0.825,-0.480
545,-0.825,-0.460
546,-0.845,-0.460
547,-0.840,-0.465
548,-0.875,-0.505
549,-0.885,-0.515
550,-0.920,-0.525
551,-0.925,-0.565
552,-0.945,-0.585
553,-0.950,-0.620
554,-0.950,-0.615
555,-0.955,-0.635
556,-0.945,-0.615
557,-0.945,-0.620
558,-0.940,-0.620
559,-0.925,-0.610
560,-0.930,-0.625
561,-0.945,-0.620
562,-0.945,-0.650
563,-0.950,-0.645
564,-0.960,-0.670
565,-0.980,-0.670
566,-0.970,-0.680
567,-0.970,-0.660
568,-0.970,-0.675
569,-0.960,-0.645
570,-0.960,-0.635
571,-0.945,-0.650
572,-0.955,-0.625
573,-0.950,-0.640
574,-0.955,-0.630
575,-0.965,-0.635
576,-0.960,-0.655
577,-0.960,-0.660
578,-0.955,-0.660
579,-0.945,-0.640
580,-0.920,-0.635
581,-0.910,-0.635
582,-0.860,-0.635
583,-0.785,-0.610
584,-0.715,-0.580
585,-0.600,-0.495
586,-0.490,-0.380
587,-0.355,-0.200
588,-0.225,0.035
589,-0.100,0.280
590,-0.045,0.550
591,-0.090,0.800
592,-0.210,0.975
593,-0.430,1.060
594,-0.690,1.005
595,-0.970,0.820
596,-1.240,0.510
597,-1.490,0.105
598,-1.665,-0.310
599,-1.730,-0.660
600,-1.700,-0.895
601,-1.600,-0.975
602,-1.490,-0.940
603,-1.375,-0.840
604,-1.275,-0.745
605,-1.200,-0.690
606,-1.120,-0.620
607,-1.035,-0.615
608,-0.980,-0.610
609,-0.930,-0.605
610,-0.885,-0.595
611,-0.890,-0.590
612,-0.890,-0.585
613,-0.870,-0.590
614,-0.895,-0.600
615,-0.910,-0.605
616,-0.895,-0.595
617,-0.870,-0.575
618,-0.855,-0.580
619,-0.840,-0.565
620,-0.820,-0.585
621,-0.830,-0.560
622,-0.820,-0.585
623,-0.835,-0.575
624,-0.845,-0.590
625,-0.840,-0.585
626,-0.845,-0.570
627,-0.835,-0.590
628,-0.830,-0.565
629,-0.830,-0.570
630,-0.810,-0.540
631,-0.790,-0.545
632,-0.790,-0.540
633,-0.790,-0.555
634,-0.790,-0.565
635,-0.800,-0.565
636,-0.800,-0.565
637,-0.800,-0.570
638,-0.800,-0.555
639,-0.810,-0.535
640,-0.785,-0.535
641,-0.780,-0.520
642,-0.775,-0.520
643,-0.755,-0.495
644,-0.755,-0.515
645,-0.760,-0.505
646,-0.755,-0.500
647,-0.755,-0.535
648,-0.760,-0.530
649,-0.770,-0.535
650,-0.755,-0.490
651,-0.765,-0.495
652,-0.755,-0.470
653,-0.745,-0.470
654,-0.730,-0.475
655,-0.705,-0.460
656,-0.740,-0.455
657,-0.710,-0.455
658,-0.705,-0.450
659,-0.715,-0.470
660,-0.710,-0.470
661,-0.710,-0.450
662,-0.705,-0.460
663,-0.690,-0.440
664,-0.665,-0.415
665,-0.645,-0.395
666,-0.610,-0.375
667,-0.595,-0.365
668,-0.590,-0.360
669,-0.595,-0.365
670,-0.580,-0.365
671,-0.575,-0.355
672,-0.565,-0.345
673,-0.560,-0.330
674,-0.550,-0.315
675,-0.530,-0.295
676,-0.515,-0.255
677,-0.480,-0.225
678,-0.465,-0.205
679,-0.430,-0.180
680,-0.405,-0.165
681,-0.375,-0.155
682,-0.390,-0.140
683,-0.380,-0.130
684,-0.365,-0.120
685,-0.345,-0.105
686,-0.345,-0.085
687,-0.315,-0.075
688,-0.300,-0.035
689,-0.280,-0.025
690,-0.250,-0.005
691,-0.250,0.010
692,-0.240,0.030
693,-0.230,0.015
694,-0.225,0.015
695,-0.220,0.020
696,-0.235,0.005
697,-0.235,0.015
698,-0.230,0.010
699,-0.225,0.015
700,-0.245,0.035
701,-0.240,0.035
702,-0.250,0.055
703,-0.250,0.030
704,-0.260,0.000
705,-0.270,-0.015
706,-0.305,-0.050
707,-0.335,-0.075
708,-0.375,-0.115
709,-0.415,-0.145
710,-0.450,-0.180
711,-0.480,-0.195
712,-0.500,-0.230
713,-0.505,-0.245
714,-0.550,-0.280
715,-0.575,-0.315
716,-0.585,-0.340
717,-0.615,-0.385
718,-0.645,-0.425
719,-0.680,-0.455
720,-0.720,-0.475
721,-0.750,-0.515
722,-0.775,-0.550
723,-0.775,-0.570
724,-0.800,-0.560
725,-0.810,-0.595
726,-0.810,-0.600
727,-0.815,-0.590
728,-0.820,-0.625
729,-0.840,-0.640
730,-0.865,-0.660
731,-0.875,-0.675
732,-0.885,-0.710
733,-0.900,-0.705
734,-0.890,-0.695
735,-0.895,-0.710
736,-0.900,-0.690
737,-0.885,-0.685
738,-0.885,-0.685
739,-0.885,-0.685
740,-0.890,-0.695
741,-0.880,-0.705
742,-0.885,-0.715
743,-0.895,-0.710
744,-0.910,-0.725
745,-0.905,-0.740
746,-0.910,-0.720
747,-0.895,-0.715
748,-0.890,-0.690
749,-0.890,-0.700
750,-0.880,-0.690
751,-0.865,-0.670
752,-0.865,-0.695
753,-0.865,-0.690
754,-0.855,-0.690
755,-0.885,-0.695
756,-0.870,-0.685
757,-0.880,-0.695
758,-0.900,-0.700
759,-0.895,-0.695
760,-0.885,-0.685
761,-0.870,-0.665
762,-0.870,-0.655
763,-0.855,-0.660
764,-0.850,-0.665
765,-0.850,-0.660
766,-0.855,-0.665
767,-0.865,-0.675
768,-0.870,-0.680
769,-0.875,-0.670
770,-0.895,-0.685
771,-0.905,-0.685
772,-0.895,-0.675
773,-0.895,-0.670
774,-0.900,-0.645
775,-0.875,-0.645
776,-0.885,-0.640
777,-0.885,-0.650
778,-0.885,-0.675
779,-0.900,-0.675
780,-0.910,-0.705
781,-0.915,-0.715
782,-0.930,-0.720
783,-0.940,-0.705
784,-0.935,-0.685
785,-0.930,-0.685
786,-0.915,-0.675
787,-0.910,-0.675
788,-0.920,-0.685
789,-0.905,-0.690
790,-0.925,-0.700
791,-0.945,-0.710
792,-0.940,-0.720
793,-0.960,-0.735
794,-0.975,-0.720
795,-0.965,-0.720
796,-0.960,-0.720
797,-0.955,-0.705
798,-0.955,-0.700
799,-0.970,-0.700
800,-0.945,-0.710
801,-0.945,-0.710
802,-0.945,-0.725
803,-0.965,-0.730
804,-0.970,-0.740
805,-0.980,-0.755
806,-0.995,-0.750
807,-1.010,-0.760
808,-1.020,-0.740
809,-0.995,-0.725
810,-0.990,-0.725
811,-0.970,-0.700
812,-0.970,-0.725
813,-0.970,-0.735
814,-0.965,-0.725
815,-0.990,-0.740
816,-0.995,-0.750
817,-1.005,-0.760
818,-1.015,-0.760
819,-1.000,-0.740
820,-0.995,-0.730
821,-0.990,-0.730
822,-0.990,-0.730
823,-0.990,-0.710
824,-1.000,-0.730
825,-0.995,-0.710
826,-1.000,-0.725
827,-1.000,-0.730
828,-1.005,-0.730
829,-1.020,-0.740
830,-1.035,-0.740
831,-1.030,-0.740
832,-1.025,-0.725
833,-1.020,-0.715
834,-1.010,-0.710
835,-0.995,-0.695
836,-1.005,-0.705
837,-1.000,-0.720
838,-1.010,-0.740
839,-1.030,-0.735
840,-1.025,-0.725
841,-1.030,-0.750
842,-1.045,-0.750
843,-1.045,-0.730
844,-1.025,-0.725
845,-1.035,-0.720
846,-1.020,-0.705
847,-1.005,-0.700
848,-1.005,-0.710
849,-1.005,-0.715
850,-1.010,-0.735
851,-1.020,-0.740
852,-1.015,-0.745
853,-1.035,-0.740
854,-1.040,-0.750
855,-1.045,-0.730
856,-1.050,-0.720
857,-1.030,-0.720
858,-1.025,-0.700
859,-1.015,-0.690
860,-1.020,-0.705
861,-1.015,-0.715
862,-1.010,-0.730
863,-1.040,-0.740
864,-1.035,-0.750
865,-1.050,-0.765
866,-1.050,-0.760
867,-1.050,-0.740
868,-1.045,-0.760
869,-1.045,-0.740
870,-1.020,-0.735
871,-1.000,-0.720
872,-1.000,-0.705
873,-1.015,-0.715
874,-1.010,-0.720
875,-1.010,-0.730
876,-1.020,-0.755
877,-1.035,-0.750
878,-1.060,-0.750
879,-1.060,-0.735
880,-1.030,-0.715
881,-1.040,-0.715
882,-1.030,-0.705
883,-1.010,-0.710
884,-1.015,-0.715
885,-1.020,-0.715
886,-1.000,-0.725
887,-1.010,-0.700
888,-1.015,-0.720
889,-1.030,-0.720
890,-1.030,-0.710
891,-1.035,-0.690
892,-1.035,-0.705
893,-1.035,-0.685
894,-1.030,-0.680
895,-1.025,-0.680
896,-1.000,-0.670
897,-1.005,-0.695
898,-1.025,-0.700
899,-1.030,-0.695
900,-1.025,-0.710
901,-1.045,-0.710
902,-1.050,-0.730
903,-1.040,-0.705
904,-1.040,-0.710
905,-1.010,-0.690
906,-1.010,-0.685
907,-1.005,-0.675
908,-1.010,-0.675
909,-1.010,-0.680
910,-1.020,-0.690
911,-1.020,-0.695
912,-1.010,-0.710
913,-1.020,-0.695
914,-1.025,-0.705
915,-1.040,-0.685
916,-1.020,-0.690
917,-1.015,-0.670
918,-1.005,-0.670
919,-0.990,-0.675
920,-0.995,-0.670
921,-0.980,-0.675
922,-0.980,-0.685
923,-0.985,-0.690
924,-1.000,-0.690
925,-1.000,-0.695
926,-0.995,-0.690
927,-0.985,-0.680
928,-0.965,-0.665
929,-0.955,-0.675
930,-0.930,-0.660
931,-0.925,-0.655
932,-0.925,-0.675
933,-0.920,-0.675
934,-0.930,-0.670
935,-0.920,-0.675
936,-0.900,-0.670
937,-0.895,-0.660
938,-0.885,-0.650
939,-0.875,-0.625
940,-0.875,-0.600
941,-0.845,-0.595
942,-0.825,-0.570
943,-0.820,-0.560
944,-0.805,-0.540
945,-0.810,-0.540
946,-0.820,-0.520
947,-0.840,-0.505
948,-0.865,-0.505
949,-0.890,-0.520
950,-0.900,-0.525
951,-0.915,-0.530
952,-0.905,-0.525
953,-0.895,-0.525
954,-0.910,-0.510
955,-0.915,-0.510
956,-0.940,-0.545
957,-0.960,-0.545
958,-0.975,-0.555
959,-1.005,-0.590
960,-1.005,-0.610
961,-1.010,-0.625
962,-1.010,-0.630
963,-1.030,-0.635
964,-1.035,-0.630
965,-1.040,-0.630
966,-1.015,-0.630
967,-1.015,-0.625
968,-1.025,-0.630
969,-1.020,-0.630
970,-1.025,-0.650
971,-1.045,-0.680
972,-1.045,-0.675
973,-1.055,-0.685
974,-1.060,-0.685
975,-1.060,-0.690
976,-1.060,-0.675
977,-1.045,-0.670
978,-1.040,-0.660
979,-1.035,-0.650
980,-1.015,-0.645
981,-1.010,-0.660
982,-1.005,-0.650
983,-1.035,-0.665
984,-1.020,-0.660
985,-1.035,-0.660
986,-1.035,-0.680
987,-1.020,-0.660
988,-0.980,-0.655
989,-0.910,-0.635
990,-0.830,-0.585
991,-0.715,-0.495
992,-0.600,-0.345
993,-0.460,-0.160
994,-0.335,0.070
995,-0.215,0.305
996,-0.165,0.560
997,-0.200,0.765
998,-0.335,0.925
999,-0.815,0.945
1000,-1.095,0.795
1001,-1.375,0.540
1002,-1.605,0.170
1003,-1.795,-0.235
1004,-1.905,-0.660
1005,-1.925,-1.010
1006,-1.860,-1.195
1007,-1.760,-1.235
1008,-1.645,-1.125
1009,-1.550,-1.000
1010,-1.465,-0.890
1011,-1.395,-0.800
1012,-1.310,-0.750
1013,-1.225,-0.715
1014,-1.155,-0.680
1015,-1.075,-0.670
1016,-1.020,-0.625
1017,-0.985,-0.615
1018,-0.995,-0.605
1019,-0.990,-0.590
1020,-1.000,-0.590
1021,-1.005,-0.595
1022,-1.005,-0.585
1023,-0.990,-0.580
1024,-0.990,-0.575
1025,-0.975,-0.565
1026,-0.960,-0.565
1027,-0.940,-0.565
1028,-0.920,-0.565
1029,-0.925,-0.560
1030,-0.935,-0.560
1031,-0.935,-0.560
1032,-0.930,-0.560
1033,-0.945,-0.545
1034,-0.920,-0.535
1035,-0.930,-0.520
1036,-0.925,-0.505
1037,-0.910,-0.500
1038,-0.890,-0.495
1039,-0.880,-0.485
1040,-0.870,-0.490
1041,-0.870,-0.505
1042,-0.895,-0.500
1043,-0.890,-0.510
1044,-0.905,-0.505
1045,-0.905,-0.505
1046,-0.895,-0.500
1047,-0.895,-0.485
1048,-0.875,-0.470
1049,-0.875,-0.445
1050,-0.850,-0.445
1051,-0.855,-0.440
1052,-0.840,-0.435
1053,-0.845,-0.440
1054,-0.870,-0.440
1055,-0.865,-0.465
1056,-0.865,-0.435
1057,-0.855,-0.445
1058,-0.855,-0.430
1059,-0.835,-0.425
1060,-0.820,-0.400
1061,-0.795,-0.385
1062,-0.810,-0.370
1063,-0.790,-0.370
1064,-0.785,-0.370
1065,-0.780,-0.360
1066,-0.785,-0.350
1067,-0.795,-0.355
1068,-0.790,-0.345
1069,-0.770,-0.335
1070,-0.770,-0.330
1071,-0.745,-0.310
1072,-0.735,-0.290
1073,-0.725,-0.275
1074,-0.695,-0.230
1075,-0.660,-0.220
1076,-0.645,-0.225
1077,-0.650,-0.210
1078,-0.635,-0.190
1079,-0.620,-0.185
1080,-0.615,-0.155
1081,-0.610,-0.155
1082,-0.585,-0.115
1083,-0.565,-0.085
1084,-0.535,-0.075
1085,-0.510,-0.050
1086,-0.490,-0.035
1087,-0.470,-0.005
1088,-0.445,0.010
1089,-0.430,0.020
1090,-0.430,0.035
1091,-0.430,0.040
1092,-0.415,0.070
1093,-0.400,0.075
1094,-0.390,0.105
1095,-0.375,0.140
1096,-0.355,0.160
1097,-0.330,0.165
1098,-0.295,0.205
1099,-0.285,0.210
1100,-0.285,0.225
1101,-0.265,0.210
1102,-0.280,0.200
1103,-0.280,0.195
1104,-0.285,0.210
1105,-0.315,0.210
1106,-0.295,0.215
1107,-0.310,0.205
1108,-0.295,0.215
1109,-0.300,0.195
1110,-0.305,0.200
1111,-0.320,0.155
1112,-0.345,0.120
1113,-0.370,0.085
1114,-0.400,0.050
1115,-0.430,-0.010
1116,-0.480,-0.045
1117,-0.525,-0.090
1118,-0.560,-0.130
1119,-0.595,-0.160
1120,-0.615,-0.185
1121,-0.640,-0.230
1122,-0.655,-0.255
1123,-0.675,-0.305
1124,-0.710,-0.350
1125,-0.730,-0.380
1126,-0.760,-0.415
1127,-0.775,-0.455
1128,-0.800,-0.470
1129,-0.830,-0.500
1130,-0.845,-0.520
1131,-0.860,-0.525
1132,-0.865,-0.530
1133,-0.870,-0.530
1134,-0.860,-0.535
1135,-0.865,-0.555
1136,-0.880,-0.555
1137,-0.890,-0.580
1138,-0.910,-0.600
1139,-0.915,-0.620
1140,-0.935,-0.610
1141,-0.930,-0.630
1142,-0.930,-0.620
1143,-0.930,-0.620
1144,-0.915,-0.625
1145,-0.915,-0.615
1146,-0.905,-0.600
1147,-0.905,-0.615
1148,-0.910,-0.615
1149,-0.900,-0.625
1150,-0.935,-0.650
1151,-0.935,-0.645
1152,-0.960,-0.650
1153,-0.950,-0.660
1154,-0.940,-0.650
1155,-0.930,-0.635
1156,-0.925,-0.640
1157,-0.910,-0.620
1158,-0.895,-0.605
1159,-0.895,-0.605
1160,-0.875,-0.610
1161,-0.885,-0.615
1162,-0.895,-0.615
1163,-0.895,-0.635
1164,-0.910,-0.650
1165,-0.915,-0.625
1166,-0.910,-0.625
1167,-0.895,-0.595
1168,-0.905,-0.590
1169,-0.900,-0.580
1170,-0.885,-0.570
1171,-0.880,-0.575
1172,-0.875,-0.590
1173,-0.885,-0.585
1174,-0.890,-0.610
1175,-0.885,-0.615
1176,-0.895,-0.610
1177,-0.910,-0.595
1178,-0.900,-0.605
1179,-0.905,-0.590
1180,-0.895,-0.575
1181,-0.890,-0.580
1182,-0.890,-0.565
1183,-0.880,-0.580
1184,-0.875,-0.580
1185,-0.905,-0.600
1186,-0.900,-0.595
1187,-0.910,-0.615
1188,-0.930,-0.610
1189,-0.925,-0.620
1190,-0.935,-0.615
1191,-0.930,-0.605
1192,-0.935,-0.610
1193,-0.920,-0.595
1194,-0.905,-0.585
1195,-0.900,-0.600
1196,-0.905,-0.615
1197,-0.905,-0.635
1198,-0.935,-0.650
1199,-0.940,-0.675
1200,-0.950,-0.675
1201,-0.955,-0.670
1202,-0.955,-0.665
1203,-0.965,-0.660
1204,-0.945,-0.650
1205,-0.935,-0.645
1206,-0.930,-0.640
1207,-0.935,-0.635
1208,-0.945,-0.655
1209,-0.935,-0.660
1210,-0.945,-0.655
1211,-0.940,-0.675
1212,-0.965,-0.685
1213,-0.970,-0.695
1214,-0.965,-0.680
1215,-0.960,-0.675
1216,-0.955,-0.655
1217,-0.955,-0.650
1218,-0.955,-0.655
1219,-0.945,-0.665
1220,-0.945,-0.665
1221,-0.950,-0.680
1222,-0.970,-0.695
1223,-0.960,-0.685
1224,-0.970,-0.700
1225,-0.970,-0.700
1226,-0.975,-0.695
1227,-0.965,-0.690
1228,-0.965,-0.675
1229,-0.955,-0.665
1230,-0.955,-0.645
1231,-0.955,-0.665
1232,-0.955,-0.665
1233,-0.965,-0.670
1234,-0.965,-0.680
1235,-0.975,-0.680
1236,-0.980,-0.675
1237,-1.000,-0.685
1238,-0.985,-0.685
1239,-0.975,-0.680
1240,-0.975,-0.665
1241,-0.955,-0.655
1242,-0.950,-0.645
1243,-0.950,-0.650
1244,-0.955,-0.665
1245,-0.965,-0.665
1246,-0.970,-0.665
1247,-0.960,-0.680
1248,-0.965,-0.685
1249,-0.980,-0.680
1250,-0.975,-0.680
1251,-0.975,-0.660
1252,-0.975,-0.655
1253,-0.965,-0.645
1254,-0.950,-0.640
1255,-0.960,-0.670
1256,-0.970,-0.660
1257,-0.980,-0.660
1258,-0.945,-0.670
1259,-0.965,-0.680
1260,-0.980,-0.675
1261,-0.990,-0.685
1262,-0.985,-0.690
1263,-0.975,-0.670
1264,-0.980,-0.660
1265,-0.965,-0.650
1266,-0.960,-0.650
1267,-0.950,-0.655
1268,-0.955,-0.670
1269,-0.955,-0.680
1270,-0.955,-0.665
1271,-0.970,-0.675
1272,-0.970,-0.680
1273,-0.965,-0.680
1274,-0.980,-0.680
1275,-0.970,-0.670
1276,-0.960,-0.665
1277,-0.955,-0.655
1278,-0.950,-0.650
1279,-0.940,-0.640
1280,-0.945,-0.655
1281,-0.945,-0.670
1282,-0.970,-0.685
1283,-0.965,-0.670
1284,-0.970,-0.675
1285,-0.975,-0.675
1286,-0.975,-0.660
1287,-0.975,-0.675
1288,-0.960,-0.650
1289,-0.950,-0.645
1290,-0.950,-0.635
1291,-0.950,-0.630
1292,-0.930,-0.640
1293,-0.925,-0.655
1294,-0.935,-0.655
1295,-0.940,-0.675
1296,-0.950,-0.665
1297,-0.960,-0.670
1298,-0.960,-0.660
1299,-0.955,-0.650
1300,-0.970,-0.635
1301,-0.960,-0.625
1302,-0.950,-0.620
1303,-0.955,-0.625
1304,-0.945,-0.625
1305,-0.945,-0.635
1306,-0.940,-0.650
1307,-0.945,-0.650
1308,-0.965,-0.655
1309,-0.960,-0.645
1310,-0.960,-0.645
1311,-0.950,-0.625
1312,-0.950,-0.630
1313,-0.950,-0.635
1314,-0.930,-0.620
1315,-0.930,-0.625
1316,-0.930,-0.610
1317,-0.930,-0.630
1318,-0.940,-0.640
1319,-0.935,-0.645
1320,-0.960,-0.670
1321,-0.955,-0.675
1322,-0.950,-0.675
1323,-0.945,-0.645
1324,-0.945,-0.650
1325,-0.930,-0.630
1326,-0.925,-0.610
1327,-0.910,-0.615
1328,-0.915,-0.630
1329,-0.920,-0.615
1330,-0.920,-0.630
1331,-0.910,-0.625
1332,-0.895,-0.645
1333,-0.905,-0.635
1334,-0.875,-0.620
1335,-0.875,-0.615
1336,-0.845,-0.605
1337,-0.830,-0.615
1338,-0.835,-0.590
1339,-0.815,-0.595
1340,-0.810,-0.595
1341,-0.800,-0.570
1342,-0.805,-0.560
1343,-0.780,-0.565
1344,-0.790,-0.530
1345,-0.780,-0.540
1346,-0.775,-0.520
1347,-0.770,-0.490
1348,-0.770,-0.460
1349,-0.770,-0.445
1350,-0.785,-0.425
1351,-0.810,-0.420
1352,-0.800,-0.445
1353,-0.810,-0.445
1354,-0.815,-0.455
1355,-0.830,-0.455
1356,-0.845,-0.480
1357,-0.845,-0.475
1358,-0.875,-0.490
1359,-0.900,-0.480
1360,-0.905,-0.480
1361,-0.910,-0.500
1362,-0.925,-0.515
1363,-0.920,-0.535
1364,-0.925,-0.550
1365,-0.920,-0.585
1366,-0.915,-0.580
1367,-0.940,-0.605
1368,-0.955,-0.610
1369,-0.975,-0.615
1370,-0.970,-0.595
1371,-0.970,-0.585
1372,-0.955,-0.590
1373,-0.955,-0.590
1374,-0.955,-0.570
1375,-0.960,-0.590
1376,-0.960,-0.605
1377,-0.935,-0.605
1378,-0.950,-0.610
1379,-0.960,-0.640
1380,-0.965,-0.625
1381,-0.965,-0.620
1382,-0.970,-0.610
1383,-0.965,-0.620
1384,-0.945,-0.600
1385,-0.945,-0.600
1386,-0.935,-0.585
1387,-0.925,-0.600
1388,-0.930,-0.600
1389,-0.920,-0.605
1390,-0.925,-0.600
1391,-0.935,-0.625
1392,-0.905,-0.640
1393,-0.860,-0.635
1394,-0.795,-0.615
1395,-0.700,-0.545
1396,-0.575,-0.430
1397,-0.435,-0.265
1398,-0.265,-0.045
1399,-0.150,0.180
1400,-0.035,0.440
1401,-0.020,0.690
1402,-0.060,0.920
1403,-0.205,1.095
1404,-0.425,1.165
1405,-0.700,1.075
1406,-0.980,0.845
1407,-1.245,0.530
1408,-1.475,0.140
1409,-1.620,-0.240
1410,-1.660,-0.575
1411,-1.615,-0.810
1412,-1.500,-0.860
1413,-1.375,-0.820
1414,-1.265,-0.735
1415,-1.165,-0.665
1416,-1.105,-0.605
1417,-1.045,-0.580
1418,-0.985,-0.580
1419,-0.915,-0.580
1420,-0.905,-0.575
1421,-0.870,-0.555
1422,-0.835,-0.540
1423,-0.835,-0.540
1424,-0.840,-0.545
1425,-0.855,-0.570
1426,-0.870,-0.580
1427,-0.855,-0.590
1428,-0.845,-0.575
1429,-0.855,-0.585
1430,-0.835,-0.575
1431,-0.825,-0.580
1432,-0.820,-0.560
1433,-0.810,-0.540
1434,-0.805,-0.530
1435,-0.795,-0.530
1436,-0.795,-0.525
1437,-0.785,-0.520
1438,-0.785,-0.525
1439,-0.795,-0.525
1440,-0.805,-0.515
1441,-0.805,-0.535
1442,-0.805,-0.525
1443,-0.820,-0.505
1444,-0.790,-0.490
1445,-0.785,-0.485
1446,-0.760,-0.465
1447,-0.750,-0.465
1448,-0.740,-0.475
1449,-0.745,-0.465
1450,-0.740,-0.485
1451,-0.765,-0.480
1452,-0.765,-0.475
1453,-0.780,-0.490
1454,-0.760,-0.470
1455,-0.760,-0.460
1456,-0.745,-0.450
1457,-0.735,-0.430
1458,-0.725,-0.425
1459,-0.720,-0.415
1460,-0.705,-0.415
1461,-0.705,-0.430
1462,-0.710,-0.430
1463,-0.710,-0.430
1464,-0.705,-0.425
1465,-0.735,-0.425
1466,-0.705,-0.415
1467,-0.695,-0.395
1468,-0.685,-0.390
1469,-0.665,-0.370
1470,-0.650,-0.350
1471,-0.645,-0.350
1472,-0.630,-0.345
1473,-0.635,-0.355
1474,-0.635,-0.355
1475,-0.645,-0.350
1476,-0.640,-0.330
1477,-0.615,-0.335
1478,-0.600,-0.310
1479,-0.590,-0.295
1480,-0.580,-0.275
1481,-0.550,-0.250
1482,-0.535,-0.240
1483,-0.515,-0.225
1484,-0.510,-0.240
1485,-0.495,-0.220
1486,-0.480,-0.210
1487,-0.475,-0.200
1488,-0.465,-0.195
1489,-0.455,-0.195
1490,-0.440,-0.170
1491,-0.435,-0.135
1492,-0.410,-0.115
1493,-0.375,-0.080
1494,-0.355,-0.070
1495,-0.330,-0.050
1496,-0.305,-0.035
1497,-0.300,-0.025
1498,-0.300,-0.005
1499,-0.285,-0.005
1500,-0.295,0.010
1501,-0.260,0.035
1502,-0.250,0.045
1503,-0.250,0.060
1504,-0.215,0.100
1505,-0.195,0.115
1506,-0.200,0.125
1507,-0.175,0.135
1508,-0.175,0.145
1509,-0.150,0.125
1510,-0.160,0.125
1511,-0.165,0.120
1512,-0.170,0.135
1513,-0.185,0.130
1514,-0.185,0.145
1515,-0.195,0.130
1516,-0.190,0.125
1517,-0.210,0.125
1518,-0.215,0.110
1519,-0.230,0.075
1520,-0.255,0.065
1521,-0.300,0.015
1522,-0.330,-0.020
1523,-0.375,-0.070
1524,-0.400,-0.085
1525,-0.430,-0.125
1526,-0.445,-0.150
1527,-0.475,-0.175
1528,-0.505,-0.200
1529,-0.520,-0.235
1530,-0.550,-0.245
1531,-0.555,-0.285
1532,-0.580,-0.335
1533,-0.605,-0.350
1534,-0.650,-0.390
1535,-0.685,-0.420
1536,-0.705,-0.430
1537,-0.725,-0.460
1538,-0.740,-0.475
1539,-0.740,-0.480
1540,-0.750,-0.490
1541,-0.760,-0.495
1542,-0.765,-0.500
1543,-0.760,-0.515
1544,-0.775,-0.515
1545,-0.785,-0.560
1546,-0.790,-0.565
1547,-0.800,-0.580
1548,-0.810,-0.590
1549,-0.825,-0.595
1550,-0.830,-0.600
1551,-0.825,-0.590
1552,-0.825,-0.580
1553,-0.815,-0.590
1554,-0.805,-0.580
1555,-0.815,-0.600
1556,-0.805,-0.595
1557,-0.820,-0.610
1558,-0.820,-0.600
1559,-0.830,-0.630
1560,-0.845,-0.630
1561,-0.845,-0.635
1562,-0.845,-0.635
1563,-0.850,-0.615
1564,-0.840,-0.610
1565,-0.815,-0.615
1566,-0.800,-0.620
1567,-0.800,-0.605
1568,-0.795,-0.600
1569,-0.790,-0.620
1570,-0.795,-0.625
1571,-0.800,-0.625
1572,-0.815,-0.640
1573,-0.820,-0.620
1574,-0.855,-0.630
1575,-0.840,-0.630
1576,-0.830,-0.590
1577,-0.800,-0.590
1578,-0.785,-0.600
1579,-0.780,-0.590
1580,-0.785,-0.605
1581,-0.785,-0.620
1582,-0.790,-0.620
1583,-0.805,-0.610
1584,-0.815,-0.630
1585,-0.830,-0.635
1586,-0.840,-0.620
1587,-0.825,-0.615
1588,-0.815,-0.610
1589,-0.815,-0.600
1590,-0.810,-0.585
1591,-0.815,-0.600
1592,-0.820,-0.610
1593,-0.835,-0.605
1594,-0.820,-0.645
1595,-0.840,-0.645
1596,-0.855,-0.650
1597,-0.855,-0.660
1598,-0.865,-0.635
1599,-0.850,-0.640
1600,-0.855,-0.630
1601,-0.845,-0.625
1602,-0.840,-0.615
1603,-0.850,-0.605
1604,-0.850,-0.625
1605,-0.855,-0.640
1606,-0.875,-0.640
1607,-0.890,-0.645
1608,-0.885,-0.625
1609,-0.895,-0.650
1610,-0.895,-0.645
1611,-0.895,-0.625
1612,-0.885,-0.630
1613,-0.905,-0.635
1614,-0.880,-0.615
1615,-0.885,-0.615
1616,-0.870,-0.625
1617,-0.885,-0.640
1618,-0.880,-0.650
1619,-0.890,-0.665
1620,-0.905,-0.670
1621,-0.905,-0.680
1622,-0.910,-0.670
1623,-0.900,-0.670
1624,-0.915,-0.660
1625,-0.905,-0.655
1626,-0.905,-0.645
1627,-0.885,-0.665
1628,-0.895,-0.665
1629,-0.900,-0.670
1630,-0.900,-0.690
1631,-0.905,-0.690
1632,-0.910,-0.700
1633,-0.910,-0.710
1634,-0.910,-0.695
1635,-0.905,-0.680
1636,-0.930,-0.685
1637,-0.905,-0.675
1638,-0.900,-0.680
1639,-0.900,-0.680
1640,-0.905,-0.670
1641,-0.905,-0.690
1642,-0.935,-0.695
1643,-0.925,-0.705
1644,-0.920,-0.725
1645,-0.935,-0.730
1646,-0.940,-0.700
1647,-0.925,-0.710
1648,-0.935,-0.685
1649,-0.910,-0.700
1650,-0.910,-0.680
1651,-0.915,-0.670
1652,-0.920,-0.680
1653,-0.920,-0.685
1654,-0.920,-0.685
1655,-0.930,-0.700
1656,-0.920,-0.705
1657,-0.940,-0.705
1658,-0.945,-0.700
1659,-0.940,-0.680
1660,-0.935,-0.690
1661,-0.945,-0.685
1662,-0.935,-0.670
1663,-0.925,-0.665
1664,-0.935,-0.675
1665,-0.920,-0.690
1666,-0.935,-0.680
1667,-0.935,-0.690
1668,-0.935,-0.690
1669,-0.945,-0.715
1670,-0.940,-0.710
1671,-0.950,-0.680
1672,-0.925,-0.680
1673,-0.935,-0.675
1674,-0.925,-0.655
1675,-0.925,-0.685
1676,-0.925,-0.685
1677,-0.925,-0.690
1678,-0.945,-0.715
1679,-0.945,-0.720
1680,-0.945,-0.705
1681,-0.960,-0.715
1682,-0.955,-0.705
1683,-0.945,-0.705
1684,-0.940,-0.685
1685,-0.920,-0.685
1686,-0.915,-0.685
1687,-0.910,-0.690
1688,-0.910,-0.700
1689,-0.910,-0.700
1690,-0.930,-0.715
1691,-0.925,-0.715
1692,-0.930,-0.710
1693,-0.950,-0.700
1694,-0.955,-0.700
1695,-0.935,-0.695
1696,-0.920,-0.705
1697,-0.940,-0.670
1698,-0.925,-0.700
1699,-0.915,-0.695
1700,-0.910,-0.700
1701,-0.910,-0.700
1702,-0.925,-0.715
1703,-0.930,-0.725
1704,-0.950,-0.725
1705,-0.950,-0.730
1706,-0.960,-0.720
1707,-0.950,-0.710
1708,-0.935,-0.680
1709,-0.940,-0.685
1710,-0.930,-0.680
1711,-0.930,-0.685
1712,-0.920,-0.695
1713,-0.930,-0.695
1714,-0.925,-0.695
1715,-0.925,-0.715
1716,-0.930,-0.700
1717,-0.940,-0.695
1718,-0.940,-0.705
1719,-0.920,-0.685
1720,-0.915,-0.690
1721,-0.925,-0.675
1722,-0.910,-0.665
1723,-0.915,-0.675
1724,-0.910,-0.675
1725,-0.900,-0.670
1726,-0.910,-0.680
1727,-0.930,-0.700
1728,-0.925,-0.690
1729,-0.945,-0.695
1730,-0.950,-0.700
1731,-0.945,-0.675
1732,-0.935,-0.660
1733,-0.915,-0.665
1734,-0.905,-0.655
1735,-0.900,-0.660
1736,-0.895,-0.655
1737,-0.890,-0.675
1738,-0.895,-0.670
1739,-0.900,-0.695
1740,-0.925,-0.685
1741,-0.935,-0.680
1742,-0.925,-0.680
1743,-0.920,-0.680
1744,-0.920,-0.665
1745,-0.920,-0.670
1746,-0.915,-0.665
1747,-0.895,-0.680
1748,-0.895,-0.670
1749,-0.895,-0.670
1750,-0.900,-0.685
1751,-0.900,-0.675
1752,-0.905,-0.695
1753,-0.900,-0.695
1754,-0.885,-0.685
1755,-0.885,-0.695
1756,-0.865,-0.660
1757,-0.850,-0.650
1758,-0.830,-0.655
1759,-0.830,-0.660
1760,-0.810,-0.660
1761,-0.830,-0.665
1762,-0.820,-0.670
1763,-0.820,-0.665
1764,-0.820,-0.640
1765,-0.810,-0.655
1766,-0.795,-0.650
1767,-0.785,-0.620
1768,-0.755,-0.595
1769,-0.730,-0.570
1770,-0.730,-0.565
1771,-0.710,-0.560
1772,-0.700,-0.545
1773,-0.710,-0.520
1774,-0.745,-0.520
1775,-0.750,-0.515
1776,-0.785,-0.515
1777,-0.820,-0.530
1778,-0.815,-0.520
1779,-0.820,-0.505
1780,-0.810,-0.505
1781,-0.810,-0.515
1782,-0.820,-0.505
1783,-0.820,-0.505
1784,-0.835,-0.530
1785,-0.855,-0.545
1786,-0.895,-0.570
1787,-0.910,-0.595
1788,-0.915,-0.620
1789,-0.925,-0.640
1790,-0.925,-0.650
1791,-0.925,-0.640
1792,-0.915,-0.635
1793,-0.930,-0.645
1794,-0.920,-0.635
1795,-0.920,-0.640
1796,-0.935,-0.645
1797,-0.950,-0.655
1798,-0.965,-0.675
1799,-0.965,-0.675
1800,-0.995,-0.680
1801,-0.980,-0.690
1802,-0.985,-0.685
1803,-0.975,-0.675
1804,-0.955,-0.660
1805,-0.970,-0.665
1806,-0.940,-0.650
1807,-0.925,-0.655
1808,-0.940,-0.670
1809,-0.960,-0.670
1810,-0.950,-0.695
1811,-0.950,-0.685
1812,-0.975,-0.695
1813,-0.965,-0.685
1814,-0.960,-0.670
1815,-0.960,-0.665
1816,-0.925,-0.675
1817,-0.900,-0.675
1818,-0.860,-0.670
1819,-0.790,-0.650
1820,-0.705,-0.590
1821,-0.605,-0.500
1822,-0.495,-0.350
1823,-0.355,-0.165
1824,-0.230,0.050
1825,-0.145,0.300
1826,-0.110,0.565
1827,-0.180,0.775
1828,-0.310,0.925
1829,-0.530,0.970
1830,-0.770,0.875
1831,-1.010,0.650
1832,-1.280,0.315
1833,-1.495,-0.065
1834,-1.670,-0.455
1835,-1.710,-0.785
1836,-1.695,-0.995
1837,-1.600,-1.050
1838,-1.490,-0.990
1839,-1.380,-0.885
1840,-1.255,-0.765
1841,-1.155,-0.725
1842,-1.095,-0.675
1843,-1.015,-0.660
1844,-0.960,-0.645
1845,-0.900,-0.645
1846,-0.890,-0.640
1847,-0.875,-0.645
1848,-0.875,-0.645
1849,-0.885,-0.640
1850,-0.900,-0.655
1851,-0.915,-0.640
1852,-0.905,-0.635
1853,-0.880,-0.630
1854,-0.850,-0.625
1855,-0.840,-0.625
1856,-0.835,-0.625
1857,-0.845,-0.625
1858,-0.835,-0.625
1859,-0.825,-0.635
1860,-0.845,-0.625
1861,-0.835,-0.620
1862,-0.850,-0.615
1863,-0.840,-0.595
1864,-0.840,-0.575
1865,-0.825,-0.575
1866,-0.830,-0.560
1867,-0.815,-0.580
1868,-0.805,-0.570
1869,-0.820,-0.575
1870,-0.815,-0.600
1871,-0.820,-0.600
1872,-0.825,-0.590
1873,-0.830,-0.595
1874,-0.820,-0.585
1875,-0.805,-0.565
1876,-0.790,-0.535
1877,-0.785,-0.545
1878,-0.770,-0.520
1879,-0.775,-0.510
1880,-0.765,-0.515
1881,-0.765,-0.515
1882,-0.770,-0.535
1883,-0.765,-0.530
1884,-0.795,-0.540
1885,-0.790,-0.530
1886,-0.795,-0.545
1887,-0.795,-0.500
1888,-0.765,-0.490
1889,-0.750,-0.495
1890,-0.755,-0.465
1891,-0.730,-0.490
1892,-0.735,-0.475
1893,-0.725,-0.475
1894,-0.720,-0.465
1895,-0.725,-0.490
1896,-0.730,-0.475
1897,-0.730,-0.480
1898,-0.725,-0.460
1899,-0.735,-0.445
1900,-0.705,-0.420
1901,-0.685,-0.395
1902,-0.675,-0.370
1903,-0.650,-0.370
1904,-0.635,-0.370
1905,-0.635,-0.350
1906,-0.625,-0.360
1907,-0.625,-0.345
1908,-0.610,-0.325
1909,-0.615,-0.320
1910,-0.600,-0.305
1911,-0.575,-0.280
1912,-0.560,-0.250
1913,-0.545,-0.235
1914,-0.525,-0.200
1915,-0.485,-0.195
1916,-0.475,-0.170
1917,-0.460,-0.150
1918,-0.425,-0.150
1919,-0.425,-0.140
1920,-0.405,-0.140
1921,-0.430,-0.105
1922,-0.395,-0.090
1923,-0.375,-0.070
1924,-0.365,-0.035
1925,-0.345,-0.015
1926,-0.295,0.005
1927,-0.265,0.045
1928,-0.255,0.055
1929,-0.245,0.050
1930,-0.250,0.050
1931,-0.260,0.075
1932,-0.260,0.075
1933,-0.270,0.080
1934,-0.260,0.090
1935,-0.260,0.110
1936,-0.255,0.100
1937,-0.260,0.110
1938,-0.270,0.110
1939,-0.260,0.090
1940,-0.265,0.075
1941,-0.290,0.055
1942,-0.320,0.000
1943,-0.345,-0.030
1944,-0.390,-0.065
1945,-0.405,-0.095
1946,-0.455,-0.120
1947,-0.490,-0.165
1948,-0.510,-0.185
1949,-0.530,-0.220
1950,-0.570,-0.260
1951,-0.600,-0.310
1952,-0.620,-0.330
1953,-0.650,-0.385
1954,-0.690,-0.430
1955,-0.715,-0.465
1956,-0.755,-0.490
1957,-0.765,-0.520
1958,-0.790,-0.545
1959,-0.810,-0.565
1960,-0.815,-0.555
1961,-0.820,-0.560
1962,-0.810,-0.565
1963,-0.820,-0.550
1964,-0.840,-0.575
1965,-0.855,-0.595
1966,-0.860,-0.590
1967,-0.880,-0.610
1968,-0.885,-0.620
1969,-0.890,-0.630
1970,-0.895,-0.630
1971,-0.895,-0.630
1972,-0.895,-0.630
1973,-0.890,-0.630
1974,-0.880,-0.625
1975,-0.885,-0.630
1976,-0.885,-0.650
1977,-0.870,-0.660
1978,-0.880,-0.660
1979,-0.895,-0.670
1980,-0.900,-0.670
1981,-0.890,-0.685
1982,-0.905,-0.665
1983,-0.915,-0.670
1984,-0.915,-0.645
1985,-0.885,-0.630
1986,-0.895,-0.625
1987,-0.875,-0.630
1988,-0.900,-0.645
1989,-0.915,-0.635
1990,-0.910,-0.660
1991,-0.910,-0.685
1992,-0.905,-0.650
1993,-0.910,-0.665
1994,-0.910,-0.640
1995,-0.925,-0.645
1996,-0.910,-0.630
1997,-0.895,-0.630
1998,-0.895,-0.610
1999,-0.890,-0.620
2000,-0.880,-0.620
2001,-0.895,-0.615
2002,-0.890,-0.615
2003,-0.900,-0.615
2004,-0.905,-0.635
2005,-0.915,-0.635
2006,-0.925,-0.635
2007,-0.925,-0.625
2008,-0.910,-0.620
2009,-0.895,-0.590
2010,-0.895,-0.590
2011,-0.870,-0.585
2012,-0.885,-0.590
2013,-0.885,-0.585
2014,-0.905,-0.595
2015,-0.920,-0.620
2016,-0.930,-0.640
2017,-0.920,-0.635
2018,-0.935,-0.615
2019,-0.945,-0.635
2020,-0.935,-0.610
2021,-0.955,-0.615
2022,-0.930,-0.615
2023,-0.920,-0.590
2024,-0.930,-0.610
2025,-0.945,-0.615
2026,-0.950,-0.640
2027,-0.960,-0.650
2028,-0.980,-0.655
2029,-0.975,-0.665
2030,-0.975,-0.645
2031,-0.990,-0.650
2032,-0.970,-0.650
2033,-0.965,-0.635
2034,-0.960,-0.630
2035,-0.945,-0.640
2036,-0.955,-0.635
2037,-0.950,-0.635
2038,-0.985,-0.665
2039,-1.000,-0.680
2040,-1.015,-0.685
2041,-1.000,-0.680
2042,-1.000,-0.675
2043,-0.990,-0.670
2044,-0.995,-0.660
2045,-0.980,-0.640
2046,-0.975,-0.635
2047,-0.970,-0.645
2048,-0.960,-0.645
2049,-0.965,-0.665
2050,-0.985,-0.665
2051,-1.000,-0.690
2052,-1.005,-0.690
2053,-1.010,-0.690
2054,-1.015,-0.680
2055,-1.015,-0.680
2056,-1.010,-0.670
2057,-1.000,-0.650
2058,-0.990,-0.655
2059,-0.990,-0.645
2060,-0.980,-0.660
2061,-0.975,-0.670
2062,-0.985,-0.665
2063,-0.980,-0.680
2064,-0.995,-0.700
2065,-1.005,-0.700
2066,-1.025,-0.695
2067,-1.025,-0.705
2068,-1.005,-0.685
2069,-1.010,-0.680
2070,-0.990,-0.660
2071,-0.990,-0.655
2072,-0.980,-0.665
2073,-1.000,-0.665
2074,-1.005,-0.680
2075,-1.015,-0.695
2076,-1.030,-0.710
2077,-1.025,-0.700
2078,-1.020,-0.690
2079,-1.025,-0.700
2080,-1.010,-0.680
2081,-1.010,-0.680
2082,-0.995,-0.665
2083,-1.000,-0.660
2084,-1.020,-0.665
2085,-1.020,-0.690
2086,-1.035,-0.690
2087,-1.025,-0.695
2088,-1.030,-0.705
2089,-1.055,-0.720
2090,-1.055,-0.705
2091,-1.055,-0.705
2092,-1.035,-0.680
2093,-1.010,-0.675
2094,-1.005,-0.655
2095,-1.000,-0.640
2096,-1.010,-0.650
2097,-1.000,-0.670
2098,-1.005,-0.685
2099,-1.030,-0.675
2100,-1.025,-0.685
2101,-1.035,-0.685
2102,-1.035,-0.690
2103,-1.030,-0.675
2104,-1.025,-0.675
2105,-1.025,-0.655
2106,-1.015,-0.665
2107,-1.020,-0.675
2108,-1.020,-0.680
2109,-1.010,-0.690
2110,-1.015,-0.695
2111,-1.035,-0.695
2112,-1.045,-0.720
2113,-1.040,-0.710
2114,-1.030,-0.705
2115,-1.040,-0.700
2116,-1.040,-0.695
2117,-1.030,-0.675
2118,-1.020,-0.670
2119,-1.010,-0.670
2120,-0.995,-0.665
2121,-1.000,-0.690
2122,-1.005,-0.695
2123,-1.035,-0.715
2124,-1.060,-0.710
2125,-1.045,-0.710
2126,-1.045,-0.700
2127,-1.040,-0.695
2128,-1.025,-0.690
2129,-1.030,-0.680
2130,-1.010,-0.665
2131,-1.000,-0.680
2132,-1.005,-0.670
2133,-1.015,-0.675
2134,-1.005,-0.660
2135,-1.020,-0.680
2136,-1.025,-0.695
2137,-1.015,-0.685
2138,-1.030,-0.680
2139,-1.020,-0.675
2140,-1.025,-0.660
2141,-1.020,-0.650
2142,-1.025,-0.655
2143,-1.000,-0.650
2144,-1.010,-0.630
2145,-1.010,-0.640
2146,-0.995,-0.675
2147,-1.005,-0.660
2148,-1.010,-0.650
2149,-1.010,-0.655
2150,-1.025,-0.670
2151,-1.030,-0.650
2152,-1.015,-0.650
2153,-1.020,-0.630
2154,-1.005,-0.630
2155,-0.990,-0.635
2156,-0.995,-0.630
2157,-0.985,-0.640
2158,-1.010,-0.635
2159,-1.005,-0.660
2160,-1.005,-0.675
2161,-1.020,-0.665
2162,-1.030,-0.670
2163,-1.015,-0.650
2164,-1.005,-0.645
2165,-0.990,-0.625
2166,-0.970,-0.620
2167,-0.970,-0.610
2168,-0.965,-0.630
2169,-0.970,-0.620
2170,-0.940,-0.650
2171,-0.925,-0.645
2172,-0.925,-0.675
2173,-0.930,-0.680
2174,-0.940,-0.680
2175,-0.940,-0.665
2176,-0.935,-0.645
2177,-0.915,-0.625
2178,-0.895,-0.585
2179,-0.870,-0.585
2180,-0.860,-0.590
2181,-0.830,-0.565
2182,-0.840,-0.565
2183,-0.840,-0.560
2184,-0.845,-0.555
2185,-0.840,-0.540
2186,-0.855,-0.510
2187,-0.865,-0.500
2188,-0.870,-0.490
2189,-0.865,-0.470
2190,-0.860,-0.475
2191,-0.865,-0.480
2192,-0.875,-0.490
2193,-0.875,-0.515
2194,-0.895,-0.490
2195,-0.930,-0.530
2196,-0.960,-0.530
2197,-1.005,-0.550
2198,-1.010,-0.550
2199,-1.015,-0.575
2200,-1.040,-0.560
2201,-1.025,-0.565
2202,-1.010,-0.590
2203,-1.015,-0.605
2204,-1.005,-0.610
2205,-1.010,-0.630
2206,-1.015,-0.645
2207,-1.030,-0.645
2208,-1.040,-0.660
2209,-1.045,-0.655
2210,-1.060,-0.655
2211,-1.060,-0.660
2212,-1.065,-0.655
2213,-1.065,-0.650
2214,-1.045,-0.630
2215,-1.030,-0.635
2216,-1.030,-0.620
2217,-1.015,-0.635
2218,-1.020,-0.640
2219,-1.030,-0.660
2220,-1.030,-0.665
2221,-1.030,-0.670
2222,-1.040,-0.665
2223,-1.040,-0.660
2224,-1.035,-0.640
2225,-1.025,-0.615
2226,-1.015,-0.620
2227,-1.000,-0.600
2228,-0.985,-0.630
2229,-0.995,-0.630
2230,-0.975,-0.635
2231,-0.960,-0.650
2232,-0.885,-0.615
2233,-0.800,-0.565
2234,-0.710,-0.465
2235,-0.600,-0.300
2236,-0.445,-0.075
2237,-0.300,0.170
2238,-0.180,0.430
2239,-0.130,0.680
2240,-0.195,0.885
2241,-0.360,1.020
2242,-0.600,1.030
2243,-0.885,0.935
2244,-1.185,0.695
2245,-1.455,0.355
2246,-1.700,-0.060
2247,-1.860,-0.500
2248,-1.920,-0.885
2249,-1.875,-1.145
2250,-1.760,-1.210
2251,-1.620,-1.125
2252,-1.505,-0.995
2253,-1.415,-0.885
2254,-1.340,-0.805
2255,-1.290,-0.785
2256,-1.230,-0.760
2257,-1.165,-0.735
2258,-1.095,-0.700
2259,-1.040,-0.655
2260,-0.990,-0.630
2261,-0.960,-0.620
2262,-0.945,-0.600
2263,-0.935,-0.605
2264,-0.940,-0.605
2265,-0.940,-0.625
2266,-0.945,-0.625
2267,-0.935,-0.625
2268,-0.945,-0.635
2269,-0.930,-0.625
2270,-0.935,-0.610
2271,-0.930,-0.620
2272,-0.910,-0.585
2273,-0.890,-0.585
2274,-0.885,-0.565
2275,-0.870,-0.565
2276,-0.885,-0.575
2277,-0.875,-0.570
2278,-0.875,-0.575
2279,-0.880,-0.585
2280,-0.885,-0.580
2281,-0.880,-0.575
2282,-0.890,-0.570
2283,-0.875,-0.560
2284,-0.870,-0.550
2285,-0.855,-0.550
2286,-0.845,-0.530
2287,-0.820,-0.545
2288,-0.825,-0.525
2289,-0.815,-0.515
2290,-0.830,-0.520
2291,-0.835,-0.540
2292,-0.865,-0.535
2293,-0.860,-0.545
2294,-0.845,-0.510
2295,-0.845,-0.515
2296,-0.830,-0.510
2297,-0.815,-0.485
2298,-0.795,-0.470
2299,-0.805,-0.465
2300,-0.800,-0.460
2301,-0.790,-0.470
2302,-0.775,-0.465
2303,-0.780,-0.470
2304,-0.775,-0.465
2305,-0.775,-0.460
2306,-0.785,-0.445
2307,-0.770,-0.440
2308,-0.745,-0.420
2309,-0.740,-0.400
2310,-0.715,-0.390
2311,-0.705,-0.395
2312,-0.700,-0.390
2313,-0.700,-0.365
2314,-0.685,-0.375
2315,-0.695,-0.355
2316,-0.690,-0.360
2317,-0.665,-0.355
2318,-0.650,-0.335
2319,-0.645,-0.310
2320,-0.620,-0.275
2321,-0.605,-0.260
2322,-0.585,-0.245
2323,-0.555,-0.230
2324,-0.540,-0.205
2325,-0.520,-0.205
2326,-0.495,-0.195
2327,-0.485,-0.190
2328,-0.495,-0.190
2329,-0.475,-0.180
2330,-0.480,-0.150
2331,-0.455,-0.130
2332,-0.420,-0.090
2333,-0.400,-0.090
2334,-0.390,-0.030
2335,-0.365,-0.035
2336,-0.375,-0.015
2337,-0.355,-0.025
2338,-0.365,0.000
2339,-0.335,0.005
2340,-0.325,-0.005
2341,-0.320,0.015
2342,-0.305,0.030
2343,-0.310,0.040
2344,-0.295,0.050
2345,-0.295,0.070
2346,-0.295,0.080
2347,-0.285,0.095
2348,-0.280,0.090
2349,-0.300,0.075
2350,-0.305,0.070
2351,-0.320,0.060
2352,-0.305,0.035
2353,-0.335,0.030
2354,-0.340,0.025
2355,-0.350,0.010
2356,-0.365,0.005
2357,-0.370,-0.020
2358,-0.380,-0.055
2359,-0.390,-0.085
2360,-0.415,-0.125
2361,-0.460,-0.150
2362,-0.500,-0.195
2363,-0.550,-0.230
2364,-0.565,-0.285
2365,-0.595,-0.320
2366,-0.620,-0.350
2367,-0.655,-0.375
2368,-0.680,-0.385
2369,-0.685,-0.410
2370,-0.700,-0.445
2371,-0.725,-0.480
2372,-0.755,-0.490
2373,-0.775,-0.510
2374,-0.800,-0.565
2375,-0.825,-0.580
2376,-0.835,-0.620
2377,-0.845,-0.620
2378,-0.865,-0.645
2379,-0.860,-0.640
2380,-0.865,-0.630
2381,-0.875,-0.640
2382,-0.880,-0.645
2383,-0.865,-0.655
2384,-0.880,-0.665
2385,-0.900,-0.670
2386,-0.905,-0.700
2387,-0.915,-0.700
2388,-0.910,-0.725
2389,-0.920,-0.720
2390,-0.920,-0.725
2391,-0.915,-0.705
2392,-0.900,-0.710
2393,-0.900,-0.705
2394,-0.895,-0.695
2395,-0.890,-0.695
2396,-0.895,-0.695
2397,-0.895,-0.695
2398,-0.900,-0.720
2399,-0.900,-0.715
2400,-0.910,-0.740
2401,-0.915,-0.745
2402,-0.925,-0.745
2403,-0.910,-0.735
2404,-0.915,-0.715
2405,-0.900,-0.715
2406,-0.885,-0.705
2407,-0.865,-0.685
2408,-0.875,-0.695
2409,-0.875,-0.690
2410,-0.885,-0.705
2411,-0.900,-0.710
2412,-0.900,-0.725
2413,-0.900,-0.725
2414,-0.910,-0.700
2415,-0.925,-0.710
2416,-0.890,-0.695
2417,-0.895,-0.685
2418,-0.875,-0.685
2419,-0.885,-0.670
2420,-0.890,-0.680
2421,-0.895,-0.675
2422,-0.890,-0.695
2423,-0.900,-0.695
2424,-0.910,-0.705
2425,-0.915,-0.700
2426,-0.930,-0.705
2427,-0.905,-0.680
2428,-0.915,-0.685
2429,-0.900,-0.665
2430,-0.895,-0.660
2431,-0.890,-0.665
2432,-0.890,-0.670
2433,-0.895,-0.675
2434,-0.900,-0.680
2435,-0.930,-0.690
2436,-0.935,-0.700
2437,-0.945,-0.705
2438,-0.950,-0.700
2439,-0.965,-0.705
2440,-0.960,-0.700
2441,-0.950,-0.680
2442,-0.935,-0.670
2443,-0.905,-0.675
2444,-0.920,-0.675
2445,-0.920,-0.695
2446,-0.930,-0.710
2447,-0.950,-0.730
2448,-0.950,-0.730
2449,-0.965,-0.725
2450,-0.980,-0.735
2451,-0.965,-0.740
2452,-0.960,-0.720
2453,-0.965,-0.730
2454,-0.940,-0.720
2455,-0.940,-0.725
2456,-0.945,-0.730
2457,-0.940,-0.740
2458,-0.950,-0.750
2459,-0.970,-0.760
2460,-0.970,-0.760
2461,-0.980,-0.770
2462,-0.990,-0.770
2463,-0.980,-0.750
2464,-0.970,-0.740
2465,-0.970,-0.750
2466,-0.960,-0.730
2467,-0.950,-0.740
2468,-0.955,-0.735
2469,-0.955,-0.735
2470,-0.975,-0.755
2471,-0.990,-0.780
2472,-0.990,-0.775
2473,-0.995,-0.775
2474,-0.995,-0.770
2475,-0.990,-0.785
2476,-0.990,-0.780
2477,-0.980,-0.755
2478,-0.980,-0.760
2479,-0.980,-0.765
2480,-0.970,-0.765
2481,-0.965,-0.760
2482,-0.970,-0.770
2483,-0.980,-0.790
2484,-0.990,-0.795
2485,-0.980,-0.800
2486,-0.985,-0.785
2487,-1.000,-0.790
2488,-1.010,-0.775
2489,-0.985,-0.745
2490,-0.975,-0.765
2491,-0.970,-0.745
2492,-0.975,-0.755
2493,-0.980,-0.755
2494,-0.995,-0.770
2495,-0.990,-0.780
2496,-1.005,-0.775
2497,-0.990,-0.765
2498,-1.005,-0.750
2499,-1.010,-0.755
2500,-0.980,-0.740
2501,-0.980,-0.740
2502,-0.980,-0.700
2503,-0.965,-0.720
2504,-0.965,-0.700
2505,-0.970,-0.715
2506,-0.980,-0.735
2507,-0.980,-0.755
2508,-0.985,-0.750
2509,-0.980,-0.750
2510,-1.000,-0.740
2511,-0.990,-0.730
2512,-0.990,-0.745
2513,-0.985,-0.730
2514,-0.960,-0.705
2515,-0.945,-0.720
2516,-0.955,-0.710
2517,-0.975,-0.725
2518,-0.980,-0.740
2519,-0.975,-0.735
2520,-0.985,-0.750
2521,-0.990,-0.755
2522,-1.005,-0.740
2523,-1.010,-0.735
2524,-1.005,-0.720
2525,-0.990,-0.715
2526,-0.980,-0.715
2527,-0.970,-0.715
2528,-0.975,-0.710
2529,-0.995,-0.720
2530,-0.980,-0.735
2531,-0.980,-0.725
2532,-0.990,-0.750
2533,-0.995,-0.745
2534,-0.995,-0.730
2535,-0.990,-0.735
2536,-0.985,-0.725
2537,-0.980,-0.715
2538,-0.970,-0.710
2539,-0.965,-0.700
2540,-0.970,-0.710
2541,-0.985,-0.720
2542,-0.980,-0.720
2543,-0.990,-0.725
2544,-1.000,-0.740
2545,-1.000,-0.750
2546,-0.995,-0.725
2547,-0.995,-0.740
2548,-0.985,-0.730
2549,-0.965,-0.715
2550,-0.960,-0.715
2551,-0.945,-0.715
2552,-0.945,-0.720
2553,-0.950,-0.720
2554,-0.960,-0.720
2555,-0.965,-0.745
2556,-0.980,-0.760
2557,-0.975,-0.745
2558,-0.990,-0.740
2559,-0.980,-0.765
2560,-0.980,-0.740
2561,-0.985,-0.730
2562,-0.970,-0.725
2563,-0.980,-0.720
2564,-0.960,-0.725
2565,-0.960,-0.705
2566,-0.950,-0.725
2567,-0.975,-0.730
2568,-0.975,-0.745
2569,-0.980,-0.730
2570,-0.975,-0.720
2571,-0.985,-0.715
2572,-0.975,-0.705
2573,-0.960,-0.690
2574,-0.955,-0.690
2575,-0.955,-0.695
2576,-0.950,-0.690
2577,-0.955,-0.705
2578,-0.960,-0.720
2579,-0.965,-0.720
2580,-0.960,-0.730
2581,-0.970,-0.715
2582,-1.000,-0.715
2583,-0.985,-0.700
2584,-0.960,-0.695
2585,-0.955,-0.680
2586,-0.945,-0.680
2587,-0.940,-0.680
2588,-0.945,-0.690
2589,-0.930,-0.680
2590,-0.945,-0.705
2591,-0.965,-0.700
2592,-0.960,-0.705
2593,-0.965,-0.705
2594,-0.975,-0.700
2595,-0.955,-0.680
2596,-0.950,-0.670
2597,-0.935,-0.660
2598,-0.920,-0.650
2599,-0.900,-0.655
2600,-0.885,-0.650
2601,-0.870,-0.670
2602,-0.860,-0.675
2603,-0.860,-0.695
2604,-0.850,-0.715
2605,-0.860,-0.715
2606,-0.865,-0.695
2607,-0.870,-0.670
2608,-0.850,-0.640
2609,-0.845,-0.625
2610,-0.800,-0.595
2611,-0.780,-0.585
2612,-0.770,-0.585
2613,-0.780,-0.580
2614,-0.790,-0.580
2615,-0.780,-0.570
2616,-0.795,-0.560
2617,-0.795,-0.540
2618,-0.825,-0.535
2619,-0.840,-0.530
2620,-0.830,-0.515
2621,-0.825,-0.515
2622,-0.840,-0.505
2623,-0.835,-0.500
2624,-0.850,-0.525
2625,-0.855,-0.520
2626,-0.865,-0.540
2627,-0.890,-0.560
2628,-0.915,-0.585
2629,-0.935,-0.600
2630,-0.965,-0.620
2631,-0.965,-0.610
2632,-0.970,-0.620
2633,-0.970,-0.640
2634,-0.970,-0.630
2635,-0.950,-0.640
2636,-0.960,-0.665
2637,-0.945,-0.680
2638,-0.955,-0.675
2639,-0.965,-0.675
2640,-0.990,-0.700
2641,-1.010,-0.695
2642,-1.005,-0.695
2643,-1.010,-0.695
2644,-1.010,-0.680
2645,-1.010,-0.680
2646,-0.990,-0.665
2647,-0.980,-0.680
2648,-0.990,-0.680
2649,-0.965,-0.685
2650,-0.965,-0.700
2651,-0.975,-0.700
2652,-0.980,-0.705
2653,-0.985,-0.705
2654,-0.975,-0.710
2655,-0.965,-0.675
2656,-0.950,-0.670
2657,-0.955,-0.665
2658,-0.950,-0.645
2659,-0.930,-0.645
2660,-0.890,-0.670
2661,-0.870,-0.670
2662,-0.805,-0.640
2663,-0.725,-0.595
2664,-0.595,-0.470
2665,-0.465,-0.275
2666,-0.315,-0.025
2667,-0.165,0.265
2668,-0.090,0.560
2669,-0.090,0.825
2670,-0.205,1.020
2671,-0.400,1.135
2672,-0.645,1.050
2673,-0.925,0.835
2674,-1.200,0.500
2675,-1.455,0.130
2676,-1.645,-0.280
2677,-1.715,-0.630
2678,-1.695,-0.860
2679,-1.600,-0.950
2680,-1.475,-0.885
2681,-1.345,-0.795
2682,-1.240,-0.690
2683,-1.150,-0.640
2684,-1.075,-0.630
2685,-1.015,-0.605
2686,-0.955,-0.620
2687,-0.925,-0.625
2688,-0.910,-0.625
2689,-0.900,-0.635
2690,-0.920,-0.650
2691,-0.915,-0.620
2692,-0.910,-0.625
2693,-0.910,-0.615
2694,-0.905,-0.620
2695,-0.885,-0.615
2696,-0.875,-0.615
2697,-0.865,-0.625
2698,-0.870,-0.605
2699,-0.865,-0.635
2700,-0.880,-0.630
2701,-0.885,-0.635
2702,-0.880,-0.615
2703,-0.875,-0.610
2704,-0.865,-0.605
2705,-0.855,-0.595
2706,-0.850,-0.575
2707,-0.825,-0.545
2708,-0.835,-0.570
2709,-0.845,-0.580
2710,-0.850,-0.575
2711,-0.835,-0.575
2712,-0.840,-0.585
2713,-0.840,-0.580
2714,-0.840,-0.590
2715,-0.855,-0.565
2716,-0.830,-0.545
2717,-0.820,-0.525
2718,-0.810,-0.520
2719,-0.805,-0.525
2720,-0.810,-0.510
2721,-0.795,-0.515
2722,-0.805,-0.525
2723,-0.800,-0.545
2724,-0.790,-0.530
2725,-0.800,-0.540
2726,-0.790,-0.525
2727,-0.800,-0.505
2728,-0.775,-0.480
2729,-0.770,-0.470
2730,-0.760,-0.465
2731,-0.740,-0.465
2732,-0.740,-0.455
2733,-0.745,-0.455
2734,-0.755,-0.460
2735,-0.740,-0.460
2736,-0.735,-0.455
2737,-0.735,-0.455
2738,-0.735,-0.440
2739,-0.725,-0.420
2740,-0.690,-0.395
2741,-0.685,-0.400
2742,-0.675,-0.370
2743,-0.660,-0.360
2744,-0.635,-0.340
2745,-0.620,-0.350
2746,-0.615,-0.335
2747,-0.615,-0.325
2748,-0.610,-0.330
2749,-0.595,-0.325
2750,-0.585,-0.285
2751,-0.580,-0.275
2752,-0.545,-0.255
2753,-0.510,-0.225
2754,-0.485,-0.215
2755,-0.470,-0.195
2756,-0.465,-0.175
2757,-0.460,-0.155
2758,-0.445,-0.145
2759,-0.415,-0.140
2760,-0.405,-0.120
2761,-0.400,-0.125
2762,-0.385,-0.100
2763,-0.360,-0.075
2764,-0.350,-0.045
2765,-0.320,-0.020
2766,-0.305,0.010
2767,-0.270,0.025
2768,-0.255,0.035
2769,-0.240,0.040
2770,-0.235,0.055
2771,-0.235,0.055
2772,-0.245,0.040
2773,-0.230,0.035
2774,-0.230,0.060
2775,-0.230,0.075
2776,-0.220,0.080
2777,-0.205,0.125
2778,-0.210,0.150
2779,-0.200,0.140
2780,-0.215,0.110
2781,-0.220,0.105
2782,-0.235,0.075
2783,-0.255,0.065
2784,-0.305,0.025
2785,-0.320,0.000
2786,-0.360,-0.030
2787,-0.390,-0.045
2788,-0.405,-0.080
2789,-0.445,-0.110
2790,-0.455,-0.120
2791,-0.470,-0.165
2792,-0.500,-0.200
2793,-0.550,-0.230
2794,-0.575,-0.290
2795,-0.620,-0.330
2796,-0.675,-0.365
2797,-0.675,-0.395
2798,-0.710,-0.430
2799,-0.750,-0.445
2800,-0.760,-0.455
2801,-0.765,-0.470
2802,-0.780,-0.470
2803,-0.785,-0.495
2804,-0.800,-0.515
2805,-0.815,-0.540
2806,-0.840,-0.560
2807,-0.835,-0.580
2808,-0.865,-0.595
2809,-0.890,-0.605
2810,-0.905,-0.605
2811,-0.895,-0.600
2812,-0.885,-0.605
2813,-0.885,-0.600
2814,-0.885,-0.590
2815,-0.870,-0.605
2816,-0.885,-0.605
2817,-0.885,-0.615
2818,-0.885,-0.625
2819,-0.900,-0.625
2820,-0.910,-0.655
2821,-0.925,-0.655
2822,-0.900,-0.650
2823,-0.905,-0.650
2824,-0.900,-0.630
2825,-0.895,-0.640
2826,-0.890,-0.630
2827,-0.875,-0.615
2828,-0.875,-0.640
2829,-0.895,-0.635
2830,-0.895,-0.635
2831,-0.900,-0.635
2832,-0.910,-0.660
2833,-0.905,-0.665
2834,-0.920,-0.645
2835,-0.915,-0.655
2836,-0.900,-0.645
2837,-0.895,-0.625
2838,-0.885,-0.620
2839,-0.865,-0.615
2840,-0.875,-0.620
2841,-0.865,-0.625
2842,-0.860,-0.640
2843,-0.880,-0.640
2844,-0.875,-0.650
2845,-0.895,-0.645
2846,-0.895,-0.635
2847,-0.885,-0.650
2848,-0.890,-0.615
2849,-0.870,-0.605
2850,-0.870,-0.590
2851,-0.850,-0.600
2852,-0.860,-0.595
2853,-0.875,-0.600
2854,-0.875,-0.600
2855,-0.875,-0.625
2856,-0.905,-0.620
2857,-0.890,-0.635
2858,-0.910,-0.630
2859,-0.910,-0.630
2860,-0.910,-0.620
2861,-0.890,-0.635
2862,-0.890,-0.605
2863,-0.890,-0.600
2864,-0.885,-0.615
2865,-0.885,-0.605
2866,-0.895,-0.630
2867,-0.900,-0.635
2868,-0.930,-0.655
2869,-0.945,-0.650
2870,-0.950,-0.650
2871,-0.950,-0.640
2872,-0.945,-0.635
2873,-0.940,-0.630
2874,-0.925,-0.620
2875,-0.910,-0.610
2876,-0.905,-0.630
2877,-0.935,-0.635
2878,-0.935,-0.655
2879,-0.945,-0.650
2880,-0.965,-0.675
2881,-0.965,-0.685
2882,-0.965,-0.670
2883,-0.965,-0.650
2884,-0.955,-0.650
2885,-0.955,-0.635
2886,-0.950,-0.645
2887,-0.940,-0.640
2888,-0.930,-0.635
2889,-0.940,-0.650
2890,-0.945,-0.670
2891,-0.960,-0.680
2892,-0.955,-0.680
2893,-0.960,-0.690
2894,-0.960,-0.705
2895,-0.960,-0.670
2896,-0.970,-0.665
2897,-0.955,-0.640
2898,-0.960,-0.655
2899,-0.940,-0.645
2900,-0.940,-0.650
2901,-0.930,-0.655
2902,-0.940,-0.670
2903,-0.950,-0.685
2904,-0.975,-0.680
2905,-0.975,-0.700
2906,-0.980,-0.680
2907,-0.970,-0.665
2908,-0.960,-0.665
2909,-0.950,-0.660
2910,-0.935,-0.655
2911,-0.930,-0.630
2912,-0.925,-0.645
2913,-0.925,-0.650
2914,-0.940,-0.660
2915,-0.950,-0.670
2916,-0.945,-0.675
2917,-0.955,-0.680
2918,-0.960,-0.675
2919,-0.960,-0.650
2920,-0.950,-0.640
2921,-0.950,-0.645
2922,-0.950,-0.620
2923,-0.940,-0.635
2924,-0.945,-0.630
2925,-0.950,-0.650
2926,-0.945,-0.655
2927,-0.950,-0.675
2928,-0.955,-0.680
2929,-0.955,-0.670
2930,-0.965,-0.650
2931,-0.960,-0.665
2932,-0.965,-0.650
2933,-0.960,-0.645
2934,-0.950,-0.650
2935,-0.940,-0.625
2936,-0.940,-0.635
2937,-0.945,-0.640
2938,-0.945,-0.655
2939,-0.955,-0.675
2940,-0.960,-0.685
2941,-0.970,-0.690
2942,-0.975,-0.700
2943,-0.955,-0.680
2944,-0.955,-0.665
2945,-0.950,-0.665
2946,-0.945,-0.650
2947,-0.940,-0.655
2948,-0.940,-0.650
2949,-0.940,-0.655
2950,-0.940,-0.680
2951,-0.935,-0.665
2952,-0.970,-0.675
2953,-0.960,-0.680
2954,-0.960,-0.680
2955,-0.960,-0.650
2956,-0.965,-0.650
2957,-0.960,-0.640
2958,-0.935,-0.650
2959,-0.935,-0.630
2960,-0.935,-0.630
2961,-0.930,-0.650
2962,-0.925,-0.655
2963,-0.935,-0.675
2964,-0.940,-0.660
2965,-0.960,-0.675
2966,-0.970,-0.670
2967,-0.970,-0.660
2968,-0.940,-0.655
2969,-0.940,-0.655
2970,-0.935,-0.645
2971,-0.920,-0.645
2972,-0.915,-0.640
2973,-0.920,-0.635
2974,-0.930,-0.650
2975,-0.945,-0.670
2976,-0.955,-0.670
2977,-0.930,-0.675
2978,-0.945,-0.670
2979,-0.955,-0.655
2980,-0.940,-0.645
2981,-0.935,-0.640
2982,-0.920,-0.640
2983,-0.905,-0.635
2984,-0.925,-0.615
2985,-0.940,-0.625
2986,-0.925,-0.625
2987,-0.930,-0.645
2988,-0.940,-0.655
2989,-0.940,-0.660
2990,-0.960,-0.645
2991,-0.965,-0.640
2992,-0.950,-0.645
2993,-0.925,-0.625
2994,-0.930,-0.620
2995,-0.915,-0.630
2996,-0.920,-0.635
2997,-0.930,-0.635
2998,-0.925,-0.645
2999,-0.945,-0.660
3000,-0.935,-0.645
3001,-0.935,-0.640
3002,-0.950,-0.650
3003,-0.950,-0.640
3004,-0.945,-0.620
3005,-0.935,-0.625
3006,-0.910,-0.615
3007,-0.910,-0.610
3008,-0.915,-0.625
3009,-0.920,-0.625
3010,-0.915,-0.630
3011,-0.930,-0.640
3012,-0.925,-0.650
3013,-0.935,-0.645
3014,-0.935,-0.630
3015,-0.945,-0.625
3016,-0.940,-0.625
3017,-0.925,-0.610
3018,-0.920,-0.620
3019,-0.905,-0.605
3020,-0.910,-0.600
3021,-0.930,-0.610
3022,-0.910,-0.610
3023,-0.920,-0.625
3024,-0.935,-0.645
3025,-0.925,-0.650
3026,-0.910,-0.625
3027,-0.905,-0.620
3028,-0.880,-0.625
3029,-0.865,-0.620
3030,-0.835,-0.620
3031,-0.820,-0.605
3032,-0.820,-0.610
3033,-0.810,-0.600
3034,-0.825,-0.595
3035,-0.820,-0.590
3036,-0.815,-0.590
3037,-0.810,-0.585
3038,-0.785,-0.565
3039,-0.765,-0.540
3040,-0.760,-0.530
3041,-0.755,-0.515
3042,-0.755,-0.480
3043,-0.755,-0.455
3044,-0.740,-0.440
3045,-0.755,-0.440
3046,-0.770,-0.435
3047,-0.790,-0.460
3048,-0.805,-0.470
3049,-0.830,-0.470
3050,-0.845,-0.470
3051,-0.840,-0.485
3052,-0.850,-0.455
3053,-0.865,-0.455
3054,-0.870,-0.460
3055,-0.895,-0.450
3056,-0.900,-0.490
3057,-0.895,-0.520
3058,-0.915,-0.540
3059,-0.925,-0.565
3060,-0.935,-0.575
3061,-0.960,-0.600
3062,-0.965,-0.610
3063,-0.950,-0.595
3064,-0.955,-0.590
3065,-0.955,-0.590
3066,-0.940,-0.580
3067,-0.960,-0.590
3068,-0.970,-0.600
3069,-0.970,-0.605
3070,-0.955,-0.615
3071,-0.970,-0.620
3072,-0.975,-0.635
3073,-0.980,-0.645
3074,-0.985,-0.645
3075,-0.990,-0.640
3076,-0.975,-0.635
3077,-0.965,-0.625
3078,-0.965,-0.615
3079,-0.945,-0.625
3080,-0.925,-0.630
3081,-0.920,-0.620
3082,-0.925,-0.645
3083,-0.925,-0.650
3084,-0.945,-0.635
3085,-0.955,-0.635
3086,-0.940,-0.630
3087,-0.930,-0.620
3088,-0.890,-0.605
3089,-0.810,-0.570
3090,-0.735,-0.510
3091,-0.630,-0.410
3092,-0.500,-0.250
3093,-0.355,-0.045
3094,-0.235,0.200
3095,-0.130,0.460
3096,-0.120,0.705
3097,-0.205,0.885
3098,-0.385,1.000
3099,-0.640,0.985
3100,-0.925,0.815
3101,-1.205,0.540
3102,-1.480,0.155
3103,-1.665,-0.275
3104,-1.760,-0.670
3105,-1.750,-0.960
3106,-1.670,-1.065
3107,-1.545,-1.040
3108,-1.430,-0.935
3109,-1.320,-0.825
3110,-1.230,-0.745
3111,-1.130,-0.685
3112,-1.065,-0.635
3113,-0.985,-0.605
3114,-0.940,-0.575
3115,-0.905,-0.565
3116,-0.895,-0.560
3117,-0.895,-0.555
3118,-0.905,-0.555
3119,-0.915,-0.575
3120,-0.920,-0.575
3121,-0.925,-0.590
3122,-0.910,-0.580
3123,-0.905,-0.585
3124,-0.880,-0.560
3125,-0.865,-0.530
3126,-0.855,-0.525
3127,-0.835,-0.505
3128,-0.825,-0.525
3129,-0.845,-0.525
3130,-0.830,-0.535
3131,-0.845,-0.525
3132,-0.830,-0.540
3133,-0.840,-0.530
3134,-0.830,-0.515
3135,-0.840,-0.535
3136,-0.830,-0.505
3137,-0.820,-0.505
3138,-0.820,-0.485
3139,-0.820,-0.485
3140,-0.800,-0.480
3141,-0.800,-0.485
3142,-0.800,-0.500
3143,-0.790,-0.505
3144,-0.805,-0.505
3145,-0.800,-0.485
3146,-0.815,-0.485
3147,-0.800,-0.480
3148,-0.800,-0.460
3149,-0.795,-0.460
3150,-0.780,-0.455
3151,-0.770,-0.435
3152,-0.765,-0.445
3153,-0.770,-0.440
3154,-0.770,-0.440
3155,-0.775,-0.430
3156,-0.775,-0.450
3157,-0.770,-0.460
3158,-0.775,-0.430
3159,-0.765,-0.420
3160,-0.760,-0.400
3161,-0.735,-0.405
3162,-0.715,-0.385
3163,-0.710,-0.365
3164,-0.675,-0.335
3165,-0.680,-0.355
3166,-0.680,-0.340
3167,-0.675,-0.345
3168,-0.680,-0.355
3169,-0.670,-0.340
3170,-0.670,-0.330
3171,-0.645,-0.310
3172,-0.630,-0.285
3173,-0.610,-0.255
3174,-0.575,-0.240
3175,-0.560,-0.200
3176,-0.555,-0.190
3177,-0.525,-0.175
3178,-0.510,-0.175
3179,-0.510,-0.155
3180,-0.500,-0.155
3181,-0.490,-0.145
3182,-0.465,-0.110
3183,-0.445,-0.090
3184,-0.430,-0.055
3185,-0.400,-0.030
3186,-0.380,0.005
3187,-0.355,0.025
3188,-0.335,0.050
3189,-0.315,0.060
3190,-0.310,0.070
3191,-0.295,0.080
3192,-0.290,0.085
3193,-0.290,0.115
3194,-0.285,0.125
3195,-0.275,0.155
3196,-0.235,0.160
3197,-0.235,0.180
3198,-0.220,0.205
3199,-0.195,0.200
3200,-0.180,0.195
3201,-0.170,0.200
3202,-0.185,0.200
3203,-0.180,0.190
3204,-0.200,0.195
3205,-0.195,0.175
3206,-0.230,0.165
3207,-0.240,0.190
3208,-0.235,0.170
3209,-0.260,0.160
3210,-0.270,0.160
3211,-0.280,0.135
3212,-0.305,0.105
3213,-0.320,0.070
3214,-0.360,0.030
3215,-0.385,-0.025
3216,-0.420,-0.060
3217,-0.460,-0.095
3218,-0.505,-0.125
3219,-0.520,-0.160
3220,-0.555,-0.190
3221,-0.600,-0.210
3222,-0.620,-0.240
3223,-0.635,-0.280
3224,-0.670,-0.325
3225,-0.680,-0.360
3226,-0.710,-0.405
3227,-0.735,-0.405
3228,-0.750,-0.455
3229,-0.770,-0.455
3230,-0.820,-0.480
3231,-0.805,-0.485
3232,-0.810,-0.490
3233,-0.820,-0.500
3234,-0.830,-0.490
3235,-0.820,-0.480
3236,-0.825,-0.495
3237,-0.835,-0.520
3238,-0.855,-0.540
3239,-0.870,-0.565
3240,-0.865,-0.560
3241,-0.870,-0.585
3242,-0.885,-0.585
3243,-0.885,-0.590
3244,-0.885,-0.565
3245,-0.890,-0.570
3246,-0.885,-0.570
3247,-0.875,-0.545
3248,-0.865,-0.550
3249,-0.870,-0.580
3250,-0.865,-0.575
3251,-0.880,-0.610
3252,-0.890,-0.610
3253,-0.885,-0.595
3254,-0.885,-0.610
3255,-0.890,-0.595
3256,-0.890,-0.590
3257,-0.875,-0.565
3258,-0.870,-0.575
3259,-0.855,-0.565
3260,-0.850,-0.570
3261,-0.865,-0.555
3262,-0.870,-0.565
3263,-0.870,-0.560
3264,-0.865,-0.580
3265,-0.875,-0.555
3266,-0.875,-0.555
3267,-0.860,-0.550
3268,-0.860,-0.535
3269,-0.845,-0.540
3270,-0.850,-0.530
3271,-0.835,-0.525
3272,-0.845,-0.530
3273,-0.840,-0.540
3274,-0.855,-0.535
3275,-0.870,-0.550
3276,-0.870,-0.540
3277,-0.880,-0.550
3278,-0.880,-0.560
3279,-0.875,-0.520
3280,-0.865,-0.530
3281,-0.860,-0.525
3282,-0.850,-0.520
3283,-0.845,-0.510
3284,-0.850,-0.520
3285,-0.845,-0.520
3286,-0.865,-0.540
3287,-0.870,-0.555
3288,-0.885,-0.550
3289,-0.900,-0.555
3290,-0.915,-0.570
3291,-0.895,-0.575
3292,-0.900,-0.565
3293,-0.910,-0.550
3294,-0.905,-0.535
3295,-0.885,-0.535
3296,-0.900,-0.540
3297,-0.915,-0.540
3298,-0.895,-0.560
3299,-0.900,-0.575
3300,-0.915,-0.575
3301,-0.945,-0.570
3302,-0.930,-0.580
3303,-0.935,-0.580
3304,-0.935,-0.580
3305,-0.920,-0.570
3306,-0.915,-0.570
3307,-0.915,-0.550
3308,-0.910,-0.575
3309,-0.915,-0.585
3310,-0.910,-0.580
3311,-0.930,-0.580
3312,-0.945,-0.605
3313,-0.960,-0.605
3314,-0.950,-0.635
3315,-0.945,-0.590
3316,-0.930,-0.580
3317,-0.930,-0.585
3318,-0.915,-0.555
3319,-0.910,-0.550
3320,-0.900,-0.585
3321,-0.895,-0.580
3322,-0.905,-0.595
3323,-0.920,-0.595
3324,-0.935,-0.615
3325,-0.980,-0.600
3326,-0.955,-0.630
3327,-0.980,-0.610
3328,-0.965,-0.590
3329,-0.960,-0.580
3330,-0.960,-0.565
3331,-0.935,-0.560
3332,-0.940,-0.565
3333,-0.945,-0.565
3334,-0.930,-0.585
3335,-0.945,-0.590
3336,-0.965,-0.605
3337,-0.970,-0.605
3338,-0.955,-0.615
3339,-0.975,-0.600
3340,-0.950,-0.590
3341,-0.945,-0.590
3342,-0.930,-0.575
3343,-0.925,-0.575
3344,-0.920,-0.570
3345,-0.935,-0.590
3346,-0.945,-0.585
3347,-0.950,-0.590
3348,-0.950,-0.605
3349,-0.955,-0.600
3350,-0.965,-0.600
3351,-0.960,-0.595
3352,-0.955,-0.570
3353,-0.945,-0.580
3354,-0.930,-0.570
3355,-0.925,-0.560
3356,-0.930,-0.575
3357,-0.940,-0.560
3358,-0.960,-0.570
3359,-0.960,-0.585
3360,-0.950,-0.575
3361,-0.975,-0.600
3362,-0.970,-0.590
3363,-0.965,-0.600
3364,-0.965,-0.575
3365,-0.960,-0.585
3366,-0.960,-0.575
3367,-0.945,-0.555
3368,-0.940,-0.560
3369,-0.945,-0.565
3370,-0.935,-0.585
3371,-0.940,-0.580
3372,-0.955,-0.585
3373,-0.965,-0.600
3374,-0.970,-0.595
3375,-0.960,-0.600
3376,-0.950,-0.585
3377,-0.950,-0.575
3378,-0.935,-0.570
3379,-0.930,-0.565
3380,-0.935,-0.585
3381,-0.935,-0.570
3382,-0.945,-0.580
3383,-0.965,-0.595
3384,-0.945,-0.605
3385,-0.965,-0.605
3386,-0.970,-0.600
3387,-0.955,-0.590
3388,-0.950,-0.595
3389,-0.950,-0.575
3390,-0.935,-0.590
3391,-0.910,-0.575
3392,-0.910,-0.585
3393,-0.915,-0.580
3394,-0.925,-0.585
3395,-0.930,-0.590
3396,-0.935,-0.590
3397,-0.980,-0.595
3398,-0.965,-0.610
3399,-0.955,-0.590
3400,-0.965,-0.600
3401,-0.950,-0.585
3402,-0.950,-0.565
3403,-0.960,-0.560
3404,-0.940,-0.560
3405,-0.935,-0.570
3406,-0.940,-0.570
3407,-0.945,-0.570
3408,-0.935,-0.580
3409,-0.960,-0.585
3410,-0.960,-0.585
3411,-0.960,-0.590
3412,-0.960,-0.585
3413,-0.945,-0.570
3414,-0.935,-0.575
3415,-0.925,-0.565
3416,-0.920,-0.575
3417,-0.920,-0.575
3418,-0.925,-0.585
3419,-0.930,-0.595
3420,-0.935,-0.585
3421,-0.945,-0.600
3422,-0.950,-0.580
3423,-0.945,-0.590
3424,-0.945,-0.575
3425,-0.940,-0.580
3426,-0.930,-0.585
3427,-0.915,-0.545
3428,-0.915,-0.575
3429,-0.910,-0.560
3430,-0.920,-0.565
3431,-0.930,-0.590
3432,-0.945,-0.585
3433,-0.945,-0.600
3434,-0.950,-0.600
3435,-0.950,-0.575
3436,-0.940,-0.580
3437,-0.925,-0.570
3438,-0.920,-0.575
3439,-0.915,-0.570
3440,-0.920,-0.570
3441,-0.910,-0.570
3442,-0.910,-0.570
3443,-0.905,-0.585
3444,-0.925,-0.590
3445,-0.920,-0.590
3446,-0.920,-0.585
3447,-0.910,-0.595
3448,-0.905,-0.570
3449,-0.895,-0.570
3450,-0.870,-0.555
3451,-0.845,-0.565
3452,-0.840,-0.550
3453,-0.830,-0.565
3454,-0.825,-0.580
3455,-0.835,-0.590
3456,-0.840,-0.585
3457,-0.830,-0.570
3458,-0.830,-0.580
3459,-0.805,-0.555
3460,-0.780,-0.535
3461,-0.755,-0.530
3462,-0.740,-0.495
3463,-0.725,-0.470
3464,-0.720,-0.460
3465,-0.720,-0.465
3466,-0.730,-0.440
3467,-0.730,-0.425
3468,-0.755,-0.415
3469,-0.765,-0.420
3470,-0.800,-0.420
3471,-0.805,-0.415
3472,-0.800,-0.410
3473,-0.800,-0.405
3474,-0.805,-0.420
3475,-0.810,-0.410
3476,-0.840,-0.425
3477,-0.845,-0.430
3478,-0.875,-0.445
3479,-0.885,-0.470
3480,-0.895,-0.500
3481,-0.905,-0.535
3482,-0.900,-0.545
3483,-0.930,-0.535
3484,-0.925,-0.535
3485,-0.910,-0.535
3486,-0.910,-0.530
3487,-0.900,-0.525
3488,-0.885,-0.520
3489,-0.900,-0.525
3490,-0.915,-0.545
3491,-0.925,-0.550
3492,-0.930,-0.570
3493,-0.955,-0.570
3494,-0.945,-0.585
3495,-0.940,-0.570
3496,-0.925,-0.575
3497,-0.935,-0.565
3498,-0.905,-0.550
3499,-0.905,-0.555
3500,-0.895,-0.555
3501,-0.905,-0.555
3502,-0.900,-0.575
3503,-0.910,-0.575
3504,-0.925,-0.570
3505,-0.925,-0.580
3506,-0.930,-0.590
3507,-0.920,-0.570
3508,-0.915,-0.555
3509,-0.905,-0.550
3510,-0.885,-0.535
3511,-0.865,-0.530
3512,-0.850,-0.535
3513,-0.800,-0.550
3514,-0.750,-0.540
3515,-0.650,-0.495
3516,-0.560,-0.380
3517,-0.440,-0.215
3518,-0.300,0.000
3519,-0.155,0.250
3520,-0.030,0.545
3521,0.000,0.820
3522,-0.040,1.055
3523,-0.175,1.205
3524,-0.395,1.230
3525,-0.660,1.125
3526,-0.980,0.880
3527,-1.230,0.525
3528,-1.475,0.095
3529,-1.640,-0.335
3530,-1.695,-0.705
3531,-1.650,-0.930
3532,-1.570,-0.985
3533,-1.435,-0.935
3534,-1.315,-0.805
3535,-1.230,-0.720
3536,-1.155,-0.645
3537,-1.090,-0.625
3538,-1.030,-0.605
3539,-0.960,-0.590
3540,-0.910,-0.585
3541,-0.875,-0.555
3542,-0.855,-0.540
3543,-0.815,-0.550
3544,-0.830,-0.515
3545,-0.825,-0.515
3546,-0.830,-0.495
3547,-0.810,-0.500
3548,-0.795,-0.500
3549,-0.795,-0.500
3550,-0.765,-0.485
3551,-0.780,-0.495
3552,-0.775,-0.505
3553,-0.780,-0.520
3554,-0.790,-0.520
3555,-0.785,-0.510
3556,-0.790,-0.485
3557,-0.775,-0.495
3558,-0.765,-0.470
3559,-0.750,-0.455
3560,-0.740,-0.470
3561,-0.730,-0.475
3562,-0.740,-0.470
3563,-0.735,-0.465
3564,-0.740,-0.480
3565,-0.750,-0.480
3566,-0.750,-0.455
3567,-0.750,-0.450
3568,-0.735,-0.440
3569,-0.720,-0.440
3570,-0.715,-0.415
3571,-0.695,-0.410
3572,-0.690,-0.410
3573,-0.690,-0.415
3574,-0.715,-0.425
3575,-0.700,-0.435
3576,-0.710,-0.435
3577,-0.715,-0.420
3578,-0.705,-0.435
3579,-0.700,-0.430
3580,-0.690,-0.400
3581,-0.680,-0.385
3582,-0.655,-0.370
3583,-0.660,-0.365
3584,-0.630,-0.360
3585,-0.625,-0.370
3586,-0.620,-0.360
3587,-0.635,-0.360
3588,-0.620,-0.350
3589,-0.625,-0.360
3590,-0.620,-0.350
3591,-0.605,-0.345
3592,-0.600,-0.325
3593,-0.580,-0.300
3594,-0.575,-0.285
3595,-0.560,-0.265
3596,-0.540,-0.270
3597,-0.535,-0.255
3598,-0.520,-0.250
3599,-0.520,-0.250
3600,-0.510,-0.240
3601,-0.495,-0.230
3602,-0.485,-0.225
3603,-0.475,-0.205
3604,-0.465,-0.170
3605,-0.430,-0.130
3606,-0.405,-0.110
3607,-0.375,-0.080
3608,-0.350,-0.055
3609,-0.340,-0.035
3610,-0.320,-0.020
3611,-0.310,-0.010
3612,-0.300,-0.005
3613,-0.285,0.020
3614,-0.265,0.040
3615,-0.255,0.080
3616,-0.245,0.100
3617,-0.205,0.145
3618,-0.190,0.175
3619,-0.165,0.185
3620,-0.155,0.195
3621,-0.160,0.190
3622,-0.155,0.190
3623,-0.155,0.195
3624,-0.165,0.180
3625,-0.165,0.185
3626,-0.160,0.190
3627,-0.175,0.190
3628,-0.175,0.200
3629,-0.180,0.200
3630,-0.185,0.185
3631,-0.195,0.205
3632,-0.190,0.185
3633,-0.200,0.150
3634,-0.225,0.115
3635,-0.250,0.105
3636,-0.290,0.050
3637,-0.310,0.015
3638,-0.350,-0.010
3639,-0.380,-0.035
3640,-0.405,-0.065
3641,-0.430,-0.080
3642,-0.455,-0.115
3643,-0.465,-0.125
3644,-0.490,-0.190
3645,-0.510,-0.235
3646,-0.540,-0.270
3647,-0.575,-0.310
3648,-0.600,-0.330
3649,-0.625,-0.365
3650,-0.655,-0.405
3651,-0.665,-0.415
3652,-0.685,-0.425
3653,-0.690,-0.440
3654,-0.705,-0.435
3655,-0.695,-0.445
3656,-0.705,-0.460
3657,-0.710,-0.505
3658,-0.735,-0.510
3659,-0.745,-0.530
3660,-0.765,-0.540
3661,-0.790,-0.555
3662,-0.800,-0.560
3663,-0.800,-0.565
3664,-0.795,-0.560
3665,-0.790,-0.570
3666,-0.780,-0.565
3667,-0.760,-0.540
3668,-0.780,-0.570
3669,-0.770,-0.570
3670,-0.790,-0.590
3671,-0.780,-0.590
3672,-0.800,-0.595
3673,-0.820,-0.620
3674,-0.830,-0.610
3675,-0.820,-0.605
3676,-0.815,-0.600
3677,-0.810,-0.580
3678,-0.795,-0.570
3679,-0.795,-0.575
3680,-0.770,-0.575
3681,-0.785,-0.585
3682,-0.775,-0.580
3683,-0.790,-0.585
3684,-0.800,-0.610
3685,-0.800,-0.610
3686,-0.805,-0.620
3687,-0.800,-0.605
3688,-0.805,-0.575
3689,-0.795,-0.575
3690,-0.790,-0.555
3691,-0.785,-0.545
3692,-0.780,-0.540
3693,-0.775,-0.535
3694,-0.775,-0.530
3695,-0.780,-0.545
3696,-0.790,-0.555
3697,-0.790,-0.545
3698,-0.805,-0.560
3699,-0.800,-0.560
3700,-0.785,-0.530
3701,-0.780,-0.535
3702,-0.770,-0.525
3703,-0.765,-0.510
3704,-0.765,-0.500
3705,-0.765,-0.515
3706,-0.765,-0.520
3707,-0.770,-0.555
3708,-0.790,-0.520
3709,-0.800,-0.555
3710,-0.820,-0.555
3711,-0.820,-0.545
3712,-0.820,-0.555
3713,-0.810,-0.530
3714,-0.805,-0.520
3715,-0.800,-0.520
3716,-0.795,-0.530
3717,-0.800,-0.535
3718,-0.800,-0.540
3719,-0.810,-0.555
3720,-0.820,-0.565
3721,-0.835,-0.565
3722,-0.850,-0.565
3723,-0.865,-0.575
3724,-0.860,-0.560
3725,-0.865,-0.560
3726,-0.840,-0.560
3727,-0.825,-0.540
3728,-0.835,-0.580
3729,-0.840,-0.565
3730,-0.840,-0.570
3731,-0.850,-0.580
3732,-0.850,-0.580
3733,-0.850,-0.585
3734,-0.860,-0.605
3735,-0.865,-0.615
3736,-0.860,-0.610
3737,-0.870,-0.575
3738,-0.855,-0.580
3739,-0.845,-0.570
3740,-0.845,-0.585
3741,-0.850,-0.570
3742,-0.870,-0.585
3743,-0.870,-0.620
3744,-0.880,-0.600
3745,-0.890,-0.615
3746,-0.890,-0.610
3747,-0.895,-0.620
3748,-0.915,-0.600
3749,-0.895,-0.590
3750,-0.885,-0.585
3751,-0.865,-0.565
3752,-0.850,-0.575
3753,-0.850,-0.595
3754,-0.855,-0.590
3755,-0.860,-0.610
3756,-0.870,-0.600
3757,-0.900,-0.605
3758,-0.900,-0.590
3759,-0.905,-0.610
3760,-0.885,-0.600
3761,-0.885,-0.565
3762,-0.880,-0.565
3763,-0.870,-0.575
3764,-0.855,-0.585
3765,-0.870,-0.590
3766,-0.865,-0.590
3767,-0.875,-0.610
3768,-0.885,-0.605
3769,-0.905,-0.610
3770,-0.910,-0.615
3771,-0.900,-0.600
3772,-0.905,-0.590
3773,-0.895,-0.575
3774,-0.885,-0.580
3775,-0.860,-0.565
3776,-0.870,-0.575
3777,-0.870,-0.585
3778,-0.865,-0.590
3779,-0.865,-0.600
3780,-0.880,-0.610
3781,-0.885,-0.600
3782,-0.890,-0.605
3783,-0.890,-0.610
3784,-0.880,-0.595
3785,-0.875,-0.575
3786,-0.870,-0.580
3787,-0.885,-0.575
3788,-0.875,-0.565
3789,-0.865,-0.580
3790,-0.870,-0.575
3791,-0.870,-0.590
3792,-0.875,-0.605
3793,-0.895,-0.595
3794,-0.900,-0.605
3795,-0.915,-0.595
3796,-0.915,-0.580
3797,-0.910,-0.575
3798,-0.885,-0.575
3799,-0.880,-0.565
3800,-0.870,-0.570
3801,-0.865,-0.585
3802,-0.865,-0.590
3803,-0.880,-0.600
3804,-0.880,-0.610
3805,-0.880,-0.610
3806,-0.900,-0.615
3807,-0.910,-0.600
3808,-0.910,-0.585
3809,-0.890,-0.590
3810,-0.885,-0.590
3811,-0.865,-0.565
3812,-0.855,-0.570
3813,-0.875,-0.575
3814,-0.870,-0.590
3815,-0.875,-0.595
3816,-0.875,-0.610
3817,-0.900,-0.615
3818,-0.910,-0.610
3819,-0.900,-0.600
3820,-0.905,-0.605
3821,-0.890,-0.580
3822,-0.890,-0.575
3823,-0.870,-0.575
3824,-0.850,-0.570
3825,-0.860,-0.570
3826,-0.855,-0.595
3827,-0.870,-0.600
3828,-0.875,-0.610
3829,-0.880,-0.595
3830,-0.880,-0.600
3831,-0.880,-0.600
3832,-0.880,-0.580
3833,-0.870,-0.575
3834,-0.870,-0.580
3835,-0.880,-0.565
3836,-0.855,-0.580
3837,-0.850,-0.575
3838,-0.860,-0.580
3839,-0.855,-0.575
3840,-0.865,-0.595
3841,-0.880,-0.590
3842,-0.885,-0.585
3843,-0.885,-0.585
3844,-0.890,-0.570
3845,-0.875,-0.555
3846,-0.860,-0.550
3847,-0.875,-0.530
3848,-0.845,-0.555
3849,-0.850,-0.545
3850,-0.855,-0.545
3851,-0.885,-0.570
3852,-0.875,-0.580
3853,-0.870,-0.575
3854,-0.895,-0.590
3855,-0.895,-0.570
3856,-0.890,-0.560
3857,-0.855,-0.565
3858,-0.860,-0.545
3859,-0.850,-0.555
3860,-0.845,-0.535
3861,-0.845,-0.550
3862,-0.845,-0.555
3863,-0.860,-0.555
3864,-0.875,-0.555
3865,-0.895,-0.570
3866,-0.890,-0.585
3867,-0.895,-0.585
3868,-0.890,-0.565
3869,-0.855,-0.565
3870,-0.850,-0.560
3871,-0.845,-0.545
3872,-0.840,-0.540
3873,-0.835,-0.555
3874,-0.855,-0.555
3875,-0.845,-0.570
3876,-0.845,-0.580
3877,-0.855,-0.580
3878,-0.850,-0.580
3879,-0.835,-0.580
3880,-0.820,-0.575
3881,-0.805,-0.560
3882,-0.795,-0.555
3883,-0.775,-0.545
3884,-0.765,-0.555
3885,-0.765,-0.545
3886,-0.740,-0.555
3887,-0.750,-0.540
3888,-0.730,-0.565
3889,-0.735,-0.530
3890,-0.735,-0.520
3891,-0.700,-0.495
3892,-0.685,-0.480
3893,-0.685,-0.440
3894,-0.675,-0.440
3895,-0.665,-0.400
3896,-0.665,-0.390
3897,-0.670,-0.375
3898,-0.690,-0.370
3899,-0.695,-0.380
3900,-0.720,-0.360
3901,-0.740,-0.365
3902,-0.760,-0.385
3903,-0.760,-0.385
3904,-0.765,-0.360
3905,-0.765,-0.370
3906,-0.790,-0.365
3907,-0.795,-0.385
3908,-0.795,-0.395
3909,-0.810,-0.415
3910,-0.820,-0.440
3911,-0.840,-0.470
3912,-0.855,-0.485
3913,-0.860,-0.510
3914,-0.900,-0.515
3915,-0.885,-0.525
3916,-0.870,-0.525
3917,-0.870,-0.505
3918,-0.855,-0.500
3919,-0.865,-0.490
3920,-0.860,-0.490
3921,-0.890,-0.505
3922,-0.880,-0.530
3923,-0.890,-0.530
3924,-0.890,-0.540
3925,-0.895,-0.565
3926,-0.915,-0.570
3927,-0.905,-0.540
3928,-0.900,-0.545
3929,-0.890,-0.535
3930,-0.880,-0.530
3931,-0.875,-0.505
3932,-0.870,-0.510
3933,-0.875,-0.530
3934,-0.880,-0.545
3935,-0.875,-0.555
3936,-0.870,-0.560
3937,-0.875,-0.540
3938,-0.870,-0.545
3939,-0.865,-0.540
3940,-0.845,-0.530
3941,-0.820,-0.530
3942,-0.785,-0.520
3943,-0.720,-0.500
3944,-0.635,-0.450
3945,-0.530,-0.345
3946,-0.410,-0.195
3947,-0.270,0.035
3948,-0.150,0.275
3949,-0.050,0.545
3950,-0.015,0.800
3951,-0.070,1.035
3952,-0.215,1.195
3953,-0.440,1.230
3954,-0.705,1.115
3955,-0.965,0.840
3956,-1.210,0.475
3957,-1.430,0.055
3958,-1.555,-0.365
3959,-1.625,-0.690
3960,-1.575,-0.845
3961,-1.475,-0.855
3962,-1.340,-0.780
3963,-1.235,-0.670
3964,-1.145,-0.565
3965,-1.065,-0.535
3966,-1.005,-0.480
3967,-0.945,-0.465
3968,-0.865,-0.470
3969,-0.825,-0.460
3970,-0.795,-0.475
3971,-0.800,-0.475
3972,-0.815,-0.470
3973,-0.805,-0.470
3974,-0.835,-0.480
3975,-0.830,-0.495
3976,-0.820,-0.475
3977,-0.815,-0.470
3978,-0.770,-0.450
3979,-0.760,-0.455
3980,-0.750,-0.455
3981,-0.755,-0.460
3982,-0.760,-0.445
3983,-0.750,-0.435
3984,-0.755,-0.455
3985,-0.765,-0.460
3986,-0.775,-0.450
3987,-0.765,-0.435
3988,-0.755,-0.430
3989,-0.740,-0.445
3990,-0.735,-0.420
3991,-0.720,-0.400
3992,-0.705,-0.425
3993,-0.705,-0.410
3994,-0.705,-0.410
3995,-0.715,-0.425
3996,-0.715,-0.425
3997,-0.715,-0.430
3998,-0.725,-0.435
3999,-0.715,-0.410
4000,-0.705,-0.395
4001,-0.695,-0.385
4002,-0.675,-0.380
4003,-0.680,-0.365
4004,-0.660,-0.360
4005,-0.660,-0.370
4006,-0.650,-0.365
4007,-0.660,-0.370
4008,-0.690,-0.385
4009,-0.675,-0.375
4010,-0.695,-0.390
4011,-0.685,-0.370
4012,-0.690,-0.360
4013,-0.655,-0.335
4014,-0.645,-0.315
4015,-0.635,-0.305
4016,-0.610,-0.300
4017,-0.615,-0.290
4018,-0.605,-0.290
4019,-0.590,-0.290
4020,-0.590,-0.300
4021,-0.585,-0.280
4022,-0.585,-0.270
4023,-0.570,-0.250
4024,-0.555,-0.230
4025,-0.535,-0.230
4026,-0.520,-0.210
4027,-0.495,-0.175
4028,-0.495,-0.155
4029,-0.460,-0.140
4030,-0.460,-0.135
4031,-0.455,-0.135
4032,-0.435,-0.120
4033,-0.430,-0.080
4034,-0.425,-0.085
4035,-0.405,-0.080
4036,-0.385,-0.015
4037,-0.340,-0.005
4038,-0.325,0.025
4039,-0.300,0.050
4040,-0.285,0.060
4041,-0.265,0.085
4042,-0.230,0.090
4043,-0.235,0.095
4044,-0.220,0.105
4045,-0.210,0.115
4046,-0.215,0.130
4047,-0.200,0.145
4048,-0.185,0.180
4049,-0.160,0.195
4050,-0.160,0.200
4051,-0.145,0.225
4052,-0.135,0.235
4053,-0.130,0.210
4054,-0.140,0.215
4055,-0.135,0.215
4056,-0.160,0.215
4057,-0.175,0.210
4058,-0.175,0.210
4059,-0.190,0.185
4060,-0.200,0.180
4061,-0.210,0.165
4062,-0.225,0.145
4063,-0.255,0.130
4064,-0.280,0.105
4065,-0.310,0.055
4066,-0.335,0.030
4067,-0.375,-0.020
4068,-0.415,-0.075
4069,-0.435,-0.095
4070,-0.485,-0.145
4071,-0.505,-0.165
4072,-0.545,-0.195
4073,-0.555,-0.215
4074,-0.575,-0.240
4075,-0.595,-0.260
4076,-0.615,-0.310
4077,-0.640,-0.335
4078,-0.675,-0.380
4079,-0.690,-0.400
4080,-0.705,-0.415
4081,-0.730,-0.440
4082,-0.755,-0.460
4083,-0.770,-0.475
4084,-0.765,-0.470
4085,-0.775,-0.475
4086,-0.775,-0.475
4087,-0.775,-0.480
4088,-0.760,-0.490
4089,-0.765,-0.495
4090,-0.770,-0.500
4091,-0.780,-0.510
4092,-0.800,-0.550
4093,-0.800,-0.535
4094,-0.795,-0.550
4095,-0.815,-0.535
4096,-0.815,-0.530
4097,-0.795,-0.520
4098,-0.795,-0.520
4099,-0.790,-0.510
4100,-0.785,-0.515
4101,-0.790,-0.525
4102,-0.790,-0.525
4103,-0.810,-0.535
4104,-0.810,-0.535
4105,-0.810,-0.550
4106,-0.815,-0.555
4107,-0.810,-0.545
4108,-0.810,-0.535
4109,-0.800,-0.510
4110,-0.795,-0.505
4111,-0.770,-0.510
4112,-0.780,-0.500
4113,-0.780,-0.490
4114,-0.785,-0.505
4115,-0.780,-0.510
4116,-0.785,-0.520
4117,-0.800,-0.525
4118,-0.805,-0.515
4119,-0.810,-0.515
4120,-0.800,-0.500
4121,-0.795,-0.510
4122,-0.785,-0.490
4123,-0.770,-0.490
4124,-0.770,-0.510
4125,-0.760,-0.510
4126,-0.765,-0.510
4127,-0.790,-0.505
4128,-0.785,-0.520
4129,-0.800,-0.535
4130,-0.810,-0.525
4131,-0.805,-0.535
4132,-0.805,-0.530
4133,-0.815,-0.510
4134,-0.810,-0.500
4135,-0.815,-0.485
4136,-0.790,-0.495
4137,-0.785,-0.500
4138,-0.805,-0.505
4139,-0.815,-0.515
4140,-0.830,-0.535
4141,-0.845,-0.560
4142,-0.860,-0.560
4143,-0.840,-0.560
4144,-0.855,-0.540
4145,-0.855,-0.535
4146,-0.850,-0.520
4147,-0.840,-0.535
4148,-0.830,-0.535
4149,-0.845,-0.540
4150,-0.850,-0.560
4151,-0.870,-0.570
4152,-0.870,-0.565
4153,-0.885,-0.575
4154,-0.880,-0.585
4155,-0.875,-0.570
4156,-0.865,-0.565
4157,-0.865,-0.555
4158,-0.870,-0.555
4159,-0.865,-0.540
4160,-0.865,-0.540
4161,-0.855,-0.540
4162,-0.850,-0.540
4163,-0.870,-0.570
4164,-0.885,-0.560
4165,-0.895,-0.570
4166,-0.905,-0.580
4167,-0.900,-0.580
4168,-0.905,-0.565
4169,-0.900,-0.555
4170,-0.885,-0.555
4171,-0.880,-0.540
4172,-0.880,-0.550
4173,-0.860,-0.555
4174,-0.875,-0.545
4175,-0.880,-0.550
4176,-0.895,-0.565
4177,-0.915,-0.560
4178,-0.910,-0.555
4179,-0.915,-0.560
4180,-0.920,-0.545
4181,-0.915,-0.525
4182,-0.905,-0.535
4183,-0.895,-0.540
4184,-0.890,-0.525
4185,-0.885,-0.530
4186,-0.890,-0.545
4187,-0.895,-0.555
4188,-0.905,-0.565
4189,-0.925,-0.570
4190,-0.940,-0.575
4191,-0.940,-0.565
4192,-0.940,-0.580
4193,-0.925,-0.580
4194,-0.915,-0.570
4195,-0.905,-0.565
4196,-0.910,-0.580
4197,-0.895,-0.550
4198,-0.910,-0.575
4199,-0.920,-0.575
4200,-0.915,-0.585
4201,-0.925,-0.585
4202,-0.925,-0.580
4203,-0.940,-0.585
4204,-0.930,-0.575
4205,-0.925,-0.565
4206,-0.910,-0.565
4207,-0.905,-0.550
4208,-0.905,-0.565
4209,-0.905,-0.555
4210,-0.920,-0.565
4211,-0.915,-0.585
4212,-0.935,-0.585
4213,-0.940,-0.605
4214,-0.945,-0.600
4215,-0.945,-0.580
4216,-0.940,-0.580
4217,-0.935,-0.575
4218,-0.925,-0.570
4219,-0.930,-0.565
4220,-0.915,-0.575
4221,-0.915,-0.565
4222,-0.915,-0.570
4223,-0.920,-0.600
4224,-0.915,-0.600
4225,-0.930,-0.580
4226,-0.930,-0.600
4227,-0.935,-0.585
4228,-0.945,-0.565
4229,-0.940,-0.570
4230,-0.920,-0.545
4231,-0.930,-0.550
4232,-0.925,-0.550
4233,-0.900,-0.550
4234,-0.900,-0.550
4235,-0.930,-0.560
4236,-0.930,-0.565
4237,-0.950,-0.570
4238,-0.935,-0.580
4239,-0.940,-0.570
4240,-0.930,-0.565
4241,-0.925,-0.545
4242,-0.925,-0.520
4243,-0.915,-0.515
4244,-0.905,-0.520
4245,-0.895,-0.505
4246,-0.915,-0.520
4247,-0.925,-0.525
4248,-0.930,-0.535
4249,-0.940,-0.530
4250,-0.945,-0.535
4251,-0.940,-0.540
4252,-0.940,-0.530
4253,-0.935,-0.515
4254,-0.930,-0.505
4255,-0.935,-0.490
4256,-0.920,-0.495
4257,-0.930,-0.500
4258,-0.915,-0.495
4259,-0.915,-0.505
4260,-0.925,-0.515
4261,-0.920,-0.520
4262,-0.945,-0.520
4263,-0.955,-0.530
4264,-0.960,-0.510
4265,-0.940,-0.510
4266,-0.920,-0.495
4267,-0.900,-0.485
4268,-0.900,-0.480
4269,-0.910,-0.480
4270,-0.910,-0.495
4271,-0.930,-0.510
4272,-0.915,-0.500
4273,-0.930,-0.515
4274,-0.940,-0.505
4275,-0.935,-0.510
4276,-0.950,-0.505
4277,-0.950,-0.505
4278,-0.940,-0.495
4279,-0.910,-0.485
4280,-0.905,-0.480
4281,-0.910,-0.485
4282,-0.905,-0.485
4283,-0.915,-0.500
4284,-0.920,-0.520
4285,-0.935,-0.520
4286,-0.930,-0.520
4287,-0.945,-0.505
4288,-0.935,-0.515
4289,-0.930,-0.505
4290,-0.915,-0.500
4291,-0.925,-0.490
4292,-0.905,-0.485
4293,-0.895,-0.505
4294,-0.900,-0.500
4295,-0.920,-0.505
4296,-0.935,-0.520
4297,-0.945,-0.515
4298,-0.945,-0.520
4299,-0.940,-0.505
4300,-0.925,-0.500
4301,-0.910,-0.490
4302,-0.880,-0.485
4303,-0.865,-0.465
4304,-0.850,-0.475
4305,-0.840,-0.485
4306,-0.825,-0.490
4307,-0.820,-0.490
4308,-0.830,-0.485
4309,-0.845,-0.485
4310,-0.825,-0.465
4311,-0.815,-0.465
4312,-0.805,-0.435
4313,-0.790,-0.405
4314,-0.755,-0.395
4315,-0.730,-0.390
4316,-0.730,-0.375
4317,-0.750,-0.345
4318,-0.735,-0.335
4319,-0.755,-0.325
4320,-0.775,-0.325
4321,-0.795,-0.315
4322,-0.810,-0.335
4323,-0.835,-0.320
4324,-0.830,-0.325
4325,-0.820,-0.315
4326,-0.830,-0.305
4327,-0.835,-0.330
4328,-0.820,-0.335
4329,-0.855,-0.350
4330,-0.880,-0.365
4331,-0.900,-0.385
4332,-0.920,-0.410
4333,-0.940,-0.430
4334,-0.950,-0.455
4335,-0.950,-0.470
4336,-0.945,-0.460
4337,-0.945,-0.455
4338,-0.940,-0.470
4339,-0.935,-0.460
4340,-0.935,-0.455
4341,-0.930,-0.460
4342,-0.945,-0.485
4343,-0.955,-0.490
4344,-0.980,-0.510
4345,-0.975,-0.525
4346,-0.980,-0.525
4347,-0.980,-0.535
4348,-0.980,-0.505
4349,-0.980,-0.490
4350,-0.965,-0.490
4351,-0.960,-0.480
4352,-0.965,-0.485
4353,-0.965,-0.485
4354,-0.955,-0.495
4355,-0.950,-0.490
4356,-0.955,-0.490
4357,-0.970,-0.505
4358,-0.960,-0.510
4359,-0.960,-0.520
4360,-0.955,-0.500
4361,-0.935,-0.500
4362,-0.930,-0.490
4363,-0.910,-0.475
4364,-0.875,-0.485
4365,-0.820,-0.465
4366,-0.740,-0.425
4367,-0.665,-0.340
4368,-0.565,-0.200
4369,-0.440,-0.015
4370,-0.305,0.200
4371,-0.215,0.465
4372,-0.155,0.730
4373,-0.165,0.955
4374,-0.270,1.140
4375,-0.445,1.210
4376,-0.700,1.150
4377,-0.965,0.990
4378,-1.215,0.715
4379,-1.450,0.350
4380,-1.650,-0.050
4381,-1.775,-0.480
4382,-1.820,-0.795
4383,-1.785,-0.975
4384,-1.660,-1.000
4385,-1.530,-0.885
4386,-1.425,-0.760
4387,-1.345,-0.665
4388,-1.260,-0.590
4389,-1.190,-0.560
4390,-1.125,-0.555
4391,-1.050,-0.530
4392,-0.990,-0.500
4393,-0.975,-0.490
4394,-0.940,-0.485
4395,-0.940,-0.470
4396,-0.945,-0.460
4397,-0.925,-0.435
4398,-0.940,-0.435
4399,-0.910,-0.435
4400,-0.905,-0.440
4401,-0.900,-0.435
4402,-0.890,-0.440
4403,-0.890,-0.430
4404,-0.885,-0.440
4405,-0.885,-0.445
4406,-0.890,-0.445
4407,-0.885,-0.420
4408,-0.890,-0.410
4409,-0.875,-0.405
4410,-0.860,-0.390
4411,-0.845,-0.390
4412,-0.830,-0.375
4413,-0.835,-0.375
4414,-0.845,-0.385
4415,-0.855,-0.390
4416,-0.850,-0.385
4417,-0.865,-0.395
4418,-0.860,-0.395
4419,-0.850,-0.395
4420,-0.840,-0.380
4421,-0.850,-0.360
4422,-0.840,-0.350
4423,-0.820,-0.340
4424,-0.820,-0.330
4425,-0.810,-0.340
4426,-0.800,-0.330
4427,-0.805,-0.335
4428,-0.815,-0.320
4429,-0.810,-0.325
4430,-0.805,-0.330
4431,-0.795,-0.325
4432,-0.795,-0.330
4433,-0.785,-0.310
4434,-0.785,-0.300
4435,-0.785,-0.295
4436,-0.780,-0.280
4437,-0.755,-0.285
4438,-0.745,-0.270
4439,-0.740,-0.270
4440,-0.760,-0.270
4441,-0.750,-0.260
4442,-0.740,-0.265
4443,-0.735,-0.250
4444,-0.730,-0.225
4445,-0.705,-0.195
4446,-0.695,-0.185
4447,-0.675,-0.155
4448,-0.640,-0.155
4449,-0.645,-0.130
4450,-0.640,-0.140
4451,-0.635,-0.120
4452,-0.605,-0.115
4453,-0.615,-0.110
4454,-0.595,-0.095
4455,-0.600,-0.080
4456,-0.565,-0.035
4457,-0.550,-0.015
4458,-0.540,0.030
4459,-0.525,0.050
4460,-0.475,0.055
4461,-0.475,0.095
4462,-0.445,0.105
4463,-0.440,0.115
4464,-0.420,0.120
4465,-0.400,0.135
4466,-0.390,0.145
4467,-0.380,0.180
4468,-0.340,0.215
4469,-0.325,0.220
4470,-0.310,0.265
4471,-0.290,0.290
4472,-0.255,0.290
4473,-0.250,0.315
4474,-0.225,0.330
4475,-0.225,0.325
4476,-0.245,0.325
4477,-0.240,0.320
4478,-0.245,0.325
4479,-0.240,0.335
4480,-0.260,0.340
4481,-0.230,0.350
4482,-0.230,0.355
4483,-0.220,0.360
4484,-0.230,0.345
4485,-0.235,0.315
4486,-0.270,0.290
4487,-0.315,0.265
4488,-0.325,0.225
4489,-0.375,0.180
4490,-0.410,0.135
4491,-0.450,0.110
4492,-0.485,0.065
4493,-0.530,0.025
4494,-0.540,-0.005
4495,-0.570,-0.035
4496,-0.580,-0.085
4497,-0.610,-0.115
4498,-0.645,-0.150
4499,-0.670,-0.205
4500,-0.695,-0.225
4501,-0.735,-0.265
4502,-0.770,-0.295
4503,-0.805,-0.315
4504,-0.805,-0.320
4505,-0.820,-0.340
4506,-0.835,-0.340
4507,-0.830,-0.355
4508,-0.825,-0.380
4509,-0.830,-0.380
4510,-0.855,-0.395
4511,-0.860,-0.410
4512,-0.875,-0.435
4513,-0.885,-0.470
4514,-0.880,-0.460
4515,-0.900,-0.450
4516,-0.895,-0.450
4517,-0.885,-0.430
4518,-0.885,-0.425
4519,-0.875,-0.435
4520,-0.880,-0.415
4521,-0.880,-0.435
4522,-0.885,-0.425
4523,-0.895,-0.440
4524,-0.900,-0.465
4525,-0.920,-0.480
4526,-0.915,-0.480
4527,-0.930,-0.490
4528,-0.935,-0.480
4529,-0.925,-0.465
4530,-0.910,-0.465
4531,-0.905,-0.450
4532,-0.890,-0.440
4533,-0.895,-0.455
4534,-0.885,-0.465
4535,-0.885,-0.465
4536,-0.895,-0.460
4537,-0.910,-0.475
4538,-0.900,-0.470
4539,-0.915,-0.465
4540,-0.895,-0.470
4541,-0.905,-0.450
4542,-0.890,-0.435
4543,-0.880,-0.425
4544,-0.875,-0.440
4545,-0.890,-0.435
4546,-0.880,-0.430
4547,-0.870,-0.445
4548,-0.895,-0.435
4549,-0.890,-0.445
4550,-0.895,-0.455
4551,-0.895,-0.440
4552,-0.890,-0.435
4553,-0.895,-0.435
4554,-0.895,-0.410
4555,-0.870,-0.420
4556,-0.895,-0.405
4557,-0.910,-0.430
4558,-0.900,-0.430
4559,-0.910,-0.435
4560,-0.915,-0.455
4561,-0.920,-0.460
4562,-0.930,-0.465
4563,-0.925,-0.450
4564,-0.925,-0.450
4565,-0.925,-0.460
4566,-0.915,-0.445
4567,-0.920,-0.440
4568,-0.915,-0.445
4569,-0.910,-0.460
4570,-0.925,-0.455
4571,-0.930,-0.455
4572,-0.950,-0.485
4573,-0.950,-0.480
4574,-0.940,-0.485
4575,-0.950,-0.475
4576,-0.955,-0.470
4577,-0.945,-0.460
4578,-0.935,-0.465
4579,-0.945,-0.470
4580,-0.945,-0.435
4581,-0.925,-0.465
4582,-0.935,-0.480
4583,-0.950,-0.480
4584,-0.945,-0.485
4585,-0.950,-0.490
4586,-0.955,-0.485
4587,-0.965,-0.475
4588,-0.975,-0.475
4589,-0.975,-0.465
4590,-0.985,-0.450
4591,-0.965,-0.440
4592,-0.940,-0.450
4593,-0.950,-0.460
4594,-0.950,-0.455
4595,-0.955,-0.480
4596,-0.975,-0.470
4597,-0.960,-0.475
4598,-0.965,-0.480
4599,-0.965,-0.490
4600,-0.975,-0.475
4601,-0.965,-0.480
4602,-0.955,-0.470
4603,-0.945,-0.460
4604,-0.985,-0.455
4605,-0.975,-0.460
4606,-0.960,-0.455
4607,-0.965,-0.455
4608,-0.980,-0.465
4609,-0.985,-0.495
4610,-0.985,-0.485
4611,-0.990,-0.470
4612,-0.980,-0.485
4613,-0.970,-0.460
4614,-0.965,-0.460
4615,-0.960,-0.450
4616,-0.920,-0.460
4617,-0.935,-0.455
4618,-0.935,-0.475
4619,-0.950,-0.485
4620,-0.955,-0.495
4621,-0.965,-0.495
4622,-0.970,-0.505
4623,-0.970,-0.485
4624,-0.975,-0.500
4625,-0.980,-0.470
4626,-0.970,-0.475
4627,-0.950,-0.455
4628,-0.940,-0.475
4629,-0.950,-0.470
4630,-0.960,-0.480
4631,-0.960,-0.490
4632,-0.960,-0.495
4633,-0.970,-0.510
4634,-0.960,-0.500
4635,-0.955,-0.505
4636,-0.970,-0.485
4637,-0.960,-0.490
4638,-0.960,-0.495
4639,-0.950,-0.480
4640,-0.935,-0.465
4641,-0.945,-0.475
4642,-0.945,-0.475
4643,-0.955,-0.500
4644,-0.965,-0.500
4645,-0.965,-0.505
4646,-0.960,-0.505
4647,-0.970,-0.500
4648,-0.960,-0.495
4649,-0.950,-0.480
4650,-0.945,-0.475
4651,-0.935,-0.465
4652,-0.920,-0.465
4653,-0.925,-0.475
4654,-0.930,-0.465
4655,-0.935,-0.470
4656,-0.940,-0.475
4657,-0.950,-0.485
4658,-0.950,-0.485
4659,-0.960,-0.470
4660,-0.965,-0.470
4661,-0.950,-0.455
4662,-0.955,-0.460
4663,-0.935,-0.440
4664,-0.930,-0.450
4665,-0.925,-0.455
4666,-0.930,-0.455
4667,-0.935,-0.470
4668,-0.955,-0.470
4669,-0.945,-0.485
4670,-0.950,-0.475
4671,-0.950,-0.470
4672,-0.955,-0.470
4673,-0.955,-0.475
4674,-0.945,-0.455
4675,-0.930,-0.460
4676,-0.925,-0.450
4677,-0.930,-0.455
4678,-0.930,-0.460
4679,-0.940,-0.470
4680,-0.940,-0.475
4681,-0.950,-0.490
4682,-0.950,-0.490
4683,-0.960,-0.490
4684,-0.950,-0.475
4685,-0.945,-0.465
4686,-0.925,-0.455
4687,-0.920,-0.430
4688,-0.920,-0.445
4689,-0.915,-0.445
4690,-0.920,-0.465
4691,-0.930,-0.450
4692,-0.935,-0.475
4693,-0.945,-0.480
4694,-0.955,-0.465
4695,-0.955,-0.495
4696,-0.950,-0.470
4697,-0.935,-0.455
4698,-0.945,-0.460
4699,-0.935,-0.455
4700,-0.915,-0.440
4701,-0.905,-0.460
4702,-0.910,-0.470
4703,-0.910,-0.480
4704,-0.915,-0.495
4705,-0.925,-0.500
4706,-0.935,-0.500
4707,-0.935,-0.490
4708,-0.945,-0.460
4709,-0.925,-0.450
4710,-0.925,-0.440
4711,-0.915,-0.450
4712,-0.900,-0.430
4713,-0.905,-0.450
4714,-0.905,-0.450
4715,-0.895,-0.470
4716,-0.920,-0.455
4717,-0.905,-0.465
4718,-0.905,-0.465
4719,-0.900,-0.470
4720,-0.900,-0.460
4721,-0.875,-0.450
4722,-0.870,-0.425
4723,-0.840,-0.425
4724,-0.840,-0.440
4725,-0.820,-0.440
4726,-0.825,-0.435
4727,-0.830,-0.435
4728,-0.825,-0.435
4729,-0.825,-0.445
4730,-0.810,-0.435
4731,-0.810,-0.415
4732,-0.780,-0.405
4733,-0.765,-0.380
4734,-0.735,-0.365
4735,-0.725,-0.335
4736,-0.700,-0.320
4737,-0.715,-0.310
4738,-0.710,-0.290
4739,-0.740,-0.280
4740,-0.760,-0.290
4741,-0.775,-0.290
4742,-0.785,-0.300
4743,-0.800,-0.305
4744,-0.810,-0.295
4745,-0.820,-0.295
4746,-0.815,-0.290
4747,-0.820,-0.280
4748,-0.830,-0.300
4749,-0.845,-0.305
4750,-0.880,-0.315
4751,-0.870,-0.340
4752,-0.880,-0.375
4753,-0.900,-0.400
4754,-0.905,-0.425
4755,-0.905,-0.425
4756,-0.915,-0.435
4757,-0.920,-0.430
4758,-0.915,-0.420
4759,-0.900,-0.425
4760,-0.900,-0.435
4761,-0.905,-0.440
4762,-0.910,-0.455
4763,-0.940,-0.470
4764,-0.945,-0.480
4765,-0.945,-0.475
4766,-0.940,-0.480
4767,-0.965,-0.495
4768,-0.960,-0.460
4769,-0.945,-0.455
4770,-0.920,-0.450
4771,-0.910,-0.455
4772,-0.895,-0.465
4773,-0.900,-0.455
4774,-0.905,-0.460
4775,-0.915,-0.485
4776,-0.920,-0.470
4777,-0.905,-0.480
4778,-0.915,-0.475
4779,-0.920,-0.485
4780,-0.920,-0.460
4781,-0.905,-0.475
4782,-0.880,-0.460
4783,-0.845,-0.460
4784,-0.785,-0.445
4785,-0.715,-0.415
4786,-0.610,-0.325
4787,-0.500,-0.200
4788,-0.365,-0.020
4789,-0.205,0.220
4790,-0.080,0.475
4791,-0.020,0.750
4792,-0.035,0.995
4793,-0.130,1.175
4794,-0.320,1.260
4795,-0.560,1.215
4796,-0.835,1.005
4797,-1.095,0.720
4798,-1.330,0.335
4799,-1.540,-0.055
4800,-1.640,-0.410
4801,-1.650,-0.660
4802,-1.565,-0.760
4803,-1.460,-0.740
4804,-1.340,-0.645
4805,-1.230,-0.540
4806,-1.150,-0.470
4807,-1.065,-0.445
4808,-1.015,-0.415
4809,-0.970,-0.430
4810,-0.900,-0.425
4811,-0.860,-0.445
4812,-0.845,-0.430
4813,-0.865,-0.415
4814,-0.860,-0.440
4815,-0.870,-0.435
4816,-0.870,-0.425
4817,-0.860,-0.425
4818,-0.830,-0.410
4819,-0.830,-0.405
4820,-0.805,-0.400
4821,-0.795,-0.405
4822,-0.805,-0.405
4823,-0.810,-0.415
4824,-0.795,-0.415
4825,-0.795,-0.425
4826,-0.805,-0.425
4827,-0.805,-0.410
4828,-0.810,-0.400
4829,-0.800,-0.390
4830,-0.795,-0.385
4831,-0.780,-0.380
4832,-0.755,-0.370
4833,-0.755,-0.375
4834,-0.755,-0.380
4835,-0.760,-0.380
4836,-0.755,-0.380
4837,-0.775,-0.385
4838,-0.765,-0.400
4839,-0.770,-0.390
4840,-0.770,-0.380
4841,-0.760,-0.355
4842,-0.745,-0.345
4843,-0.735,-0.345
4844,-0.720,-0.335
4845,-0.725,-0.345
4846,-0.715,-0.355
4847,-0.705,-0.355
4848,-0.715,-0.345
4849,-0.735,-0.360
4850,-0.730,-0.345
4851,-0.715,-0.340
4852,-0.715,-0.320
4853,-0.710,-0.295
4854,-0.670,-0.280
4855,-0.660,-0.270
4856,-0.660,-0.265
4857,-0.665,-0.270
4858,-0.660,-0.265
4859,-0.650,-0.255
4860,-0.640,-0.250
4861,-0.650,-0.250
4862,-0.665,-0.245
4863,-0.650,-0.230
4864,-0.620,-0.210
4865,-0.590,-0.190
4866,-0.570,-0.175
4867,-0.555,-0.145
4868,-0.535,-0.140
4869,-0.525,-0.105
4870,-0.520,-0.120
4871,-0.510,-0.110
4872,-0.500,-0.105
4873,-0.490,-0.095
4874,-0.465,-0.085
4875,-0.470,-0.045
4876,-0.450,-0.035
4877,-0.415,-0.010
4878,-0.400,0.025
4879,-0.375,0.040
4880,-0.330,0.045
4881,-0.340,0.075
4882,-0.310,0.105
4883,-0.300,0.100
4884,-0.285,0.115
4885,-0.290,0.120
4886,-0.275,0.150
4887,-0.265,0.155
4888,-0.255,0.175
4889,-0.210,0.200
4890,-0.195,0.215
4891,-0.165,0.240
4892,-0.160,0.245
4893,-0.150,0.240
4894,-0.150,0.250
4895,-0.145,0.255
4896,-0.150,0.240
4897,-0.160,0.240
4898,-0.175,0.225
4899,-0.170,0.235
4900,-0.185,0.245
4901,-0.175,0.250
4902,-0.195,0.240
4903,-0.185,0.235
4904,-0.195,0.230
4905,-0.230,0.185
4906,-0.260,0.145
4907,-0.270,0.120
4908,-0.310,0.095
4909,-0.335,0.045
4910,-0.375,0.000
4911,-0.415,-0.020
4912,-0.440,-0.035
4913,-0.475,-0.065
4914,-0.495,-0.100
4915,-0.515,-0.115
4916,-0.535,-0.150
4917,-0.565,-0.190
4918,-0.600,-0.215
4919,-0.620,-0.245
4920,-0.650,-0.295
4921,-0.685,-0.320
4922,-0.705,-0.345
4923,-0.730,-0.360
4924,-0.765,-0.365
4925,-0.760,-0.365
4926,-0.765,-0.375
4927,-0.760,-0.385
4928,-0.760,-0.400
4929,-0.785,-0.410
4930,-0.785,-0.410
4931,-0.790,-0.430
4932,-0.805,-0.450
4933,-0.835,-0.450
4934,-0.835,-0.455
4935,-0.855,-0.450
4936,-0.850,-0.445
4937,-0.845,-0.435
4938,-0.830,-0.435
4939,-0.830,-0.425
4940,-0.815,-0.440
4941,-0.830,-0.445
4942,-0.835,-0.445
4943,-0.840,-0.455
4944,-0.850,-0.490
4945,-0.845,-0.490
4946,-0.860,-0.500
4947,-0.855,-0.490
4948,-0.860,-0.490
4949,-0.840,-0.480
4950,-0.845,-0.455
4951,-0.840,-0.450
4952,-0.815,-0.450
4953,-0.825,-0.460
4954,-0.815,-0.450
4955,-0.815,-0.455
4956,-0.825,-0.455
4957,-0.830,-0.460
4958,-0.835,-0.465
4959,-0.845,-0.460
4960,-0.845,-0.435
4961,-0.835,-0.430
4962,-0.825,-0.435
4963,-0.805,-0.425
4964,-0.800,-0.425
4965,-0.805,-0.430
4966,-0.800,-0.415
4967,-0.805,-0.435
4968,-0.820,-0.440
4969,-0.820,-0.440
4970,-0.825,-0.440
4971,-0.835,-0.450
4972,-0.815,-0.440
4973,-0.805,-0.435
4974,-0.800,-0.415
4975,-0.785,-0.410
4976,-0.785,-0.410
4977,-0.790,-0.415
4978,-0.795,-0.430
4979,-0.815,-0.430
4980,-0.800,-0.455
4981,-0.820,-0.455
4982,-0.830,-0.465
4983,-0.845,-0.455
4984,-0.850,-0.445
4985,-0.835,-0.425
4986,-0.825,-0.425
4987,-0.820,-0.430
4988,-0.810,-0.425
4989,-0.820,-0.440
4990,-0.815,-0.440
4991,-0.830,-0.445
4992,-0.845,-0.470
4993,-0.865,-0.480
4994,-0.860,-0.480
4995,-0.870,-0.465
4996,-0.885,-0.450
4997,-0.865,-0.475
4998,-0.870,-0.460
4999,-0.850,-0.440
5000,-0.850,-0.440
5001,-0.850,-0.445
5002,-0.850,-0.450
5003,-0.860,-0.460
5004,-0.865,-0.470
5005,-0.875,-0.470
5006,-0.885,-0.475
5007,-0.885,-0.485
5008,-0.890,-0.455
5009,-0.885,-0.465
5010,-0.875,-0.450
5011,-0.865,-0.455
5012,-0.855,-0.440
5013,-0.870,-0.455
5014,-0.870,-0.445
5015,-0.870,-0.470
5016,-0.890,-0.480
5017,-0.895,-0.465
5018,-0.905,-0.475
5019,-0.915,-0.480
5020,-0.900,-0.485
5021,-0.905,-0.460
5022,-0.890,-0.455
5023,-0.890,-0.440
5024,-0.880,-0.440
5025,-0.885,-0.460
5026,-0.890,-0.465
5027,-0.880,-0.470
5028,-0.890,-0.480
5029,-0.890,-0.480
5030,-0.905,-0.495
5031,-0.925,-0.480
5032,-0.920,-0.495
5033,-0.915,-0.475
5034,-0.900,-0.465
5035,-0.905,-0.450
5036,-0.895,-0.460
5037,-0.890,-0.460
5038,-0.880,-0.465
5039,-0.885,-0.475
5040,-0.895,-0.485
5041,-0.910,-0.485
5042,-0.905,-0.475
5043,-0.930,-0.475
5044,-0.910,-0.470
5045,-0.905,-0.480
5046,-0.895,-0.455
5047,-0.900,-0.460
5048,-0.885,-0.455
5049,-0.900,-0.455
5050,-0.880,-0.465
5051,-0.895,-0.485
5052,-0.900,-0.485
5053,-0.920,-0.490
5054,-0.915,-0.485
5055,-0.920,-0.480
5056,-0.910,-0.480
5057,-0.910,-0.470
5058,-0.900,-0.460
5059,-0.895,-0.465
5060,-0.895,-0.460
5061,-0.885,-0.465
5062,-0.900,-0.465
5063,-0.910,-0.495
5064,-0.900,-0.490
5065,-0.895,-0.490
5066,-0.920,-0.500
5067,-0.925,-0.500
5068,-0.920,-0.490
5069,-0.920,-0.460
5070,-0.910,-0.465
5071,-0.895,-0.450
5072,-0.895,-0.465
5073,-0.870,-0.465
5074,-0.880,-0.460
5075,-0.890,-0.485
5076,-0.895,-0.470
5077,-0.885,-0.485
5078,-0.890,-0.480
5079,-0.910,-0.490
5080,-0.900,-0.460
5081,-0.900,-0.460
5082,-0.890,-0.460
5083,-0.895,-0.450
5084,-0.880,-0.450
5085,-0.895,-0.455
5086,-0.905,-0.455
5087,-0.905,-0.465
5088,-0.905,-0.465
5089,-0.910,-0.490
5090,-0.915,-0.480
5091,-0.910,-0.475
5092,-0.910,-0.470
5093,-0.895,-0.455
5094,-0.885,-0.465
5095,-0.870,-0.455
5096,-0.865,-0.460
5097,-0.885,-0.460
5098,-0.880,-0.470
5099,-0.895,-0.465
5100,-0.895,-0.495
5101,-0.885,-0.480
5102,-0.885,-0.485
5103,-0.895,-0.475
5104,-0.885,-0.480
5105,-0.890,-0.455
5106,-0.890,-0.460
5107,-0.880,-0.445
5108,-0.870,-0.445
5109,-0.875,-0.445
5110,-0.865,-0.450
5111,-0.865,-0.465
5112,-0.875,-0.485
5113,-0.890,-0.485
5114,-0.890,-0.475
5115,-0.895,-0.480
5116,-0.890,-0.485
5117,-0.885,-0.465
5118,-0.880,-0.465
5119,-0.885,-0.465
5120,-0.870,-0.460
5121,-0.885,-0.455
5122,-0.890,-0.460
5123,-0.890,-0.465
5124,-0.890,-0.495
5125,-0.890,-0.475
5126,-0.890,-0.495
5127,-0.900,-0.510
5128,-0.910,-0.495
5129,-0.895,-0.480
5130,-0.895,-0.465
5131,-0.890,-0.460
5132,-0.875,-0.470
5133,-0.870,-0.470
5134,-0.880,-0.460
5135,-0.880,-0.475
5136,-0.890,-0.480
5137,-0.890,-0.490
5138,-0.890,-0.510
5139,-0.920,-0.490
5140,-0.895,-0.490
5141,-0.905,-0.465
5142,-0.880,-0.455
5143,-0.865,-0.445
5144,-0.855,-0.440
5145,-0.855,-0.450
5146,-0.855,-0.455
5147,-0.860,-0.485
5148,-0.850,-0.465
5149,-0.865,-0.480
5150,-0.870,-0.475
5151,-0.890,-0.475
5152,-0.890,-0.480
5153,-0.865,-0.445
5154,-0.880,-0.460
5155,-0.845,-0.445
5156,-0.835,-0.435
5157,-0.825,-0.435
5158,-0.810,-0.435
5159,-0.825,-0.445
5160,-0.810,-0.460
5161,-0.785,-0.480
5162,-0.775,-0.480
5163,-0.785,-0.475
5164,-0.780,-0.455
5165,-0.775,-0.415
5166,-0.765,-0.410
5167,-0.750,-0.385
5168,-0.715,-0.380
5169,-0.705,-0.375
5170,-0.685,-0.380
5171,-0.685,-0.375
5172,-0.685,-0.365
5173,-0.695,-0.365
5174,-0.705,-0.340
5175,-0.720,-0.345
5176,-0.730,-0.320
5177,-0.735,-0.300
5178,-0.735,-0.295
5179,-0.745,-0.290
5180,-0.735,-0.285
5181,-0.735,-0.305
5182,-0.750,-0.305
5183,-0.765,-0.325
5184,-0.775,-0.345
5185,-0.795,-0.355
5186,-0.830,-0.360
5187,-0.850,-0.365
5188,-0.875,-0.370
5189,-0.875,-0.385
5190,-0.870,-0.390
5191,-0.855,-0.385
5192,-0.845,-0.410
5193,-0.860,-0.415
5194,-0.870,-0.440
5195,-0.870,-0.465
5196,-0.895,-0.460
5197,-0.885,-0.475
5198,-0.890,-0.490
5199,-0.895,-0.485
5200,-0.900,-0.480
5201,-0.895,-0.460
5202,-0.900,-0.465
5203,-0.895,-0.465
5204,-0.880,-0.465
5205,-0.885,-0.470
5206,-0.880,-0.490
5207,-0.895,-0.490
5208,-0.875,-0.495
5209,-0.900,-0.510
5210,-0.925,-0.525
5211,-0.935,-0.495
5212,-0.920,-0.495
5213,-0.910,-0.485
5214,-0.910,-0.495
5215,-0.900,-0.495
5216,-0.885,-0.495
5217,-0.880,-0.480
5218,-0.865,-0.475
5219,-0.870,-0.490
5220,-0.870,-0.500
5221,-0.875,-0.505
5222,-0.850,-0.530
5223,-0.805,-0.510
5224,-0.745,-0.475
5225,-0.645,-0.385
5226,-0.505,-0.270
5227,-0.375,-0.075
5228,-0.225,0.145
5229,-0.095,0.375
5230,-0.020,0.615
5231,-0.030,0.805
5232,-0.115,0.980
5233,-0.295,1.055
5234,-0.530,1.030
5235,-0.805,0.885
5236,-1.065,0.670
5237,-1.280,0.360
5238,-1.475,0.050
5239,-1.600,-0.285
5240,-1.625,-0.560
5241,-1.595,-0.735
5242,-1.510,-0.800
5243,-1.415,-0.775
5244,-1.315,-0.695
5245,-1.240,-0.620
5246,-1.180,-0.565
5247,-1.125,-0.525
5248,-1.065,-0.505
5249,-0.990,-0.485
5250,-0.935,-0.475
5251,-0.865,-0.435
5252,-0.825,-0.435
5253,-0.810,-0.440
5254,-0.815,-0.455
5255,-0.840,-0.460
5256,-0.845,-0.470
5257,-0.850,-0.475
5258,-0.850,-0.490
5259,-0.875,-0.480
5260,-0.855,-0.485
5261,-0.835,-0.455
5262,-0.810,-0.460
5263,-0.800,-0.425
5264,-0.785,-0.425
5265,-0.780,-0.440
5266,-0.785,-0.435
5267,-0.785,-0.435
5268,-0.775,-0.440
5269,-0.790,-0.455
5270,-0.775,-0.455
5271,-0.790,-0.445
5272,-0.790,-0.430
5273,-0.770,-0.425
5274,-0.750,-0.425
5275,-0.755,-0.405
5276,-0.755,-0.400
5277,-0.730,-0.380
5278,-0.735,-0.385
5279,-0.760,-0.425
5280,-0.770,-0.395
5281,-0.770,-0.420
5282,-0.760,-0.410
5283,-0.775,-0.415
5284,-0.775,-0.395
5285,-0.770,-0.390
5286,-0.740,-0.365
5287,-0.725,-0.355
5288,-0.710,-0.345
5289,-0.705,-0.350
5290,-0.705,-0.355
5291,-0.695,-0.370
5292,-0.700,-0.350
5293,-0.715,-0.345
5294,-0.705,-0.375
5295,-0.705,-0.350
5296,-0.710,-0.340
5297,-0.690,-0.320
5298,-0.685,-0.295
5299,-0.675,-0.295
5300,-0.660,-0.275
5301,-0.645,-0.280
5302,-0.645,-0.280
5303,-0.635,-0.285
5304,-0.630,-0.280
5305,-0.640,-0.280
5306,-0.630,-0.280
5307,-0.630,-0.275
5308,-0.615,-0.250
5309,-0.610,-0.220
5310,-0.585,-0.210
5311,-0.560,-0.200
5312,-0.565,-0.170
5313,-0.540,-0.175
5314,-0.535,-0.160
5315,-0.510,-0.170
5316,-0.520,-0.135
5317,-0.500,-0.140
5318,-0.485,-0.125
5319,-0.475,-0.100
5320,-0.460,-0.070
5321,-0.420,-0.045
5322,-0.400,-0.005
5323,-0.390,0.005
5324,-0.340,0.025
5325,-0.320,0.040
5326,-0.320,0.035
5327,-0.320,0.060
5328,-0.305,0.065
5329,-0.290,0.070
5330,-0.290,0.075
5331,-0.265,0.085
5332,-0.260,0.110
5333,-0.235,0.145
5334,-0.215,0.155
5335,-0.205,0.175
5336,-0.185,0.185
5337,-0.185,0.195
5338,-0.175,0.195
5339,-0.170,0.185
5340,-0.155,0.200
5341,-0.170,0.195
5342,-0.165,0.185
5343,-0.175,0.185
5344,-0.170,0.190
5345,-0.165,0.205
5346,-0.195,0.180
5347,-0.175,0.200
5348,-0.190,0.190
5349,-0.200,0.185
5350,-0.235,0.150
5351,-0.260,0.100
5352,-0.295,0.090
5353,-0.320,0.055
5354,-0.355,0.015
5355,-0.385,-0.020
5356,-0.415,-0.025
5357,-0.445,-0.050
5358,-0.465,-0.090
5359,-0.485,-0.095
5360,-0.505,-0.130
5361,-0.540,-0.160
5362,-0.565,-0.210
5363,-0.605,-0.240
5364,-0.640,-0.290
5365,-0.660,-0.310
5366,-0.700,-0.350
5367,-0.710,-0.375
5368,-0.740,-0.365
5369,-0.760,-0.390
5370,-0.750,-0.380
5371,-0.750,-0.380
5372,-0.750,-0.400
5373,-0.760,-0.395
5374,-0.770,-0.410
5375,-0.795,-0.450
5376,-0.795,-0.455
5377,-0.810,-0.475
5378,-0.820,-0.470
5379,-0.840,-0.485
5380,-0.840,-0.480
5381,-0.830,-0.470
5382,-0.835,-0.475
5383,-0.825,-0.470
5384,-0.820,-0.465
5385,-0.820,-0.490
5386,-0.820,-0.480
5387,-0.830,-0.495
5388,-0.840,-0.490
5389,-0.840,-0.510
5390,-0.855,-0.505
5391,-0.845,-0.510
5392,-0.855,-0.495
5393,-0.840,-0.500
5394,-0.830,-0.500
5395,-0.835,-0.490
5396,-0.810,-0.485
5397,-0.820,-0.490
5398,-0.820,-0.485
5399,-0.820,-0.495
5400,-0.825,-0.505
5401,-0.845,-0.515
5402,-0.855,-0.505
5403,-0.865,-0.495
5404,-0.850,-0.485
5405,-0.845,-0.470
5406,-0.825,-0.470
5407,-0.835,-0.455
5408,-0.840,-0.450
5409,-0.820,-0.460
5410,-0.810,-0.450
5411,-0.815,-0.475
5412,-0.820,-0.470
5413,-0.810,-0.490
5414,-0.835,-0.485
5415,-0.840,-0.465
5416,-0.840,-0.470
5417,-0.830,-0.475
5418,-0.835,-0.455
5419,-0.825,-0.450
5420,-0.825,-0.440
5421,-0.815,-0.450
5422,-0.825,-0.450
5423,-0.830,-0.460
5424,-0.835,-0.470
5425,-0.850,-0.460
5426,-0.845,-0.465
5427,-0.850,-0.455
5428,-0.855,-0.450
5429,-0.845,-0.445
5430,-0.840,-0.425
5431,-0.835,-0.440
5432,-0.840,-0.435
5433,-0.845,-0.450
5434,-0.850,-0.460
5435,-0.875,-0.460
5436,-0.870,-0.470
5437,-0.885,-0.485
5438,-0.885,-0.480
5439,-0.895,-0.485
5440,-0.885,-0.465
5441,-0.890,-0.470
5442,-0.880,-0.465
5443,-0.880,-0.445
5444,-0.870,-0.445
5445,-0.875,-0.450
5446,-0.880,-0.460
5447,-0.895,-0.460
5448,-0.910,-0.470
5449,-0.920,-0.485
5450,-0.925,-0.505
5451,-0.915,-0.510
5452,-0.920,-0.485
5453,-0.930,-0.475
5454,-0.915,-0.470
5455,-0.900,-0.460
5456,-0.890,-0.455
5457,-0.890,-0.465
5458,-0.895,-0.465
5459,-0.905,-0.480
5460,-0.910,-0.495
5461,-0.915,-0.500
5462,-0.915,-0.505
5463,-0.925,-0.510
5464,-0.925,-0.485
5465,-0.915,-0.475
5466,-0.915,-0.475
5467,-0.910,-0.455
5468,-0.915,-0.450
5469,-0.905,-0.470
5470,-0.905,-0.475
5471,-0.910,-0.500
5472,-0.910,-0.515
5473,-0.925,-0.510
5474,-0.930,-0.505
5475,-0.930,-0.515
5476,-0.925,-0.505
5477,-0.915,-0.480
5478,-0.915,-0.475
5479,-0.905,-0.470
5480,-0.905,-0.460
5481,-0.900,-0.475
5482,-0.920,-0.465
5483,-0.920,-0.475
5484,-0.925,-0.500
5485,-0.925,-0.520
5486,-0.940,-0.515
5487,-0.945,-0.515
5488,-0.940,-0.505
5489,-0.930,-0.500
5490,-0.935,-0.490
5491,-0.930,-0.465
5492,-0.915,-0.480
5493,-0.920,-0.455
5494,-0.905,-0.475
5495,-0.900,-0.485
5496,-0.920,-0.485
5497,-0.915,-0.475
5498,-0.915,-0.490
5499,-0.935,-0.465
5500,-0.945,-0.490
5501,-0.940,-0.485
5502,-0.930,-0.460
5503,-0.925,-0.465
5504,-0.910,-0.490
5505,-0.900,-0.475
5506,-0.910,-0.475
5507,-0.925,-0.480
5508,-0.920,-0.485
5509,-0.920,-0.490
5510,-0.930,-0.485
5511,-0.940,-0.480
5512,-0.920,-0.475
5513,-0.925,-0.470
5514,-0.910,-0.465
5515,-0.910,-0.455
5516,-0.900,-0.435
5517,-0.910,-0.455
5518,-0.915,-0.460
5519,-0.925,-0.465
5520,-0.915,-0.460
5521,-0.935,-0.485
5522,-0.945,-0.475
5523,-0.935,-0.495
5524,-0.955,-0.460
5525,-0.925,-0.470
5526,-0.925,-0.440
5527,-0.925,-0.440
5528,-0.900,-0.445
5529,-0.905,-0.460
5530,-0.910,-0.450
5531,-0.915,-0.475
5532,-0.925,-0.470
5533,-0.930,-0.470
5534,-0.945,-0.465
5535,-0.940,-0.485
5536,-0.950,-0.470
5537,-0.950,-0.460
5538,-0.915,-0.460
5539,-0.915,-0.435
5540,-0.910,-0.450
5541,-0.910,-0.450
5542,-0.900,-0.460
5543,-0.925,-0.475
5544,-0.920,-0.460
5545,-0.930,-0.480
5546,-0.920,-0.475
5547,-0.950,-0.480
5548,-0.935,-0.480
5549,-0.930,-0.455
5550,-0.920,-0.435
5551,-0.920,-0.420
5552,-0.915,-0.430
5553,-0.910,-0.450
5554,-0.900,-0.455
5555,-0.915,-0.460
5556,-0.915,-0.475
5557,-0.925,-0.480
5558,-0.930,-0.470
5559,-0.935,-0.465
5560,-0.940,-0.455
5561,-0.930,-0.445
5562,-0.925,-0.450
5563,-0.925,-0.425
5564,-0.900,-0.405
5565,-0.900,-0.425
5566,-0.895,-0.435
5567,-0.905,-0.440
5568,-0.915,-0.430
5569,-0.920,-0.440
5570,-0.940,-0.445
5571,-0.950,-0.445
5572,-0.945,-0.440
5573,-0.945,-0.430
5574,-0.925,-0.415
5575,-0.905,-0.420
5576,-0.900,-0.405
5577,-0.890,-0.410
5578,-0.890,-0.420
5579,-0.910,-0.425
5580,-0.910,-0.430
5581,-0.925,-0.435
5582,-0.935,-0.435
5583,-0.930,-0.440
5584,-0.925,-0.435
5585,-0.905,-0.420
5586,-0.900,-0.420
5587,-0.880,-0.405
5588,-0.865,-0.405
5589,-0.870,-0.405
5590,-0.840,-0.415
5591,-0.835,-0.420
5592,-0.830,-0.420
5593,-0.825,-0.445
5594,-0.830,-0.435
5595,-0.835,-0.430
5596,-0.840,-0.410
5597,-0.830,-0.400
5598,-0.805,-0.365
5599,-0.760,-0.340
5600,-0.730,-0.330
5601,-0.725,-0.330
5602,-0.720,-0.315
5603,-0.725,-0.310
5604,-0.735,-0.300
5605,-0.740,-0.290
5606,-0.775,-0.290
5607,-0.775,-0.270
5608,-0.790,-0.270
5609,-0.805,-0.270
5610,-0.800,-0.260
5611,-0.800,-0.265
5612,-0.790,-0.265
5613,-0.795,-0.280
5614,-0.820,-0.285
5615,-0.840,-0.300
5616,-0.870,-0.330
5617,-0.895,-0.340
5618,-0.910,-0.365
5619,-0.935,-0.390
5620,-0.935,-0.390
5621,-0.925,-0.400
5622,-0.920,-0.405
5623,-0.910,-0.410
5624,-0.905,-0.400
5625,-0.895,-0.415
5626,-0.905,-0.405
5627,-0.910,-0.420
5628,-0.925,-0.435
5629,-0.930,-0.450
5630,-0.950,-0.475
5631,-0.955,-0.460
5632,-0.955,-0.470
5633,-0.945,-0.450
5634,-0.925,-0.440
5635,-0.925,-0.440
5636,-0.930,-0.440
5637,-0.935,-0.435
5638,-0.935,-0.440
5639,-0.925,-0.450
5640,-0.935,-0.455
5641,-0.940,-0.460
5642,-0.955,-0.465
5643,-0.965,-0.470
5644,-0.940,-0.460
5645,-0.920,-0.445
5646,-0.905,-0.435
5647,-0.895,-0.415
5648,-0.885,-0.420
5649,-0.870,-0.430
5650,-0.820,-0.415
5651,-0.765,-0.410
5652,-0.690,-0.340
5653,-0.585,-0.220
5654,-0.465,-0.035
5655,-0.310,0.205
5656,-0.200,0.470
5657,-0.090,0.740
5658,-0.090,0.995
5659,-0.200,1.155
5660,-0.400,1.200
5661,-0.675,1.095
5662,-0.960,0.870
5663,-1.245,0.535
5664,-1.495,0.115
5665,-1.675,-0.295
5666,-1.765,-0.665
5667,-1.730,-0.895
5668,-1.625,-0.950
5669,-1.510,-0.865
5670,-1.375,-0.715
5671,-1.280,-0.625
5672,-1.215,-0.550
5673,-1.150,-0.525
5674,-1.090,-0.500
5675,-1.030,-0.495
5676,-0.975,-0.485
5677,-0.930,-0.475
5678,-0.875,-0.445
5679,-0.870,-0.440
5680,-0.855,-0.425
5681,-0.865,-0.420
5682,-0.855,-0.420
5683,-0.855,-0.425
5684,-0.830,-0.400
5685,-0.835,-0.415
5686,-0.835,-0.410
5687,-0.815,-0.420
5688,-0.810,-0.420
5689,-0.820,-0.425
5690,-0.825,-0.425
5691,-0.815,-0.415
5692,-0.805,-0.410
5693,-0.795,-0.410
5694,-0.785,-0.390
5695,-0.780,-0.380
5696,-0.760,-0.365
5697,-0.750,-0.380
5698,-0.750,-0.390
5699,-0.750,-0.380
5700,-0.780,-0.390
5701,-0.760,-0.390
5702,-0.765,-0.390
5703,-0.760,-0.400
5704,-0.765,-0.370
5705,-0.770,-0.370
5706,-0.735,-0.340
5707,-0.735,-0.325
5708,-0.715,-0.320
5709,-0.705,-0.335
5710,-0.705,-0.315
5711,-0.700,-0.320
5712,-0.720,-0.335
5713,-0.720,-0.335
5714,-0.740,-0.325
5715,-0.740,-0.320
5716,-0.715,-0.305
5717,-0.725,-0.290
5718,-0.705,-0.265
5719,-0.685,-0.260
5720,-0.675,-0.250
5721,-0.655,-0.245
5722,-0.665,-0.270
5723,-0.645,-0.260
5724,-0.655,-0.260
5725,-0.655,-0.270
5726,-0.655,-0.260
5727,-0.655,-0.235
5728,-0.645,-0.235
5729,-0.630,-0.220
5730,-0.615,-0.200
5731,-0.580,-0.170
5732,-0.570,-0.165
5733,-0.570,-0.155
5734,-0.535,-0.160
5735,-0.550,-0.175
5736,-0.545,-0.145
5737,-0.535,-0.140
5738,-0.555,-0.115
5739,-0.530,-0.125
5740,-0.510,-0.110
5741,-0.480,-0.065
5742,-0.450,-0.045
5743,-0.435,-0.025
5744,-0.395,0.005
5745,-0.380,0.005
5746,-0.370,0.015
5747,-0.340,0.035
5748,-0.320,0.035
5749,-0.320,0.045
5750,-0.320,0.060
5751,-0.305,0.075
5752,-0.300,0.105
5753,-0.275,0.130
5754,-0.250,0.140
5755,-0.220,0.165
5756,-0.210,0.185
5757,-0.195,0.195
5758,-0.185,0.205
5759,-0.170,0.210
5760,-0.175,0.205
5761,-0.175,0.210
5762,-0.175,0.205
5763,-0.160,0.225
5764,-0.170,0.215
5765,-0.160,0.230
5766,-0.150,0.235
5767,-0.155,0.255
5768,-0.150,0.255
5769,-0.160,0.245
5770,-0.170,0.215
5771,-0.190,0.200
5772,-0.215,0.180
5773,-0.225,0.160
5774,-0.270,0.140
5775,-0.285,0.125
5776,-0.300,0.080
5777,-0.335,0.075
5778,-0.360,0.050
5779,-0.370,0.035
5780,-0.395,-0.005
5781,-0.410,-0.025
5782,-0.435,-0.070
5783,-0.460,-0.110
5784,-0.505,-0.140
5785,-0.530,-0.175
5786,-0.570,-0.215
5787,-0.595,-0.260
5788,-0.625,-0.255
5789,-0.645,-0.275
5790,-0.660,-0.285
5791,-0.670,-0.285
5792,-0.680,-0.315
5793,-0.685,-0.325
5794,-0.705,-0.365
5795,-0.710,-0.390
5796,-0.725,-0.400
5797,-0.735,-0.415
5798,-0.760,-0.425
5799,-0.765,-0.435
5800,-0.770,-0.445
5801,-0.775,-0.430
5802,-0.770,-0.430
5803,-0.750,-0.410
5804,-0.765,-0.405
5805,-0.765,-0.435
5806,-0.780,-0.430
5807,-0.785,-0.440
5808,-0.785,-0.465
5809,-0.785,-0.470
5810,-0.790,-0.455
5811,-0.790,-0.455
5812,-0.790,-0.475
5813,-0.775,-0.485
5814,-0.780,-0.455
5815,-0.775,-0.455
5816,-0.770,-0.445
5817,-0.755,-0.445
5818,-0.780,-0.445
5819,-0.765,-0.470
5820,-0.765,-0.460
5821,-0.775,-0.490
5822,-0.775,-0.470
5823,-0.795,-0.475
5824,-0.785,-0.465
5825,-0.780,-0.445
5826,-0.790,-0.445
5827,-0.775,-0.440
5828,-0.755,-0.430
5829,-0.755,-0.430
5830,-0.755,-0.455
5831,-0.760,-0.445
5832,-0.750,-0.450
5833,-0.755,-0.465
5834,-0.765,-0.455
5835,-0.770,-0.460
5836,-0.775,-0.445
5837,-0.765,-0.450
5838,-0.765,-0.430
5839,-0.755,-0.425
5840,-0.745,-0.430
5841,-0.745,-0.415
5842,-0.745,-0.425
5843,-0.760,-0.420
5844,-0.770,-0.430
5845,-0.775,-0.425
5846,-0.765,-0.440
5847,-0.775,-0.445
5848,-0.765,-0.440
5849,-0.765,-0.425
5850,-0.760,-0.420
5851,-0.755,-0.410
5852,-0.760,-0.405
5853,-0.755,-0.420
5854,-0.760,-0.420
5855,-0.765,-0.430
5856,-0.780,-0.435
5857,-0.780,-0.445
5858,-0.790,-0.450
5859,-0.795,-0.470
5860,-0.810,-0.455
5861,-0.810,-0.435
5862,-0.800,-0.430
5863,-0.825,-0.435
5864,-0.800,-0.420
5865,-0.780,-0.430
5866,-0.770,-0.435
5867,-0.790,-0.435
5868,-0.800,-0.470
5869,-0.805,-0.470
5870,-0.810,-0.485
5871,-0.820,-0.490
5872,-0.820,-0.470
5873,-0.825,-0.455
5874,-0.815,-0.455
5875,-0.815,-0.455
5876,-0.795,-0.440
5877,-0.815,-0.460
5878,-0.805,-0.465
5879,-0.805,-0.465
5880,-0.815,-0.475
5881,-0.825,-0.475
5882,-0.820,-0.500
5883,-0.830,-0.495
5884,-0.825,-0.480
5885,-0.840,-0.480
5886,-0.825,-0.460
5887,-0.815,-0.460
5888,-0.815,-0.455
5889,-0.825,-0.455
5890,-0.810,-0.485
5891,-0.815,-0.485
5892,-0.820,-0.490
5893,-0.840,-0.515
5894,-0.850,-0.495
5895,-0.850,-0.515
5896,-0.845,-0.500
5897,-0.830,-0.490
5898,-0.820,-0.475
5899,-0.825,-0.475
5900,-0.810,-0.465
5901,-0.800,-0.465
5902,-0.795,-0.490
5903,-0.805,-0.485
5904,-0.820,-0.505
5905,-0.830,-0.510
5906,-0.845,-0.510
5907,-0.855,-0.515
5908,-0.855,-0.495
5909,-0.840,-0.490
5910,-0.825,-0.475
5911,-0.840,-0.470
5912,-0.820,-0.465
5913,-0.820,-0.465
5914,-0.815,-0.470
5915,-0.825,-0.480
5916,-0.820,-0.475
5917,-0.825,-0.490
5918,-0.840,-0.490
5919,-0.850,-0.500
5920,-0.855,-0.480
5921,-0.850,-0.475
5922,-0.840,-0.465
5923,-0.830,-0.475
5924,-0.815,-0.450
5925,-0.815,-0.455
5926,-0.825,-0.460
5927,-0.835,-0.480
5928,-0.840,-0.470
5929,-0.845,-0.495
5930,-0.845,-0.495
5931,-0.850,-0.500
5932,-0.845,-0.485
5933,-0.850,-0.465
5934,-0.835,-0.460
5935,-0.825,-0.460
5936,-0.810,-0.475
5937,-0.810,-0.460
5938,-0.820,-0.475
5939,-0.820,-0.480
5940,-0.820,-0.485
5941,-0.835,-0.495
5942,-0.840,-0.490
5943,-0.840,-0.480
5944,-0.830,-0.480
5945,-0.855,-0.475
5946,-0.835,-0.475
5947,-0.830,-0.455
5948,-0.820,-0.455
5949,-0.815,-0.465
5950,-0.820,-0.470
5951,-0.830,-0.465
5952,-0.825,-0.485
5953,-0.835,-0.480
5954,-0.845,-0.500
5955,-0.835,-0.495
5956,-0.840,-0.495
5957,-0.845,-0.490
5958,-0.835,-0.480
5959,-0.830,-0.480
5960,-0.815,-0.465
5961,-0.820,-0.490
5962,-0.830,-0.485
5963,-0.820,-0.485
5964,-0.845,-0.490
5965,-0.845,-0.505
5966,-0.840,-0.495
5967,-0.840,-0.495
5968,-0.835,-0.485
5969,-0.835,-0.480
5970,-0.825,-0.485
5971,-0.820,-0.475
5972,-0.805,-0.460
5973,-0.815,-0.465
5974,-0.810,-0.470
5975,-0.820,-0.485
5976,-0.840,-0.485
5977,-0.845,-0.485
5978,-0.840,-0.500
5979,-0.845,-0.505
5980,-0.840,-0.490
5981,-0.830,-0.485
5982,-0.825,-0.485
5983,-0.815,-0.460
5984,-0.810,-0.450
5985,-0.800,-0.450
5986,-0.810,-0.460
5987,-0.815,-0.460
5988,-0.815,-0.465
5989,-0.820,-0.480
5990,-0.820,-0.485
5991,-0.830,-0.490
5992,-0.830,-0.475
5993,-0.825,-0.455
5994,-0.825,-0.450
5995,-0.825,-0.450
5996,-0.810,-0.435
5997,-0.820,-0.445
5998,-0.815,-0.445
5999,-0.810,-0.460
6000,-0.815,-0.470
6001,-0.815,-0.475
6002,-0.810,-0.465
6003,-0.830,-0.470
6004,-0.820,-0.470
6005,-0.815,-0.455
6006,-0.810,-0.450
6007,-0.805,-0.450
6008,-0.780,-0.435
6009,-0.780,-0.430
6010,-0.790,-0.460
6011,-0.800,-0.460
6012,-0.800,-0.465
6013,-0.790,-0.465
6014,-0.815,-0.460
6015,-0.805,-0.465
6016,-0.800,-0.465
6017,-0.800,-0.450
6018,-0.765,-0.445
6019,-0.755,-0.425
6020,-0.745,-0.425
6021,-0.705,-0.435
6022,-0.695,-0.435
6023,-0.705,-0.435
6024,-0.715,-0.455
6025,-0.720,-0.445
6026,-0.705,-0.435
6027,-0.710,-0.435
6028,-0.690,-0.425
6029,-0.665,-0.400
6030,-0.645,-0.375
6031,-0.635,-0.360
6032,-0.620,-0.345
6033,-0.610,-0.315
6034,-0.605,-0.325
6035,-0.615,-0.330
6036,-0.655,-0.315
6037,-0.675,-0.310
6038,-0.675,-0.320
6039,-0.690,-0.320
6040,-0.695,-0.330
6041,-0.715,-0.320
6042,-0.700,-0.315
6043,-0.700,-0.305
6044,-0.715,-0.305
6045,-0.725,-0.330
6046,-0.765,-0.330
6047,-0.780,-0.365
6048,-0.785,-0.390
6049,-0.795,-0.405
6050,-0.800,-0.420
6051,-0.810,-0.445
6052,-0.815,-0.445
6053,-0.820,-0.440
6054,-0.800,-0.430
6055,-0.800,-0.410
6056,-0.805,-0.405
6057,-0.795,-0.425
6058,-0.800,-0.440
6059,-0.810,-0.435
6060,-0.830,-0.470
6061,-0.845,-0.460
6062,-0.875,-0.480
6063,-0.880,-0.490
6064,-0.865,-0.485
6065,-0.860,-0.475
6066,-0.840,-0.465
6067,-0.815,-0.450
6068,-0.805,-0.445
6069,-0.805,-0.450
6070,-0.805,-0.465
6071,-0.810,-0.470
6072,-0.810,-0.470
6073,-0.820,-0.480
6074,-0.835,-0.475
6075,-0.840,-0.490
6076,-0.840,-0.485
6077,-0.830,-0.475
6078,-0.825,-0.435
6079,-0.795,-0.435
6080,-0.790,-0.430
6081,-0.775,-0.450
6082,-0.730,-0.455
6083,-0.670,-0.445
6084,-0.605,-0.380
6085,-0.520,-0.310
6086,-0.395,-0.150
6087,-0.260,0.035
6088,-0.120,0.270
6089,0.005,0.530
6090,0.055,0.775
6091,0.025,0.985
6092,-0.090,1.130
6093,-0.270,1.150
6094,-0.530,1.045
6095,-0.815,0.835
6096,-1.075,0.505
6097,-1.325,0.145
6098,-1.490,-0.215
6099,-1.560,-0.505
6100,-1.535,-0.695
6101,-1.435,-0.735
6102,-1.335,-0.680
6103,-1.225,-0.580
6104,-1.125,-0.495
6105,-1.040,-0.470
6106,-0.965,-0.465
6107,-0.920,-0.440
6108,-0.875,-0.455
6109,-0.820,-0.455
6110,-0.795,-0.435
6111,-0.780,-0.445
6112,-0.755,-0.430
6113,-0.760,-0.435
6114,-0.760,-0.415
6115,-0.765,-0.415
6116,-0.745,-0.410
6117,-0.740,-0.410
6118,-0.735,-0.430
6119,-0.725,-0.430
6120,-0.725,-0.435
6121,-0.715,-0.445
6122,-0.720,-0.445
6123,-0.730,-0.450
6124,-0.720,-0.430
6125,-0.735,-0.420
6126,-0.715,-0.410
6127,-0.705,-0.390
6128,-0.700,-0.360
6129,-0.670,-0.380
6130,-0.675,-0.385
6131,-0.685,-0.390
6132,-0.690,-0.405
6133,-0.685,-0.400
6134,-0.695,-0.410
6135,-0.680,-0.405
6136,-0.680,-0.415
6137,-0.670,-0.395
6138,-0.670,-0.365
6139,-0.665,-0.360
6140,-0.630,-0.335
6141,-0.635,-0.350
6142,-0.635,-0.355
6143,-0.635,-0.360
6144,-0.640,-0.360
6145,-0.650,-0.365
6146,-0.655,-0.370
6147,-0.665,-0.375
6148,-0.660,-0.350
6149,-0.650,-0.340
6150,-0.645,-0.330
6151,-0.630,-0.310
6152,-0.610,-0.305
6153,-0.610,-0.280
6154,-0.610,-0.275
6155,-0.610,-0.300
6156,-0.595,-0.290
6157,-0.600,-0.305
6158,-0.600,-0.305
6159,-0.600,-0.295
6160,-0.600,-0.275
6161,-0.595,-0.265
6162,-0.575,-0.255
6163,-0.565,-0.245
6164,-0.535,-0.230
6165,-0.530,-0.225
6166,-0.515,-0.235
6167,-0.540,-0.225
6168,-0.545,-0.230
6169,-0.525,-0.225
6170,-0.530,-0.225
6171,-0.510,-0.210
6172,-0.510,-0.190
6173,-0.490,-0.165
6174,-0.465,-0.140
6175,-0.440,-0.125
6176,-0.405,-0.105
6177,-0.380,-0.100
6178,-0.365,-0.110
6179,-0.375,-0.085
6180,-0.345,-0.080
6181,-0.340,-0.070
6182,-0.345,-0.050
6183,-0.320,-0.035
6184,-0.300,-0.015
6185,-0.275,0.020
6186,-0.265,0.030
6187,-0.235,0.060
6188,-0.220,0.080
6189,-0.190,0.085
6190,-0.185,0.110
6191,-0.170,0.100
6192,-0.170,0.105
6193,-0.160,0.120
6194,-0.150,0.135
6195,-0.150,0.140
6196,-0.130,0.150
6197,-0.125,0.165
6198,-0.120,0.195
6199,-0.100,0.190
6200,-0.095,0.215
6201,-0.085,0.210
6202,-0.090,0.210
6203,-0.095,0.210
6204,-0.105,0.215
6205,-0.110,0.190
6206,-0.135,0.175
6207,-0.150,0.170
6208,-0.170,0.170
6209,-0.170,0.165
6210,-0.185,0.155
6211,-0.185,0.145
6212,-0.205,0.125
6213,-0.215,0.110
6214,-0.250,0.070
6215,-0.280,0.050
6216,-0.320,-0.010
6217,-0.370,-0.035
6218,-0.390,-0.065
6219,-0.415,-0.095
6220,-0.450,-0.105
6221,-0.495,-0.130
6222,-0.500,-0.160
6223,-0.525,-0.180
6224,-0.545,-0.215
6225,-0.565,-0.225
6226,-0.570,-0.255
6227,-0.595,-0.295
6228,-0.625,-0.310
6229,-0.650,-0.345
6230,-0.675,-0.365
6231,-0.685,-0.385
6232,-0.705,-0.380
6233,-0.705,-0.395
6234,-0.705,-0.400
6235,-0.710,-0.380
6236,-0.700,-0.400
6237,-0.715,-0.395
6238,-0.730,-0.400
6239,-0.730,-0.440
6240,-0.750,-0.435
6241,-0.775,-0.455
6242,-0.765,-0.445
6243,-0.780,-0.465
6244,-0.790,-0.470
6245,-0.770,-0.460
6246,-0.770,-0.465
6247,-0.755,-0.450
6248,-0.770,-0.455
6249,-0.760,-0.450
6250,-0.755,-0.470
6251,-0.750,-0.485
6252,-0.760,-0.470
6253,-0.770,-0.490
6254,-0.775,-0.500
6255,-0.775,-0.505
6256,-0.775,-0.510
6257,-0.780,-0.490
6258,-0.780,-0.465
6259,-0.780,-0.460
6260,-0.770,-0.470
6261,-0.750,-0.460
6262,-0.745,-0.480
6263,-0.755,-0.480
6264,-0.760,-0.480
6265,-0.765,-0.490
6266,-0.760,-0.505
6267,-0.760,-0.510
6268,-0.760,-0.505
6269,-0.745,-0.495
6270,-0.750,-0.485
6271,-0.735,-0.465
6272,-0.730,-0.465
6273,-0.730,-0.460
6274,-0.725,-0.445
6275,-0.725,-0.450
6276,-0.745,-0.475
6277,-0.755,-0.475
6278,-0.750,-0.480
6279,-0.760,-0.485
6280,-0.760,-0.475
6281,-0.765,-0.460
6282,-0.775,-0.450
6283,-0.750,-0.440
6284,-0.735,-0.425
6285,-0.730,-0.425
6286,-0.725,-0.450
6287,-0.735,-0.450
6288,-0.745,-0.470
6289,-0.760,-0.475
6290,-0.765,-0.480
6291,-0.770,-0.490
6292,-0.790,-0.475
6293,-0.785,-0.470
6294,-0.770,-0.465
6295,-0.765,-0.455
6296,-0.745,-0.450
6297,-0.765,-0.455
6298,-0.770,-0.465
6299,-0.765,-0.470
6300,-0.785,-0.480
6301,-0.780,-0.490
6302,-0.790,-0.500
6303,-0.785,-0.495
6304,-0.795,-0.490
6305,-0.795,-0.495
6306,-0.795,-0.475
6307,-0.785,-0.470
6308,-0.775,-0.460
6309,-0.785,-0.465
6310,-0.785,-0.480
6311,-0.805,-0.480
6312,-0.805,-0.485
6313,-0.810,-0.505
6314,-0.825,-0.515
6315,-0.835,-0.510
6316,-0.830,-0.505
6317,-0.825,-0.485
6318,-0.815,-0.485
6319,-0.815,-0.485
6320,-0.800,-0.475
6321,-0.795,-0.485
6322,-0.810,-0.495
6323,-0.805,-0.495
6324,-0.830,-0.520
6325,-0.840,-0.515
6326,-0.840,-0.525
6327,-0.855,-0.510
6328,-0.840,-0.510
6329,-0.840,-0.515
6330,-0.830,-0.500
6331,-0.835,-0.480
6332,-0.830,-0.480
6333,-0.825,-0.495
6334,-0.810,-0.485
6335,-0.810,-0.495
6336,-0.840,-0.515
6337,-0.835,-0.525
6338,-0.830,-0.515
6339,-0.835,-0.510
6340,-0.845,-0.515
6341,-0.850,-0.495
6342,-0.840,-0.495
6343,-0.845,-0.500
6344,-0.840,-0.470
6345,-0.825,-0.490
6346,-0.835,-0.480
6347,-0.835,-0.485
6348,-0.860,-0.485
6349,-0.855,-0.500
6350,-0.865,-0.510
6351,-0.890,-0.535
6352,-0.875,-0.510
6353,-0.870,-0.505
6354,-0.875,-0.475
6355,-0.845,-0.475
6356,-0.830,-0.470
6357,-0.820,-0.470
6358,-0.845,-0.465
6359,-0.845,-0.475
6360,-0.855,-0.490
6361,-0.860,-0.500
6362,-0.870,-0.500
6363,-0.870,-0.510
6364,-0.880,-0.495
6365,-0.870,-0.480
6366,-0.860,-0.485
6367,-0.850,-0.485
6368,-0.855,-0.470
6369,-0.845,-0.460
6370,-0.855,-0.470
6371,-0.870,-0.480
6372,-0.885,-0.495
6373,-0.885,-0.495
6374,-0.900,-0.505
6375,-0.885,-0.495
6376,-0.895,-0.500
6377,-0.880,-0.475
6378,-0.880,-0.485
6379,-0.870,-0.470
6380,-0.865,-0.465
6381,-0.850,-0.475
6382,-0.850,-0.485
6383,-0.855,-0.495
6384,-0.865,-0.495
6385,-0.880,-0.510
6386,-0.885,-0.505
6387,-0.890,-0.505
6388,-0.885,-0.510
6389,-0.890,-0.485
6390,-0.870,-0.470
6391,-0.870,-0.465
6392,-0.870,-0.455
6393,-0.850,-0.460
6394,-0.860,-0.470
6395,-0.875,-0.475
6396,-0.855,-0.500
6397,-0.870,-0.500
6398,-0.875,-0.515
6399,-0.870,-0.515
