'sample interval','MLII','V1'
'0.00277778 sec','mV','mV'
0,-0.080,0.135
1,-0.080,0.135
2,-0.080,0.135
3,-0.080,0.135
4,-0.080,0.135
5,-0.080,0.135
6,-0.080,0.135
7,-0.080,0.135
8,-0.075,0.135
9,-0.075,0.145
10,-0.090,0.155
11,-0.065,0.175
12,-0.055,0.180
13,-0.050,0.175
14,-0.050,0.165
15,-0.065,0.145
16,-0.070,0.145
17,-0.075,0.150
18,-0.080,0.150
19,-0.080,0.150
20,-0.085,0.150
21,-0.085,0.155
22,-0.095,0.155
23,-0.075,0.170
24,-0.070,0.175
25,-0.065,0.170
26,-0.060,0.145
27,-0.070,0.140
28,-0.075,0.135
29,-0.075,0.150
30,-0.080,0.155
31,-0.075,0.145
32,-0.070,0.140
33,-0.060,0.145
34,-0.065,0.170
35,-0.055,0.185
36,-0.055,0.170
37,-0.050,0.170
38,-0.050,0.150
39,-0.050,0.140
40,-0.060,0.135
41,-0.065,0.145
42,-0.065,0.145
43,-0.080,0.145
44,-0.065,0.150
45,-0.065,0.140
46,-0.060,0.160
47,-0.055,0.170
48,-0.055,0.170
49,-0.050,0.170
50,-0.050,0.140
51,-0.065,0.140
52,-0.065,0.130
53,-0.060,0.150
54,-0.050,0.155
55,-0.050,0.145
56,-0.045,0.150
57,-0.045,0.140
58,-0.050,0.150
59,-0.050,0.170
60,-0.050,0.175
61,-0.045,0.165
62,-0.055,0.155
63,-0.050,0.140
64,-0.065,0.140
65,-0.080,0.140
66,-0.080,0.150
67,-0.065,0.150
68,-0.060,0.155
69,-0.055,0.160
70,-0.050,0.175
71,-0.050,0.195
72,-0.035,0.190
73,-0.020,0.185
74,-0.015,0.175
75,-0.020,0.175
76,-0.015,0.180
77,-0.010,0.215
78,0.005,0.195
79,0.015,0.195
80,0.025,0.190
81,0.035,0.195
82,0.060,0.205
83,0.075,0.230
84,0.090,0.220
85,0.115,0.200
86,0.135,0.180
87,0.130,0.170
88,0.125,0.155
89,0.105,0.165
90,0.095,0.165
91,0.105,0.160
92,0.095,0.155
93,0.100,0.155
94,0.105,0.175
95,0.105,0.165
96,0.085,0.165
97,0.070,0.135
98,0.045,0.100
99,0.010,0.105
100,-0.020,0.125
101,-0.050,0.125
102,-0.070,0.135
103,-0.090,0.135
104,-0.095,0.135
105,-0.080,0.120
106,-0.080,0.135
107,-0.075,0.145
108,-0.085,0.145
109,-0.090,0.135
110,-0.095,0.115
111,-0.110,0.115
112,-0.120,0.115
113,-0.125,0.130
114,-0.135,0.135
115,-0.135,0.120
116,-0.140,0.120
117,-0.125,0.110
118,-0.125,0.130
119,-0.115,0.135
120,-0.130,0.140
121,-0.120,0.105
122,-0.125,0.090
123,-0.140,0.085
124,-0.155,0.095
125,-0.135,0.110
126,-0.070,0.100
127,0.025,0.085
128,0.190,0.080
129,0.395,0.075
130,0.635,0.085
131,0.900,0.120
132,1.180,0.185
133,1.415,0.260
134,1.595,0.390
135,1.660,0.525
136,1.575,0.645
137,1.370,0.730
138,1.065,0.735
139,0.720,0.645
140,0.380,0.495
141,0.110,0.335
142,-0.090,0.165
143,-0.185,0.055
144,-0.230,-0.020
145,-0.205,-0.020
146,-0.165,0.020
147,-0.120,0.075
148,-0.110,0.125
149,-0.125,0.130
150,-0.140,0.130
151,-0.155,0.110
152,-0.170,0.110
153,-0.185,0.120
154,-0.190,0.125
155,-0.180,0.125
156,-0.175,0.115
157,-0.155,0.100
158,-0.180,0.105
159,-0.180,0.105
160,-0.180,0.100
161,-0.190,0.085
162,-0.205,0.070
163,-0.220,0.080
164,-0.215,0.105
165,-0.190,0.115
166,-0.170,0.115
167,-0.155,0.095
168,-0.150,0.090
169,-0.150,0.105
170,-0.170,0.095
171,-0.175,0.075
172,-0.165,0.070
173,-0.175,0.080
174,-0.190,0.085
175,-0.190,0.100
176,-0.185,0.090
177,-0.155,0.080
178,-0.140,0.090
179,-0.130,0.080
180,-0.130,0.090
181,-0.135,0.085
182,-0.135,0.060
183,-0.140,0.040
184,-0.140,0.030
185,-0.150,0.030
186,-0.155,0.045
187,-0.145,0.040
188,-0.150,0.040
189,-0.145,0.030
190,-0.120,0.030
191,-0.105,0.045
192,-0.095,0.040
193,-0.085,0.025
194,-0.080,0.020
195,-0.080,0.000
196,-0.080,0.000
197,-0.085,0.000
198,-0.080,0.000
199,-0.095,0.000
200,-0.075,-0.010
201,-0.070,-0.025
202,-0.065,-0.005
203,-0.045,0.000
204,-0.025,-0.010
205,-0.025,-0.010
206,-0.020,-0.025
207,-0.020,-0.035
208,-0.030,-0.030
209,-0.035,-0.040
210,-0.030,-0.035
211,-0.035,-0.045
212,-0.035,-0.045
213,-0.035,-0.040
214,-0.035,-0.020
215,-0.030,-0.010
216,-0.025,-0.025
217,-0.010,-0.030
218,-0.010,-0.030
219,-0.020,-0.020
220,-0.035,-0.010
221,-0.030,0.000
222,-0.025,-0.005
223,-0.010,0.000
224,0.000,0.005
225,0.020,0.040
226,0.040,0.070
227,0.065,0.085
228,0.065,0.095
229,0.060,0.095
230,0.055,0.110
231,0.075,0.120
232,0.070,0.135
233,0.060,0.130
234,0.055,0.125
235,0.045,0.110
236,0.035,0.115
237,0.045,0.135
238,0.040,0.155
239,0.045,0.150
240,0.040,0.145
241,0.045,0.125
242,0.045,0.135
243,0.030,0.150
244,0.020,0.155
245,0.030,0.160
246,0.020,0.160
247,0.025,0.140
248,0.030,0.155
249,0.030,0.155
250,0.035,0.175
251,0.035,0.180
252,0.030,0.160
253,0.030,0.145
254,0.035,0.135
255,0.035,0.140
256,0.030,0.150
257,0.030,0.140
258,0.030,0.140
259,0.025,0.130
260,0.030,0.135
261,0.030,0.165
262,0.035,0.165
263,0.040,0.175
264,0.040,0.165
265,0.045,0.160
266,0.045,0.130
267,0.030,0.125
268,0.030,0.140
269,0.015,0.130
270,0.045,0.130
271,0.045,0.135
272,0.055,0.135
273,0.045,0.145
274,0.055,0.170
275,0.060,0.175
276,0.055,0.165
277,0.055,0.150
278,0.060,0.130
279,0.045,0.110
280,0.050,0.135
281,0.035,0.140
282,0.040,0.140
283,0.050,0.130
284,0.055,0.120
285,0.060,0.135
286,0.070,0.150
287,0.080,0.175
288,0.070,0.180
289,0.070,0.165
290,0.045,0.135
291,0.045,0.125
292,0.035,0.135
293,0.035,0.130
294,0.035,0.145
295,0.045,0.130
296,0.050,0.130
297,0.045,0.130
298,0.055,0.150
299,0.060,0.165
300,0.065,0.165
301,0.055,0.155
302,0.070,0.135
303,0.065,0.135
304,0.055,0.155
305,0.055,0.170
306,0.060,0.190
307,0.080,0.175
308,0.100,0.190
309,0.110,0.195
310,0.130,0.210
311,0.130,0.230
312,0.140,0.220
313,0.170,0.205
314,0.180,0.185
315,0.195,0.175
316,0.195,0.170
317,0.205,0.185
318,0.215,0.165
319,0.210,0.165
320,0.210,0.150
321,0.210,0.155
322,0.215,0.175
323,0.215,0.175
324,0.220,0.180
325,0.220,0.155
326,0.205,0.120
327,0.180,0.095
328,0.150,0.085
329,0.125,0.100
330,0.090,0.115
331,0.070,0.115
332,0.065,0.115
333,0.045,0.140
334,0.040,0.155
335,0.040,0.155
336,0.040,0.155
337,0.020,0.130
338,0.015,0.110
339,0.010,0.090
340,0.010,0.080
341,-0.010,0.100
342,-0.005,0.115
343,-0.010,0.105
344,-0.020,0.100
345,-0.020,0.110
346,-0.020,0.110
347,-0.010,0.120
348,-0.015,0.125
349,-0.010,0.115
350,-0.010,0.105
351,-0.020,0.080
352,-0.040,0.075
353,-0.035,0.070
354,-0.060,0.085
355,-0.065,0.075
356,-0.040,0.085
357,0.020,0.095
358,0.115,0.110
359,0.240,0.105
360,0.395,0.095
361,0.600,0.075
362,0.855,0.055
363,1.110,0.060
364,1.370,0.125
365,1.590,0.215
366,1.735,0.350
367,1.770,0.475
368,1.640,0.585
369,1.410,0.630
370,1.090,0.610
371,0.740,0.535
372,0.425,0.380
373,0.175,0.215
374,-0.010,0.060
375,-0.095,-0.045
376,-0.110,-0.055
377,-0.100,-0.035
378,-0.060,0.035
379,-0.025,0.080
380,-0.010,0.105
381,-0.035,0.105
382,-0.055,0.110
383,-0.075,0.115
384,-0.110,0.100
385,-0.120,0.090
386,-0.125,0.075
387,-0.120,0.060
388,-0.120,0.070
389,-0.120,0.085
390,-0.140,0.100
391,-0.125,0.090
392,-0.125,0.075
393,-0.125,0.075
394,-0.120,0.090
395,-0.120,0.105
396,-0.115,0.115
397,-0.115,0.100
398,-0.110,0.075
399,-0.135,0.070
400,-0.135,0.060
401,-0.145,0.070
402,-0.140,0.065
403,-0.130,0.055
404,-0.120,0.070
405,-0.120,0.070
406,-0.120,0.085
407,-0.110,0.080
408,-0.105,0.075
409,-0.105,0.055
410,-0.115,0.045
411,-0.115,0.045
412,-0.125,0.050
413,-0.125,0.065
414,-0.115,0.060
415,-0.110,0.060
416,-0.100,0.050
417,-0.095,0.060
418,-0.085,0.080
419,-0.075,0.070
420,-0.070,0.055
421,-0.065,0.035
422,-0.080,0.030
423,-0.095,0.015
424,-0.095,0.035
425,-0.095,0.035
426,-0.090,0.015
427,-0.080,0.000
428,-0.080,0.010
429,-0.060,0.015
430,-0.060,0.015
431,-0.030,0.010
432,-0.030,0.000
433,-0.025,-0.020
434,-0.035,-0.015
435,-0.035,-0.005
436,-0.055,-0.010
437,-0.045,-0.030
438,-0.050,-0.060
439,-0.040,-0.060
440,-0.030,-0.040
441,-0.020,-0.025
442,0.000,-0.020
443,0.010,-0.025
444,0.005,-0.050
445,0.005,-0.055
446,-0.015,-0.050
447,-0.025,-0.050
448,-0.025,-0.060
449,-0.035,-0.070
450,-0.025,-0.075
451,-0.020,-0.065
452,-0.030,-0.050
453,-0.020,-0.020
454,0.000,-0.015
455,0.010,-0.010
456,0.005,-0.015
457,0.000,-0.010
458,0.005,0.005
459,-0.005,0.020
460,0.000,0.020
461,0.000,0.020
462,0.015,0.020
463,0.015,0.050
464,0.020,0.080
465,0.040,0.110
466,0.060,0.130
467,0.070,0.120
468,0.070,0.115
469,0.070,0.110
470,0.050,0.110
471,0.035,0.120
472,0.025,0.115
473,0.020,0.100
474,0.030,0.110
475,0.015,0.105
476,0.015,0.115
477,0.020,0.140
478,0.030,0.160
479,0.035,0.160
480,0.035,0.150
481,0.040,0.140
482,0.045,0.125
483,0.025,0.135
484,0.025,0.140
485,0.015,0.135
486,0.010,0.115
487,0.000,0.095
488,-0.005,0.105
489,-0.005,0.130
490,-0.005,0.145
491,0.005,0.155
492,0.020,0.135
493,0.030,0.120
494,0.045,0.120
495,0.030,0.130
496,0.030,0.120
497,0.010,0.120
498,-0.005,0.110
499,-0.005,0.105
500,0.005,0.115
501,0.005,0.130
502,0.010,0.150
503,0.020,0.155
504,0.030,0.135
505,0.025,0.130
506,0.025,0.115
507,0.025,0.120
508,0.025,0.135
509,0.005,0.125
510,0.025,0.115
511,0.020,0.100
512,0.025,0.105
513,0.025,0.105
514,0.030,0.140
515,0.040,0.155
516,0.020,0.145
517,0.030,0.135
518,0.030,0.120
519,0.035,0.115
520,0.035,0.125
521,0.035,0.145
522,0.040,0.130
523,0.040,0.125
524,0.035,0.125
525,0.040,0.140
526,0.035,0.155
527,0.035,0.150
528,0.030,0.150
529,0.030,0.120
530,0.035,0.110
531,0.025,0.090
532,0.020,0.105
533,0.010,0.115
534,0.025,0.125
535,0.015,0.125
536,0.035,0.125
537,0.040,0.120
538,0.025,0.150
539,0.030,0.160
540,0.045,0.160
541,0.055,0.155
542,0.060,0.150
543,0.055,0.160
544,0.050,0.170
545,0.060,0.170
546,0.070,0.175
547,0.085,0.175
548,0.110,0.175
549,0.120,0.175
550,0.140,0.185
551,0.160,0.195
552,0.165,0.195
553,0.190,0.185
554,0.205,0.165
555,0.205,0.135
556,0.200,0.120
557,0.175,0.125
558,0.155,0.140
559,0.155,0.150
560,0.165,0.140
561,0.180,0.125
562,0.195,0.130
563,0.210,0.130
564,0.190,0.140
565,0.170,0.140
566,0.155,0.110
567,0.115,0.080
568,0.095,0.075
569,0.055,0.080
570,0.035,0.110
571,0.015,0.135
572,0.015,0.130
573,0.005,0.115
574,-0.005,0.105
575,0.000,0.090
576,-0.025,0.090
577,-0.035,0.105
578,-0.040,0.105
579,-0.040,0.100
580,-0.050,0.070
581,-0.065,0.055
582,-0.080,0.085
583,-0.090,0.100
584,-0.080,0.105
585,-0.075,0.115
586,-0.080,0.095
587,-0.065,0.105
588,-0.060,0.100
589,-0.070,0.120
590,-0.070,0.105
591,-0.070,0.080
592,-0.075,0.065
593,-0.105,0.040
594,-0.110,0.040
595,-0.110,0.060
596,-0.075,0.095
597,0.005,0.100
598,0.115,0.090
599,0.255,0.050
600,0.435,0.035
601,0.655,0.035
602,0.905,0.045
603,1.175,0.090
604,1.440,0.135
605,1.645,0.230
606,1.745,0.335
607,1.690,0.465
608,1.520,0.570
609,1.245,0.600
610,0.915,0.565
611,0.575,0.430
612,0.270,0.265
613,0.045,0.130
614,-0.090,0.005
615,-0.150,-0.060
616,-0.155,-0.075
617,-0.120,-0.045
618,-0.095,0.015
619,-0.080,0.065
620,-0.085,0.125
621,-0.100,0.105
622,-0.120,0.105
623,-0.140,0.085
624,-0.160,0.085
625,-0.170,0.090
626,-0.180,0.110
627,-0.175,0.080
628,-0.165,0.060
629,-0.165,0.055
630,-0.185,0.070
631,-0.180,0.080
632,-0.175,0.105
633,-0.175,0.095
634,-0.170,0.085
635,-0.165,0.080
636,-0.175,0.075
637,-0.175,0.095
638,-0.185,0.090
639,-0.185,0.070
640,-0.185,0.045
641,-0.180,0.055
642,-0.180,0.065
643,-0.175,0.055
644,-0.160,0.075
645,-0.155,0.075
646,-0.160,0.075
647,-0.145,0.065
648,-0.150,0.085
649,-0.165,0.095
650,-0.160,0.085
651,-0.155,0.060
652,-0.175,0.040
653,-0.175,0.025
654,-0.165,0.035
655,-0.165,0.055
656,-0.160,0.060
657,-0.145,0.060
658,-0.125,0.050
659,-0.125,0.055
660,-0.125,0.045
661,-0.140,0.055
662,-0.135,0.035
663,-0.135,0.005
664,-0.135,-0.005
665,-0.140,-0.005
666,-0.140,0.005
667,-0.125,0.015
668,-0.110,0.010
669,-0.115,0.005
670,-0.100,0.000
671,-0.095,0.000
672,-0.095,0.015
673,-0.100,0.015
674,-0.090,-0.020
675,-0.095,-0.040
676,-0.090,-0.065
677,-0.095,-0.065
678,-0.100,-0.055
679,-0.095,-0.040
680,-0.080,-0.035
681,-0.055,-0.040
682,-0.040,-0.050
683,-0.030,-0.025
684,-0.025,-0.020
685,-0.025,-0.015
686,-0.035,-0.035
687,-0.040,-0.050
688,-0.050,-0.080
689,-0.055,-0.060
690,-0.070,-0.050
691,-0.065,-0.025
692,-0.050,-0.040
693,-0.040,-0.045
694,-0.025,-0.045
695,-0.025,-0.025
696,-0.005,-0.020
697,-0.020,-0.010
698,-0.010,-0.010
699,-0.015,-0.010
700,-0.015,0.015
701,-0.020,0.030
702,-0.015,0.050
703,-0.015,0.060
704,0.000,0.065
705,0.015,0.070
706,0.015,0.110
707,0.030,0.130
708,0.030,0.140
709,0.025,0.135
710,0.015,0.120
711,0.005,0.090
712,-0.005,0.115
713,-0.020,0.125
714,-0.030,0.130
715,-0.030,0.135
716,-0.020,0.120
717,-0.025,0.115
718,-0.015,0.135
719,-0.020,0.145
720,-0.015,0.140
721,-0.015,0.125
722,-0.020,0.115
723,-0.035,0.110
724,-0.045,0.110
725,-0.045,0.120
726,-0.060,0.125
727,-0.065,0.120
728,-0.060,0.115
729,-0.060,0.135
730,-0.045,0.155
731,-0.030,0.165
732,-0.020,0.150
733,-0.010,0.135
734,-0.015,0.115
735,-0.030,0.115
736,-0.035,0.120
737,-0.050,0.105
738,-0.050,0.100
739,-0.055,0.105
740,-0.045,0.120
741,-0.040,0.135
742,-0.030,0.145
743,-0.020,0.145
744,-0.015,0.120
745,-0.015,0.120
746,-0.015,0.130
747,-0.020,0.135
748,-0.035,0.120
749,-0.040,0.105
750,-0.045,0.090
751,-0.045,0.110
752,-0.035,0.120
753,-0.030,0.145
754,-0.020,0.155
755,-0.005,0.145
756,0.005,0.145
757,-0.005,0.135
758,0.000,0.130
759,-0.015,0.125
760,-0.030,0.120
761,-0.035,0.100
762,-0.035,0.095
763,-0.030,0.100
764,-0.050,0.110
765,-0.045,0.145
766,-0.055,0.160
767,-0.040,0.155
768,-0.035,0.140
769,-0.030,0.130
770,-0.030,0.130
771,-0.025,0.140
772,-0.030,0.150
773,-0.035,0.125
774,-0.035,0.110
775,-0.030,0.105
776,-0.015,0.120
777,-0.015,0.140
778,-0.005,0.165
779,0.020,0.185
780,0.040,0.160
781,0.045,0.175
782,0.050,0.170
783,0.045,0.180
784,0.045,0.185
785,0.050,0.180
786,0.065,0.175
787,0.085,0.165
788,0.095,0.175
789,0.105,0.175
790,0.125,0.185
791,0.130,0.185
792,0.145,0.160
793,0.125,0.135
794,0.110,0.140
795,0.120,0.130
796,0.115,0.135
797,0.120,0.135
798,0.120,0.120
799,0.105,0.105
800,0.090,0.090
801,0.070,0.110
802,0.035,0.110
803,0.025,0.120
804,0.000,0.115
805,-0.010,0.120
806,-0.020,0.105
807,-0.040,0.125
808,-0.060,0.130
809,-0.075,0.125
810,-0.090,0.115
811,-0.090,0.100
812,-0.095,0.095
813,-0.100,0.100
814,-0.105,0.100
815,-0.100,0.130
816,-0.100,0.115
817,-0.100,0.105
818,-0.100,0.085
819,-0.115,0.070
820,-0.120,0.070
821,-0.130,0.095
822,-0.130,0.100
823,-0.125,0.090
824,-0.115,0.090
825,-0.105,0.095
826,-0.110,0.105
827,-0.110,0.120
828,-0.130,0.115
829,-0.145,0.090
830,-0.130,0.075
831,-0.100,0.070
832,-0.040,0.085
833,0.055,0.090
834,0.180,0.080
835,0.360,0.055
836,0.575,0.020
837,0.835,0.030
838,1.115,0.080
839,1.375,0.170
840,1.585,0.285
841,1.690,0.395
842,1.680,0.490
843,1.525,0.565
844,1.255,0.600
845,0.950,0.570
846,0.630,0.490
847,0.320,0.350
848,0.085,0.190
849,-0.060,0.050
850,-0.135,-0.040
851,-0.155,-0.040
852,-0.145,-0.010
853,-0.110,0.035
854,-0.085,0.065
855,-0.065,0.070
856,-0.085,0.065
857,-0.125,0.075
858,-0.165,0.085
859,-0.175,0.095
860,-0.195,0.100
861,-0.205,0.100
862,-0.195,0.075
863,-0.185,0.075
864,-0.180,0.090
865,-0.195,0.095
866,-0.180,0.095
867,-0.175,0.075
868,-0.185,0.050
869,-0.195,0.040
870,-0.200,0.035
871,-0.205,0.070
872,-0.205,0.090
873,-0.200,0.090
874,-0.195,0.080
875,-0.180,0.085
876,-0.190,0.080
877,-0.185,0.085
878,-0.180,0.090
879,-0.180,0.075
880,-0.180,0.045
881,-0.180,0.020
882,-0.185,0.025
883,-0.185,0.040
884,-0.190,0.060
885,-0.200,0.070
886,-0.180,0.070
887,-0.180,0.060
888,-0.180,0.050
889,-0.175,0.060
890,-0.170,0.060
891,-0.180,0.050
892,-0.175,0.040
893,-0.170,0.010
894,-0.170,0.015
895,-0.170,0.030
896,-0.175,0.045
897,-0.170,0.035
898,-0.145,0.035
899,-0.145,0.025
900,-0.150,0.005
901,-0.150,0.020
902,-0.145,0.010
903,-0.140,0.015
904,-0.135,0.000
905,-0.135,-0.030
906,-0.125,-0.020
907,-0.140,-0.025
908,-0.120,-0.005
909,-0.115,-0.005
910,-0.110,-0.025
911,-0.090,-0.025
912,-0.085,-0.045
913,-0.095,-0.035
914,-0.095,-0.030
915,-0.100,-0.035
916,-0.090,-0.055
917,-0.110,-0.080
918,-0.090,-0.085
919,-0.085,-0.075
920,-0.080,-0.065
921,-0.070,-0.050
922,-0.075,-0.060
923,-0.050,-0.080
924,-0.055,-0.080
925,-0.045,-0.080
926,-0.050,-0.080
927,-0.070,-0.070
928,-0.075,-0.075
929,-0.070,-0.105
930,-0.080,-0.100
931,-0.065,-0.090
932,-0.070,-0.065
933,-0.065,-0.050
934,-0.045,-0.050
935,-0.035,-0.050
936,-0.040,-0.060
937,-0.025,-0.045
938,-0.025,-0.010
939,-0.020,0.005
940,-0.025,0.000
941,-0.040,0.000
942,-0.045,-0.010
943,-0.035,0.005
944,-0.030,0.045
945,-0.005,0.080
946,-0.010,0.085
947,0.010,0.095
948,0.010,0.090
949,0.015,0.095
950,0.020,0.090
951,0.000,0.105
952,-0.010,0.100
953,-0.010,0.075
954,-0.020,0.070
955,-0.025,0.085
956,-0.030,0.095
957,-0.035,0.125
958,-0.030,0.135
959,-0.010,0.120
960,0.000,0.105
961,-0.010,0.100
962,-0.010,0.105
963,-0.020,0.110
964,-0.030,0.120
965,-0.030,0.120
966,-0.040,0.095
967,-0.045,0.095
968,-0.035,0.100
969,-0.040,0.110
970,-0.035,0.125
971,-0.030,0.110
972,-0.015,0.095
973,-0.010,0.090
974,-0.010,0.105
975,-0.015,0.105
976,-0.010,0.110
977,-0.025,0.090
978,-0.035,0.075
979,-0.040,0.075
980,-0.045,0.095
981,-0.040,0.125
982,-0.040,0.120
983,-0.030,0.120
984,-0.015,0.105
985,-0.015,0.095
986,-0.025,0.095
987,-0.010,0.110
988,-0.020,0.110
989,-0.030,0.090
990,-0.020,0.080
991,-0.025,0.085
992,-0.025,0.100
993,-0.035,0.120
994,-0.035,0.115
995,-0.035,0.115
996,-0.010,0.100
997,-0.010,0.095
998,-0.010,0.120
999,-0.025,0.120
1000,-0.030,0.100
1001,-0.025,0.090
1002,-0.030,0.085
1003,-0.045,0.115
1004,-0.025,0.125
1005,-0.030,0.135
1006,-0.030,0.135
1007,-0.020,0.110
1008,-0.030,0.105
1009,-0.035,0.090
1010,-0.045,0.095
1011,-0.045,0.095
1012,-0.050,0.090
1013,-0.065,0.090
1014,-0.050,0.090
1015,-0.055,0.120
1016,-0.025,0.125
1017,-0.030,0.145
1018,-0.015,0.130
1019,0.005,0.130
1020,0.005,0.150
1021,0.010,0.165
1022,0.015,0.170
1023,0.015,0.175
1024,0.020,0.155
1025,0.030,0.145
1026,0.040,0.165
1027,0.060,0.175
1028,0.075,0.180
1029,0.110,0.175
1030,0.145,0.150
1031,0.145,0.130
1032,0.150,0.125
1033,0.145,0.125
1034,0.120,0.125
1035,0.105,0.105
1036,0.100,0.090
1037,0.095,0.095
1038,0.095,0.100
1039,0.095,0.105
1040,0.075,0.125
1041,0.085,0.110
1042,0.075,0.100
1043,0.050,0.085
1044,0.015,0.085
1045,0.000,0.100
1046,-0.025,0.110
1047,-0.050,0.110
1048,-0.060,0.090
1049,-0.070,0.070
1050,-0.095,0.075
1051,-0.100,0.070
1052,-0.105,0.095
1053,-0.100,0.100
1054,-0.090,0.085
1055,-0.085,0.065
1056,-0.090,0.075
1057,-0.095,0.080
1058,-0.105,0.090
1059,-0.120,0.090
1060,-0.115,0.075
1061,-0.125,0.060
1062,-0.130,0.060
1063,-0.140,0.085
1064,-0.135,0.095
1065,-0.125,0.115
1066,-0.125,0.100
1067,-0.125,0.070
1068,-0.140,0.050
1069,-0.145,0.025
1070,-0.160,0.040
1071,-0.170,0.055
1072,-0.120,0.070
1073,-0.060,0.070
1074,0.030,0.045
1075,0.145,0.025
1076,0.310,0.000
1077,0.520,0.010
1078,0.775,0.035
1079,1.050,0.065
1080,1.315,0.130
1081,1.525,0.235
1082,1.645,0.330
1083,1.650,0.445
1084,1.505,0.560
1085,1.260,0.595
1086,0.955,0.590
1087,0.630,0.505
1088,0.335,0.365
1089,0.100,0.220
1090,-0.055,0.090
1091,-0.140,-0.020
1092,-0.165,-0.070
1093,-0.150,-0.085
1094,-0.120,-0.040
1095,-0.090,0.010
1096,-0.085,0.070
1097,-0.090,0.090
1098,-0.110,0.095
1099,-0.155,0.085
1100,-0.165,0.075
1101,-0.185,0.075
1102,-0.195,0.085
1103,-0.200,0.080
1104,-0.195,0.065
1105,-0.190,0.060
1106,-0.185,0.055
1107,-0.195,0.075
1108,-0.200,0.085
1109,-0.200,0.080
1110,-0.200,0.075
1111,-0.195,0.050
1112,-0.185,0.040
1113,-0.185,0.055
1114,-0.185,0.070
1115,-0.190,0.075
1116,-0.180,0.070
1117,-0.175,0.050
1118,-0.190,0.045
1119,-0.205,0.035
1120,-0.205,0.045
1121,-0.200,0.050
1122,-0.190,0.050
1123,-0.185,0.035
1124,-0.180,0.020
1125,-0.165,0.035
1126,-0.155,0.055
1127,-0.155,0.075
1128,-0.155,0.060
1129,-0.145,0.035
1130,-0.165,0.025
1131,-0.165,0.015
1132,-0.170,0.025
1133,-0.180,0.035
1134,-0.175,0.045
1135,-0.170,0.020
1136,-0.165,0.020
1137,-0.165,0.015
1138,-0.150,0.020
1139,-0.145,0.025
1140,-0.140,0.025
1141,-0.125,0.005
1142,-0.135,-0.015
1143,-0.130,-0.030
1144,-0.145,-0.025
1145,-0.150,-0.005
1146,-0.145,0.015
1147,-0.160,0.010
1148,-0.155,-0.010
1149,-0.140,-0.030
1150,-0.130,-0.025
1151,-0.110,-0.020
1152,-0.105,-0.005
1153,-0.105,-0.015
1154,-0.100,-0.030
1155,-0.090,-0.050
1156,-0.095,-0.075
1157,-0.100,-0.070
1158,-0.110,-0.055
1159,-0.110,-0.035
1160,-0.110,-0.045
1161,-0.090,-0.040
1162,-0.075,-0.050
1163,-0.070,-0.050
1164,-0.075,-0.040
1165,-0.070,-0.040
1166,-0.070,-0.050
1167,-0.065,-0.065
1168,-0.070,-0.075
1169,-0.070,-0.075
1170,-0.065,-0.060
1171,-0.070,-0.035
1172,-0.065,-0.020
1173,-0.065,-0.015
1174,-0.060,-0.030
1175,-0.045,-0.050
1176,-0.055,-0.045
1177,-0.060,-0.035
1178,-0.065,-0.020
1179,-0.065,-0.035
1180,-0.070,-0.040
1181,-0.055,-0.040
1182,-0.030,-0.030
1183,-0.015,0.020
1184,-0.005,0.060
1185,0.005,0.055
1186,0.010,0.060
1187,0.020,0.050
1188,0.010,0.055
1189,0.015,0.070
1190,0.010,0.095
1191,-0.010,0.105
1192,-0.020,0.100
1193,-0.035,0.090
1194,-0.005,0.095
1195,-0.005,0.100
1196,0.000,0.130
1197,0.005,0.155
1198,0.010,0.140
1199,0.010,0.120
1200,0.000,0.110
1201,0.000,0.110
1202,-0.015,0.115
1203,-0.025,0.120
1204,-0.025,0.110
1205,-0.030,0.105
1206,-0.030,0.090
1207,-0.030,0.100
1208,-0.025,0.115
1209,-0.025,0.145
1210,-0.010,0.155
1211,0.005,0.140
1212,-0.005,0.120
1213,0.000,0.105
1214,-0.020,0.090
1215,-0.030,0.105
1216,-0.045,0.110
1217,-0.045,0.100
1218,-0.055,0.100
1219,-0.040,0.105
1220,-0.040,0.110
1221,-0.025,0.140
1222,-0.020,0.130
1223,-0.010,0.135
1224,0.000,0.110
1225,0.010,0.095
1226,-0.005,0.095
1227,-0.015,0.105
1228,-0.025,0.115
1229,-0.020,0.105
1230,-0.025,0.105
1231,-0.030,0.080
1232,-0.025,0.095
1233,-0.020,0.120
1234,-0.015,0.145
1235,0.000,0.150
1236,0.000,0.135
1237,0.000,0.125
1238,-0.005,0.115
1239,0.000,0.110
1240,-0.015,0.120
1241,-0.015,0.130
1242,-0.025,0.105
1243,-0.020,0.100
1244,-0.035,0.085
1245,-0.030,0.105
1246,-0.020,0.130
1247,-0.015,0.135
1248,-0.005,0.145
1249,0.000,0.125
1250,-0.010,0.105
1251,-0.015,0.095
1252,-0.020,0.100
1253,-0.020,0.115
1254,-0.020,0.120
1255,-0.030,0.105
1256,-0.030,0.105
1257,-0.025,0.115
1258,-0.020,0.135
1259,-0.015,0.140
1260,-0.020,0.145
1261,-0.020,0.145
1262,-0.015,0.115
1263,-0.010,0.105
1264,-0.020,0.125
1265,-0.020,0.135
1266,0.000,0.145
1267,0.005,0.145
1268,0.010,0.155
1269,0.025,0.175
1270,0.030,0.200
1271,0.040,0.205
1272,0.065,0.195
1273,0.075,0.180
1274,0.075,0.160
1275,0.090,0.170
1276,0.105,0.170
1277,0.110,0.175
1278,0.145,0.170
1279,0.160,0.155
1280,0.155,0.140
1281,0.160,0.145
1282,0.150,0.165
1283,0.140,0.180
1284,0.130,0.170
1285,0.135,0.135
1286,0.120,0.095
1287,0.095,0.085
1288,0.075,0.090
1289,0.055,0.095
1290,0.040,0.095
1291,0.015,0.095
1292,0.015,0.095
1293,0.000,0.125
1294,-0.015,0.145
1295,-0.020,0.160
1296,-0.045,0.145
1297,-0.055,0.120
1298,-0.075,0.100
1299,-0.100,0.095
1300,-0.115,0.105
1301,-0.120,0.115
1302,-0.115,0.110
1303,-0.110,0.100
1304,-0.090,0.095
1305,-0.105,0.105
1306,-0.095,0.120
1307,-0.095,0.130
1308,-0.105,0.130
1309,-0.105,0.120
1310,-0.110,0.095
1311,-0.125,0.090
1312,-0.125,0.095
1313,-0.155,0.085
1314,-0.160,0.080
1315,-0.170,0.055
1316,-0.155,0.045
1317,-0.135,0.075
1318,-0.080,0.105
1319,0.015,0.110
1320,0.155,0.090
1321,0.345,0.065
1322,0.585,0.030
1323,0.850,0.050
1324,1.105,0.120
1325,1.355,0.220
1326,1.550,0.325
1327,1.620,0.460
1328,1.550,0.575
1329,1.330,0.660
1330,1.005,0.655
1331,0.640,0.550
1332,0.305,0.375
1333,0.030,0.200
1334,-0.135,0.055
1335,-0.215,-0.025
1336,-0.215,-0.040
1337,-0.195,-0.020
1338,-0.160,0.020
1339,-0.120,0.080
1340,-0.105,0.130
1341,-0.110,0.145
1342,-0.135,0.150
1343,-0.135,0.115
1344,-0.165,0.110
1345,-0.175,0.105
1346,-0.185,0.100
1347,-0.200,0.105
1348,-0.210,0.090
1349,-0.230,0.075
1350,-0.225,0.065
1351,-0.225,0.070
1352,-0.215,0.090
1353,-0.205,0.105
1354,-0.195,0.105
1355,-0.180,0.095
1356,-0.180,0.085
1357,-0.185,0.105
1358,-0.190,0.110
1359,-0.200,0.110
1360,-0.200,0.100
1361,-0.210,0.070
1362,-0.210,0.075
1363,-0.220,0.070
1364,-0.210,0.100
1365,-0.210,0.120
1366,-0.185,0.115
1367,-0.170,0.090
1368,-0.170,0.075
1369,-0.175,0.080
1370,-0.190,0.085
1371,-0.185,0.075
1372,-0.200,0.060
1373,-0.205,0.045
1374,-0.200,0.055
1375,-0.190,0.075
1376,-0.200,0.075
1377,-0.185,0.090
1378,-0.175,0.070
1379,-0.155,0.055
1380,-0.165,0.045
1381,-0.150,0.050
1382,-0.150,0.055
1383,-0.145,0.040
1384,-0.160,0.030
1385,-0.155,0.020
1386,-0.175,0.025
1387,-0.180,0.030
1388,-0.165,0.030
1389,-0.145,0.025
1390,-0.145,0.025
1391,-0.130,-0.005
1392,-0.115,-0.010
1393,-0.120,0.000
1394,-0.110,0.000
1395,-0.115,-0.005
1396,-0.120,-0.025
1397,-0.110,-0.040
1398,-0.120,-0.035
1399,-0.120,-0.015
1400,-0.115,0.000
1401,-0.115,0.010
1402,-0.110,0.015
1403,-0.105,0.000
1404,-0.095,-0.005
1405,-0.100,-0.005
1406,-0.085,-0.020
1407,-0.085,-0.025
1408,-0.085,-0.050
1409,-0.100,-0.055
1410,-0.115,-0.050
1411,-0.115,-0.015
1412,-0.110,0.005
1413,-0.105,0.010
1414,-0.095,0.010
1415,-0.080,0.005
1416,-0.085,0.005
1417,-0.080,0.015
1418,-0.075,0.030
1419,-0.070,0.025
1420,-0.060,0.025
1421,-0.060,0.030
1422,-0.045,0.050
1423,-0.040,0.085
1424,-0.025,0.110
1425,-0.020,0.125
1426,-0.030,0.130
1427,-0.025,0.120
1428,-0.025,0.130
1429,-0.025,0.130
1430,-0.040,0.155
1431,-0.045,0.140
1432,-0.040,0.135
1433,-0.045,0.135
1434,-0.045,0.120
1435,-0.050,0.150
1436,-0.050,0.170
1437,-0.055,0.175
1438,-0.040,0.165
1439,-0.040,0.165
1440,-0.045,0.155
1441,-0.050,0.165
1442,-0.065,0.170
1443,-0.085,0.185
1444,-0.090,0.170
1445,-0.090,0.150
1446,-0.090,0.130
1447,-0.085,0.135
1448,-0.080,0.155
1449,-0.075,0.165
1450,-0.065,0.170
1451,-0.050,0.150
1452,-0.040,0.150
1453,-0.045,0.150
1454,-0.055,0.155
1455,-0.060,0.175
1456,-0.085,0.155
1457,-0.080,0.145
1458,-0.085,0.130
1459,-0.080,0.140
1460,-0.090,0.160
1461,-0.065,0.160
1462,-0.075,0.170
1463,-0.045,0.155
1464,-0.035,0.145
1465,-0.050,0.150
1466,-0.065,0.155
1467,-0.070,0.165
1468,-0.075,0.145
1469,-0.090,0.140
1470,-0.085,0.130
1471,-0.095,0.145
1472,-0.085,0.160
1473,-0.070,0.190
1474,-0.065,0.180
1475,-0.045,0.160
1476,-0.050,0.145
1477,-0.045,0.160
1478,-0.045,0.155
1479,-0.065,0.145
1480,-0.075,0.145
1481,-0.070,0.150
1482,-0.065,0.145
1483,-0.075,0.170
1484,-0.075,0.185
1485,-0.080,0.180
1486,-0.060,0.155
1487,-0.060,0.155
1488,-0.065,0.160
1489,-0.060,0.170
1490,-0.070,0.180
1491,-0.065,0.170
1492,-0.075,0.155
1493,-0.080,0.150
1494,-0.080,0.150
1495,-0.085,0.170
1496,-0.080,0.180
1497,-0.070,0.175
1498,-0.070,0.165
1499,-0.060,0.170
1500,-0.040,0.185
1501,-0.025,0.200
1502,-0.020,0.200
1503,-0.020,0.205
1504,0.000,0.210
1505,0.000,0.200
1506,0.010,0.220
1507,0.020,0.235
1508,0.035,0.250
1509,0.045,0.240
1510,0.060,0.235
1511,0.080,0.215
1512,0.105,0.210
1513,0.115,0.205
1514,0.105,0.195
1515,0.100,0.170
1516,0.090,0.160
1517,0.075,0.160
1518,0.055,0.170
1519,0.055,0.185
1520,0.050,0.165
1521,0.050,0.155
1522,0.045,0.155
1523,0.035,0.145
1524,0.005,0.160
1525,-0.015,0.170
1526,-0.040,0.155
1527,-0.055,0.145
1528,-0.070,0.140
1529,-0.090,0.140
1530,-0.100,0.150
1531,-0.110,0.155
1532,-0.115,0.150
1533,-0.120,0.145
1534,-0.130,0.130
1535,-0.130,0.125
1536,-0.130,0.145
1537,-0.140,0.160
1538,-0.145,0.160
1539,-0.155,0.145
1540,-0.150,0.135
1541,-0.155,0.120
1542,-0.160,0.135
1543,-0.160,0.155
1544,-0.165,0.180
1545,-0.165,0.175
1546,-0.160,0.150
1547,-0.175,0.140
1548,-0.180,0.135
1549,-0.195,0.135
1550,-0.210,0.130
1551,-0.215,0.110
1552,-0.200,0.105
1553,-0.140,0.105
1554,-0.055,0.110
1555,0.070,0.110
1556,0.250,0.100
1557,0.475,0.075
1558,0.715,0.080
1559,0.965,0.095
1560,1.190,0.190
1561,1.415,0.310
1562,1.525,0.445
1563,1.530,0.570
1564,1.390,0.675
1565,1.140,0.715
1566,0.825,0.680
1567,0.490,0.580
1568,0.210,0.430
1569,-0.010,0.240
1570,-0.150,0.085
1571,-0.225,0.005
1572,-0.245,-0.020
1573,-0.215,0.010
1574,-0.185,0.075
1575,-0.155,0.115
1576,-0.150,0.125
1577,-0.160,0.140
1578,-0.190,0.135
1579,-0.200,0.150
1580,-0.210,0.135
1581,-0.205,0.135
1582,-0.215,0.140
1583,-0.205,0.145
1584,-0.220,0.135
1585,-0.225,0.140
1586,-0.225,0.135
1587,-0.225,0.105
1588,-0.240,0.100
1589,-0.250,0.120
1590,-0.260,0.125
1591,-0.240,0.125
1592,-0.225,0.135
1593,-0.220,0.110
1594,-0.195,0.130
1595,-0.195,0.115
1596,-0.200,0.130
1597,-0.210,0.130
1598,-0.210,0.120
1599,-0.220,0.100
1600,-0.240,0.090
1601,-0.250,0.085
1602,-0.245,0.100
1603,-0.230,0.120
1604,-0.235,0.125
1605,-0.235,0.120
1606,-0.220,0.130
1607,-0.200,0.130
1608,-0.190,0.135
1609,-0.190,0.135
1610,-0.200,0.095
1611,-0.195,0.085
1612,-0.210,0.085
1613,-0.215,0.085
1614,-0.215,0.090
1615,-0.220,0.080
1616,-0.195,0.065
1617,-0.185,0.060
1618,-0.170,0.085
1619,-0.155,0.080
1620,-0.155,0.075
1621,-0.145,0.060
1622,-0.150,0.050
1623,-0.150,0.045
1624,-0.160,0.055
1625,-0.165,0.050
1626,-0.160,0.050
1627,-0.160,0.035
1628,-0.130,0.035
1629,-0.125,0.055
1630,-0.120,0.070
1631,-0.110,0.055
1632,-0.110,0.045
1633,-0.100,0.025
1634,-0.110,0.005
1635,-0.125,-0.010
1636,-0.125,0.005
1637,-0.135,0.010
1638,-0.120,-0.010
1639,-0.110,0.000
1640,-0.110,0.010
1641,-0.110,0.040
1642,-0.105,0.035
1643,-0.105,0.045
1644,-0.100,0.025
1645,-0.105,0.005
1646,-0.115,0.010
1647,-0.115,0.020
1648,-0.125,0.030
1649,-0.110,0.020
1650,-0.100,0.015
1651,-0.090,0.025
1652,-0.095,0.025
1653,-0.070,0.055
1654,-0.065,0.100
1655,-0.045,0.095
1656,-0.025,0.100
1657,-0.025,0.095
1658,-0.015,0.105
1659,-0.025,0.125
1660,-0.030,0.135
1661,-0.045,0.135
1662,-0.040,0.130
1663,-0.040,0.145
1664,-0.050,0.160
1665,-0.040,0.185
1666,-0.035,0.215
1667,-0.020,0.205
1668,-0.020,0.180
1669,-0.030,0.170
1670,-0.040,0.175
1671,-0.070,0.175
1672,-0.065,0.180
1673,-0.075,0.170
1674,-0.070,0.160
1675,-0.070,0.160
1676,-0.075,0.180
1677,-0.080,0.200
1678,-0.070,0.210
1679,-0.055,0.200
1680,-0.045,0.180
1681,-0.040,0.180
1682,-0.050,0.185
1683,-0.050,0.185
1684,-0.050,0.175
1685,-0.050,0.165
1686,-0.050,0.170
1687,-0.055,0.170
1688,-0.055,0.185
1689,-0.050,0.200
1690,-0.040,0.200
1691,-0.035,0.180
1692,-0.035,0.165
1693,-0.035,0.160
1694,-0.040,0.160
1695,-0.055,0.160
1696,-0.045,0.160
1697,-0.040,0.155
1698,-0.040,0.155
1699,-0.045,0.165
1700,-0.045,0.185
1701,-0.035,0.190
1702,-0.025,0.180
1703,-0.020,0.175
1704,-0.025,0.150
1705,-0.030,0.180
1706,-0.035,0.185
1707,-0.035,0.175
1708,-0.040,0.155
1709,-0.045,0.155
1710,-0.035,0.150
1711,-0.040,0.170
1712,-0.030,0.190
1713,-0.020,0.195
1714,-0.025,0.195
1715,-0.025,0.175
1716,-0.020,0.165
1717,-0.025,0.175
1718,-0.025,0.165
1719,-0.030,0.145
1720,-0.035,0.130
1721,-0.035,0.125
1722,-0.040,0.155
1723,-0.045,0.165
1724,-0.050,0.185
1725,-0.050,0.200
1726,-0.050,0.195
1727,-0.040,0.180
1728,-0.045,0.185
1729,-0.040,0.190
1730,-0.050,0.180
1731,-0.035,0.190
1732,-0.040,0.165
1733,-0.030,0.165
1734,-0.015,0.170
1735,-0.005,0.195
1736,0.010,0.205
1737,0.020,0.225
1738,0.025,0.230
1739,0.045,0.225
1740,0.040,0.230
1741,0.045,0.235
1742,0.055,0.245
1743,0.075,0.225
1744,0.070,0.200
1745,0.110,0.190
1746,0.120,0.185
1747,0.130,0.200
1748,0.130,0.205
1749,0.135,0.200
1750,0.140,0.200
1751,0.130,0.190
1752,0.115,0.205
1753,0.115,0.190
1754,0.105,0.175
1755,0.090,0.160
1756,0.065,0.130
1757,0.035,0.115
1758,0.020,0.145
1759,-0.005,0.150
1760,-0.005,0.160
1761,-0.020,0.160
1762,-0.020,0.155
1763,-0.045,0.150
1764,-0.055,0.160
1765,-0.075,0.165
1766,-0.090,0.145
1767,-0.095,0.130
1768,-0.110,0.120
1769,-0.120,0.140
1770,-0.130,0.140
1771,-0.110,0.155
1772,-0.100,0.155
1773,-0.095,0.135
1774,-0.095,0.130
1775,-0.095,0.135
1776,-0.100,0.150
1777,-0.110,0.160
1778,-0.135,0.125
1779,-0.130,0.105
1780,-0.140,0.090
1781,-0.160,0.095
1782,-0.175,0.105
1783,-0.160,0.125
1784,-0.125,0.120
1785,-0.060,0.120
1786,0.045,0.120
1787,0.160,0.115
1788,0.325,0.110
1789,0.520,0.100
1790,0.760,0.095
1791,1.015,0.110
1792,1.255,0.150
1793,1.470,0.255
1794,1.610,0.365
1795,1.645,0.480
1796,1.540,0.585
1797,1.340,0.620
1798,1.035,0.605
1799,0.710,0.515
1800,0.385,0.385
1801,0.125,0.220
1802,-0.065,0.080
1803,-0.175,-0.035
1804,-0.215,-0.075
1805,-0.220,-0.050
1806,-0.175,0.030
1807,-0.135,0.085
1808,-0.115,0.125
1809,-0.110,0.130
1810,-0.110,0.135
1811,-0.140,0.115
1812,-0.165,0.125
1813,-0.175,0.120
1814,-0.190,0.100
1815,-0.195,0.080
1816,-0.205,0.065
1817,-0.215,0.065
1818,-0.225,0.080
1819,-0.230,0.100
1820,-0.215,0.115
1821,-0.220,0.095
1822,-0.210,0.100
1823,-0.195,0.080
1824,-0.200,0.080
1825,-0.200,0.110
1826,-0.195,0.100
1827,-0.195,0.095
1828,-0.205,0.075
1829,-0.205,0.060
1830,-0.215,0.055
1831,-0.220,0.080
1832,-0.205,0.095
1833,-0.205,0.100
1834,-0.215,0.095
1835,-0.195,0.075
1836,-0.205,0.060
1837,-0.195,0.060
1838,-0.200,0.070
1839,-0.195,0.065
1840,-0.200,0.035
1841,-0.205,0.030
1842,-0.200,0.050
1843,-0.210,0.055
1844,-0.205,0.070
1845,-0.195,0.070
1846,-0.185,0.065
1847,-0.185,0.055
1848,-0.195,0.040
1849,-0.185,0.055
1850,-0.185,0.055
1851,-0.185,0.030
1852,-0.190,0.000
1853,-0.190,0.000
1854,-0.200,0.005
1855,-0.200,0.015
1856,-0.170,0.040
1857,-0.155,0.040
1858,-0.160,0.025
1859,-0.145,0.000
1860,-0.140,0.000
1861,-0.140,0.010
1862,-0.135,0.000
1863,-0.155,-0.015
1864,-0.165,-0.035
1865,-0.150,-0.050
1866,-0.150,-0.045
1867,-0.150,-0.020
1868,-0.140,-0.010
1869,-0.130,-0.010
1870,-0.120,-0.015
1871,-0.110,-0.040
1872,-0.110,-0.055
1873,-0.110,-0.055
1874,-0.120,-0.045
1875,-0.125,-0.045
1876,-0.125,-0.045
1877,-0.125,-0.065
1878,-0.125,-0.080
1879,-0.120,-0.065
1880,-0.115,-0.040
1881,-0.115,-0.040
1882,-0.105,-0.040
1883,-0.090,-0.055
1884,-0.095,-0.060
1885,-0.100,-0.065
1886,-0.120,-0.040
1887,-0.120,-0.040
1888,-0.130,-0.045
1889,-0.120,-0.055
1890,-0.120,-0.055
1891,-0.100,-0.020
1892,-0.095,0.010
1893,-0.070,0.035
1894,-0.055,0.050
1895,-0.040,0.040
1896,-0.050,0.045
1897,-0.045,0.070
1898,-0.050,0.070
1899,-0.065,0.090
1900,-0.070,0.080
1901,-0.070,0.065
1902,-0.080,0.060
1903,-0.095,0.075
1904,-0.090,0.085
1905,-0.095,0.110
1906,-0.080,0.110
1907,-0.060,0.110
1908,-0.060,0.090
1909,-0.065,0.095
1910,-0.075,0.105
1911,-0.090,0.115
1912,-0.095,0.110
1913,-0.110,0.095
1914,-0.110,0.075
1915,-0.120,0.085
1916,-0.120,0.110
1917,-0.115,0.125
1918,-0.115,0.150
1919,-0.105,0.130
1920,-0.105,0.110
1921,-0.105,0.090
1922,-0.105,0.095
1923,-0.105,0.095
1924,-0.120,0.110
1925,-0.130,0.095
1926,-0.120,0.080
1927,-0.115,0.075
1928,-0.120,0.075
1929,-0.115,0.100
1930,-0.125,0.115
1931,-0.120,0.120
1932,-0.100,0.095
1933,-0.095,0.095
1934,-0.095,0.090
1935,-0.105,0.100
1936,-0.095,0.110
1937,-0.110,0.100
1938,-0.120,0.085
1939,-0.115,0.080
1940,-0.115,0.060
1941,-0.100,0.090
1942,-0.110,0.095
1943,-0.105,0.110
1944,-0.100,0.095
1945,-0.090,0.090
1946,-0.095,0.080
1947,-0.100,0.095
1948,-0.115,0.100
1949,-0.110,0.090
1950,-0.115,0.080
1951,-0.125,0.075
1952,-0.125,0.060
1953,-0.115,0.080
1954,-0.125,0.110
1955,-0.105,0.115
1956,-0.110,0.115
1957,-0.105,0.095
1958,-0.110,0.075
1959,-0.105,0.075
1960,-0.110,0.085
1961,-0.115,0.100
1962,-0.105,0.095
1963,-0.110,0.085
1964,-0.105,0.085
1965,-0.095,0.100
1966,-0.105,0.115
1967,-0.105,0.130
1968,-0.115,0.110
1969,-0.105,0.085
1970,-0.120,0.075
1971,-0.140,0.070
1972,-0.135,0.090
1973,-0.155,0.100
1974,-0.135,0.105
1975,-0.125,0.110
1976,-0.085,0.110
1977,-0.085,0.125
1978,-0.065,0.155
1979,-0.070,0.165
1980,-0.070,0.160
1981,-0.060,0.150
1982,-0.060,0.120
1983,-0.070,0.130
1984,-0.060,0.140
1985,-0.050,0.150
1986,-0.045,0.165
1987,-0.020,0.160
1988,0.010,0.130
1989,0.040,0.105
1990,0.055,0.120
1991,0.060,0.135
1992,0.055,0.120
1993,0.045,0.115
1994,0.020,0.095
1995,0.010,0.080
1996,0.005,0.065
1997,-0.010,0.095
1998,-0.020,0.085
1999,-0.025,0.085
2000,-0.040,0.080
2001,-0.050,0.055
2002,-0.070,0.070
2003,-0.075,0.070
2004,-0.100,0.090
2005,-0.105,0.105
2006,-0.125,0.090
2007,-0.140,0.060
2008,-0.165,0.055
2009,-0.195,0.050
2010,-0.205,0.060
2011,-0.230,0.075
2012,-0.220,0.075
2013,-0.225,0.050
2014,-0.220,0.050
2015,-0.210,0.060
2016,-0.205,0.080
2017,-0.215,0.085
2018,-0.215,0.075
2019,-0.215,0.055
2020,-0.225,0.025
2021,-0.240,0.015
2022,-0.255,0.040
2023,-0.255,0.045
2024,-0.245,0.075
2025,-0.255,0.060
2026,-0.230,0.060
2027,-0.240,0.045
2028,-0.255,0.030
2029,-0.265,0.030
2030,-0.270,0.045
2031,-0.275,0.065
2032,-0.225,0.060
2033,-0.160,0.050
2034,-0.070,0.035
2035,0.045,0.025
2036,0.215,0.005
2037,0.420,-0.005
2038,0.665,0.010
2039,0.940,0.030
2040,1.200,0.075
2041,1.415,0.170
2042,1.550,0.270
2043,1.560,0.385
2044,1.410,0.470
2045,1.160,0.500
2046,0.830,0.460
2047,0.480,0.345
2048,0.165,0.230
2049,-0.060,0.085
2050,-0.190,-0.020
2051,-0.250,-0.090
2052,-0.265,-0.090
2053,-0.245,-0.070
2054,-0.225,0.005
2055,-0.220,0.045
2056,-0.225,0.065
2057,-0.240,0.055
2058,-0.255,0.050
2059,-0.285,0.030
2060,-0.305,0.040
2061,-0.320,0.055
2062,-0.325,0.060
2063,-0.315,0.050
2064,-0.310,0.040
2065,-0.310,0.030
2066,-0.325,0.050
2067,-0.335,0.070
2068,-0.340,0.055
2069,-0.350,0.030
2070,-0.345,0.030
2071,-0.350,0.010
2072,-0.335,0.040
2073,-0.330,0.050
2074,-0.320,0.060
2075,-0.310,0.060
2076,-0.300,0.035
2077,-0.310,0.035
2078,-0.315,0.030
2079,-0.330,0.020
2080,-0.340,0.025
2081,-0.330,0.015
2082,-0.340,0.000
2083,-0.340,0.005
2084,-0.325,0.020
2085,-0.320,0.040
2086,-0.305,0.055
2087,-0.300,0.060
2088,-0.305,0.030
2089,-0.305,0.020
2090,-0.305,0.000
2091,-0.315,0.015
2092,-0.320,0.010
2093,-0.330,0.010
2094,-0.335,-0.015
2095,-0.320,-0.020
2096,-0.315,-0.015
2097,-0.305,-0.005
2098,-0.290,0.025
2099,-0.275,0.025
2100,-0.270,0.000
2101,-0.265,-0.020
2102,-0.265,-0.040
2103,-0.275,-0.040
2104,-0.285,-0.020
2105,-0.300,-0.020
2106,-0.305,-0.025
2107,-0.290,-0.045
2108,-0.285,-0.045
2109,-0.265,-0.045
2110,-0.265,-0.030
2111,-0.250,-0.030
2112,-0.250,-0.035
2113,-0.250,-0.055
2114,-0.235,-0.075
2115,-0.250,-0.100
2116,-0.235,-0.110
2117,-0.250,-0.090
2118,-0.240,-0.075
2119,-0.245,-0.075
2120,-0.245,-0.085
2121,-0.220,-0.100
2122,-0.210,-0.085
2123,-0.210,-0.075
2124,-0.205,-0.070
2125,-0.210,-0.075
2126,-0.215,-0.095
2127,-0.215,-0.110
2128,-0.215,-0.120
2129,-0.210,-0.105
2130,-0.210,-0.095
2131,-0.225,-0.080
2132,-0.215,-0.080
2133,-0.220,-0.085
2134,-0.215,-0.080
2135,-0.200,-0.075
2136,-0.195,-0.045
2137,-0.190,-0.045
2138,-0.190,-0.050
2139,-0.195,-0.060
2140,-0.205,-0.065
2141,-0.175,-0.080
2142,-0.185,-0.055
2143,-0.175,-0.020
2144,-0.165,-0.005
2145,-0.165,0.000
2146,-0.170,0.000
2147,-0.150,0.015
2148,-0.160,0.015
2149,-0.150,0.055
2150,-0.155,0.065
2151,-0.165,0.060
2152,-0.165,0.045
2153,-0.170,0.035
2154,-0.185,0.045
2155,-0.180,0.070
2156,-0.160,0.085
2157,-0.150,0.100
2158,-0.150,0.100
2159,-0.155,0.085
2160,-0.155,0.075
2161,-0.170,0.070
2162,-0.165,0.060
2163,-0.175,0.080
2164,-0.185,0.060
2165,-0.190,0.050
2166,-0.205,0.045
2167,-0.195,0.035
2168,-0.200,0.055
2169,-0.190,0.075
2170,-0.180,0.085
2171,-0.160,0.080
2172,-0.165,0.070
2173,-0.165,0.055
2174,-0.180,0.055
2175,-0.190,0.060
2176,-0.190,0.075
2177,-0.190,0.075
2178,-0.180,0.075
2179,-0.185,0.060
2180,-0.205,0.055
2181,-0.185,0.075
2182,-0.190,0.080
2183,-0.175,0.090
2184,-0.185,0.060
2185,-0.180,0.060
2186,-0.180,0.050
2187,-0.180,0.055
2188,-0.175,0.055
2189,-0.190,0.065
2190,-0.190,0.055
2191,-0.200,0.045
2192,-0.195,0.030
2193,-0.185,0.045
2194,-0.170,0.070
2195,-0.175,0.105
2196,-0.170,0.100
2197,-0.165,0.075
2198,-0.165,0.055
2199,-0.175,0.050
2200,-0.170,0.040
2201,-0.180,0.050
2202,-0.190,0.060
2203,-0.180,0.055
2204,-0.175,0.055
2205,-0.190,0.055
2206,-0.180,0.065
2207,-0.180,0.075
2208,-0.175,0.075
2209,-0.175,0.060
2210,-0.175,0.050
2211,-0.180,0.035
2212,-0.180,0.045
2213,-0.175,0.065
2214,-0.170,0.065
2215,-0.175,0.055
2216,-0.185,0.045
2217,-0.185,0.050
2218,-0.205,0.065
2219,-0.185,0.085
2220,-0.205,0.085
2221,-0.200,0.065
2222,-0.190,0.050
2223,-0.180,0.035
2224,-0.190,0.045
2225,-0.180,0.065
2226,-0.165,0.070
2227,-0.160,0.075
2228,-0.135,0.075
2229,-0.130,0.090
2230,-0.110,0.095
2231,-0.105,0.135
2232,-0.105,0.135
2233,-0.085,0.125
2234,-0.090,0.110
2235,-0.090,0.090
2236,-0.085,0.095
2237,-0.080,0.105
2238,-0.055,0.105
2239,-0.025,0.095
2240,-0.005,0.075
2241,0.010,0.080
2242,0.000,0.075
2243,-0.010,0.085
2244,-0.030,0.060
2245,-0.040,0.055
2246,-0.035,0.035
2247,-0.045,0.025
2248,-0.055,0.010
2249,-0.075,0.020
2250,-0.085,0.020
2251,-0.105,0.015
2252,-0.110,0.005
2253,-0.130,0.020
2254,-0.155,0.040
2255,-0.165,0.055
2256,-0.180,0.055
2257,-0.195,0.040
2258,-0.220,0.025
2259,-0.230,0.025
2260,-0.255,0.010
2261,-0.270,0.025
2262,-0.280,0.035
2263,-0.275,0.025
2264,-0.270,0.010
2265,-0.260,0.020
2266,-0.250,0.020
2267,-0.250,0.040
2268,-0.260,0.035
2269,-0.260,0.035
2270,-0.265,0.015
2271,-0.285,0.015
2272,-0.290,0.005
2273,-0.290,0.010
2274,-0.300,0.035
2275,-0.305,-0.010
2276,-0.315,-0.015
2277,-0.330,-0.040
2278,-0.305,-0.045
2279,-0.285,-0.010
2280,-0.235,0.020
2281,-0.150,0.015
2282,-0.040,-0.005
2283,0.115,-0.050
2284,0.305,-0.070
2285,0.530,-0.075
2286,0.790,-0.030
2287,1.045,0.045
2288,1.275,0.135
2289,1.430,0.255
2290,1.460,0.385
2291,1.340,0.490
2292,1.080,0.535
2293,0.760,0.495
2294,0.415,0.375
2295,0.120,0.205
2296,-0.120,0.055
2297,-0.270,-0.070
2298,-0.335,-0.125
2299,-0.345,-0.135
2300,-0.320,-0.115
2301,-0.280,-0.055
2302,-0.255,0.000
2303,-0.250,0.055
2304,-0.265,0.065
2305,-0.275,0.045
2306,-0.305,0.015
2307,-0.320,0.000
2308,-0.355,-0.015
2309,-0.355,-0.010
2310,-0.370,-0.030
2311,-0.360,-0.030
2312,-0.345,-0.025
2313,-0.345,-0.025
2314,-0.360,0.000
2315,-0.360,0.015
2316,-0.350,0.015
2317,-0.345,-0.010
2318,-0.360,-0.025
2319,-0.355,-0.050
2320,-0.365,-0.025
2321,-0.370,-0.015
2322,-0.370,0.005
2323,-0.370,-0.005
2324,-0.365,-0.020
2325,-0.360,-0.015
2326,-0.355,-0.010
2327,-0.350,0.010
2328,-0.345,0.005
2329,-0.340,-0.005
2330,-0.330,-0.040
2331,-0.335,-0.040
2332,-0.340,-0.040
2333,-0.340,-0.025
2334,-0.355,-0.040
2335,-0.345,-0.045
2336,-0.335,-0.050
2337,-0.335,-0.035
2338,-0.350,-0.025
2339,-0.330,-0.010
2340,-0.330,-0.020
2341,-0.330,-0.030
2342,-0.320,-0.045
2343,-0.320,-0.055
2344,-0.335,-0.065
2345,-0.335,-0.055
2346,-0.325,-0.060
2347,-0.320,-0.080
2348,-0.315,-0.080
2349,-0.310,-0.085
2350,-0.300,-0.075
2351,-0.290,-0.065
2352,-0.295,-0.080
2353,-0.295,-0.095
2354,-0.290,-0.120
2355,-0.285,-0.105
2356,-0.285,-0.110
2357,-0.285,-0.105
2358,-0.290,-0.105
2359,-0.285,-0.120
2360,-0.265,-0.115
2361,-0.255,-0.115
2362,-0.245,-0.085
2363,-0.235,-0.090
2364,-0.235,-0.105
2365,-0.235,-0.125
2366,-0.240,-0.140
2367,-0.245,-0.140
2368,-0.240,-0.120
2369,-0.240,-0.120
2370,-0.235,-0.130
2371,-0.230,-0.140
2372,-0.225,-0.140
2373,-0.235,-0.125
2374,-0.220,-0.105
2375,-0.225,-0.095
2376,-0.230,-0.105
2377,-0.230,-0.115
2378,-0.220,-0.130
2379,-0.245,-0.115
2380,-0.235,-0.120
2381,-0.240,-0.105
2382,-0.225,-0.105
2383,-0.210,-0.115
2384,-0.200,-0.095
2385,-0.180,-0.065
2386,-0.170,-0.030
2387,-0.155,0.000
2388,-0.140,0.000
2389,-0.135,-0.005
2390,-0.150,-0.025
2391,-0.155,-0.025
2392,-0.165,0.000
2393,-0.175,0.005
2394,-0.180,0.005
2395,-0.170,0.010
2396,-0.170,0.005
2397,-0.170,0.030
2398,-0.160,0.035
2399,-0.155,0.040
2400,-0.160,0.040
2401,-0.160,0.030
2402,-0.165,0.020
2403,-0.180,0.020
2404,-0.195,0.010
2405,-0.200,0.035
2406,-0.210,0.050
2407,-0.205,0.025
2408,-0.210,0.030
2409,-0.205,0.015
2410,-0.200,0.030
2411,-0.185,0.035
2412,-0.185,0.055
2413,-0.175,0.035
2414,-0.180,0.020
2415,-0.190,0.000
2416,-0.200,-0.010
2417,-0.205,0.020
2418,-0.230,0.020
2419,-0.210,0.010
2420,-0.210,0.010
2421,-0.200,0.015
2422,-0.200,0.020
2423,-0.185,0.040
2424,-0.180,0.040
2425,-0.190,0.030
2426,-0.170,0.020
2427,-0.180,0.005
2428,-0.185,0.000
2429,-0.200,0.015
2430,-0.205,0.045
2431,-0.205,0.040
2432,-0.195,0.030
2433,-0.195,0.020
2434,-0.190,0.020
2435,-0.185,0.045
2436,-0.185,0.055
2437,-0.175,0.060
2438,-0.165,0.040
2439,-0.170,0.015
2440,-0.170,0.010
2441,-0.190,0.020
2442,-0.195,0.035
2443,-0.210,0.030
2444,-0.200,0.035
2445,-0.190,0.020
2446,-0.190,0.035
2447,-0.190,0.065
2448,-0.180,0.065
2449,-0.180,0.065
2450,-0.190,0.050
2451,-0.195,0.035
2452,-0.190,0.020
2453,-0.200,0.025
2454,-0.205,0.030
2455,-0.200,0.040
2456,-0.200,0.045
2457,-0.190,0.030
2458,-0.180,0.025
2459,-0.165,0.035
2460,-0.185,0.050
2461,-0.195,0.045
2462,-0.185,0.035
2463,-0.180,0.015
2464,-0.175,0.010
2465,-0.170,0.025
2466,-0.165,0.055
2467,-0.170,0.085
2468,-0.165,0.095
2469,-0.145,0.100
2470,-0.120,0.090
2471,-0.110,0.110
2472,-0.110,0.110
2473,-0.120,0.120
2474,-0.110,0.100
2475,-0.110,0.080
2476,-0.095,0.055
2477,-0.070,0.045
2478,-0.045,0.050
2479,-0.030,0.060
2480,-0.015,0.060
2481,-0.005,0.055
2482,0.000,0.045
2483,-0.010,0.045
2484,-0.010,0.050
2485,-0.010,0.055
2486,-0.030,0.050
2487,-0.040,0.020
2488,-0.055,-0.005
2489,-0.080,-0.015
2490,-0.110,0.010
2491,-0.125,0.020
2492,-0.150,0.025
2493,-0.160,0.025
2494,-0.160,0.020
2495,-0.160,0.025
2496,-0.185,0.025
2497,-0.190,0.035
2498,-0.215,0.015
2499,-0.235,-0.005
2500,-0.225,-0.020
2501,-0.240,-0.020
2502,-0.265,-0.010
2503,-0.265,0.015
2504,-0.260,0.015
2505,-0.260,0.010
2506,-0.250,-0.005
2507,-0.245,-0.010
2508,-0.245,0.010
2509,-0.240,0.025
2510,-0.245,0.020
2511,-0.255,-0.020
2512,-0.260,-0.030
2513,-0.270,-0.025
2514,-0.285,-0.025
2515,-0.300,-0.030
2516,-0.310,-0.020
2517,-0.305,-0.025
2518,-0.260,-0.015
2519,-0.185,-0.010
2520,-0.090,-0.005
2521,0.065,-0.030
2522,0.270,-0.055
2523,0.480,-0.090
2524,0.725,-0.065
2525,0.975,-0.005
2526,1.210,0.105
2527,1.395,0.250
2528,1.450,0.395
2529,1.395,0.500
2530,1.195,0.585
2531,0.910,0.580
2532,0.555,0.495
2533,0.250,0.335
2534,-0.020,0.150
2535,-0.210,-0.035
2536,-0.320,-0.145
2537,-0.370,-0.160
2538,-0.345,-0.145
2539,-0.310,-0.085
2540,-0.265,-0.045
2541,-0.240,-0.015
2542,-0.240,0.010
2543,-0.240,0.025
2544,-0.275,0.030
2545,-0.300,0.010
2546,-0.320,-0.020
2547,-0.320,-0.035
2548,-0.320,-0.045
2549,-0.320,-0.040
2550,-0.315,-0.020
2551,-0.315,-0.010
2552,-0.315,-0.010
2553,-0.325,-0.015
2554,-0.335,-0.010
2555,-0.325,0.000
2556,-0.325,0.000
2557,-0.325,-0.010
2558,-0.320,-0.025
2559,-0.310,-0.040
2560,-0.315,-0.035
2561,-0.315,-0.015
2562,-0.310,-0.020
2563,-0.320,-0.035
2564,-0.320,-0.045
2565,-0.310,-0.035
2566,-0.315,-0.015
2567,-0.305,-0.010
2568,-0.305,-0.015
2569,-0.295,-0.015
2570,-0.305,-0.030
2571,-0.295,-0.035
2572,-0.300,-0.040
2573,-0.295,-0.045
2574,-0.295,-0.050
2575,-0.290,-0.065
2576,-0.295,-0.055
2577,-0.285,-0.040
2578,-0.290,-0.035
2579,-0.290,-0.035
2580,-0.270,-0.055
2581,-0.270,-0.065
2582,-0.260,-0.070
2583,-0.260,-0.080
2584,-0.250,-0.080
2585,-0.250,-0.105
2586,-0.255,-0.120
2587,-0.265,-0.105
2588,-0.250,-0.085
2589,-0.250,-0.075
2590,-0.240,-0.065
2591,-0.235,-0.060
2592,-0.220,-0.095
2593,-0.230,-0.095
2594,-0.215,-0.090
2595,-0.215,-0.100
2596,-0.215,-0.110
2597,-0.215,-0.140
2598,-0.210,-0.160
2599,-0.205,-0.155
2600,-0.200,-0.140
2601,-0.200,-0.120
2602,-0.205,-0.130
2603,-0.190,-0.125
2604,-0.190,-0.130
2605,-0.185,-0.135
2606,-0.185,-0.130
2607,-0.190,-0.120
2608,-0.190,-0.145
2609,-0.190,-0.145
2610,-0.195,-0.130
2611,-0.195,-0.120
2612,-0.185,-0.105
2613,-0.185,-0.105
2614,-0.180,-0.110
2615,-0.165,-0.115
2616,-0.155,-0.105
2617,-0.150,-0.075
2618,-0.140,-0.080
2619,-0.140,-0.060
2620,-0.130,-0.070
2621,-0.120,-0.065
2622,-0.115,-0.050
2623,-0.110,-0.030
2624,-0.095,-0.005
2625,-0.090,-0.005
2626,-0.080,0.015
2627,-0.075,0.010
2628,-0.080,0.020
2629,-0.085,0.055
2630,-0.095,0.060
2631,-0.105,0.035
2632,-0.110,0.030
2633,-0.120,0.020
2634,-0.125,0.025
2635,-0.120,0.045
2636,-0.115,0.045
2637,-0.120,0.030
2638,-0.110,0.025
2639,-0.090,0.030
2640,-0.100,0.050
2641,-0.110,0.050
2642,-0.115,0.060
2643,-0.120,0.045
2644,-0.130,0.025
2645,-0.135,0.030
2646,-0.145,0.040
2647,-0.140,0.030
2648,-0.130,0.035
2649,-0.120,0.035
2650,-0.100,0.045
2651,-0.100,0.055
2652,-0.100,0.050
2653,-0.105,0.050
2654,-0.100,0.030
2655,-0.105,0.030
2656,-0.110,0.020
2657,-0.120,0.030
2658,-0.125,0.035
2659,-0.130,0.020
2660,-0.125,0.020
2661,-0.120,0.030
2662,-0.100,0.050
2663,-0.085,0.065
2664,-0.085,0.050
2665,-0.085,0.035
2666,-0.070,0.020
2667,-0.110,0.020
2668,-0.105,0.035
2669,-0.115,0.040
2670,-0.115,0.030
2671,-0.105,0.025
2672,-0.105,0.025
2673,-0.090,0.030
2674,-0.080,0.050
2675,-0.075,0.050
2676,-0.065,0.055
2677,-0.070,0.040
2678,-0.070,0.020
2679,-0.080,0.030
2680,-0.095,0.035
2681,-0.105,0.030
2682,-0.100,0.025
2683,-0.125,0.005
2684,-0.120,0.015
2685,-0.120,0.030
2686,-0.110,0.065
2687,-0.085,0.055
2688,-0.085,0.055
2689,-0.100,0.045
2690,-0.100,0.040
2691,-0.100,0.055
2692,-0.110,0.045
2693,-0.110,0.045
2694,-0.095,0.035
2695,-0.090,0.020
2696,-0.080,0.040
2697,-0.050,0.070
2698,-0.050,0.110
2699,-0.025,0.125
2700,-0.025,0.120
2701,-0.015,0.105
2702,-0.015,0.085
2703,-0.010,0.075
2704,-0.020,0.100
2705,-0.010,0.095
2706,-0.005,0.075
2707,0.030,0.055
2708,0.045,0.025
2709,0.045,0.050
2710,0.050,0.070
2711,0.045,0.085
2712,0.050,0.090
2713,0.050,0.070
2714,0.065,0.035
2715,0.060,0.030
2716,0.050,0.030
2717,0.040,0.040
2718,0.015,0.030
2719,0.000,0.010
2720,-0.030,0.010
2721,-0.045,0.015
2722,-0.065,0.035
2723,-0.090,0.060
2724,-0.100,0.055
2725,-0.125,0.030
2726,-0.135,0.000
2727,-0.165,-0.015
2728,-0.160,0.000
2729,-0.180,0.000
2730,-0.185,0.005
2731,-0.190,0.000
2732,-0.175,0.005
2733,-0.170,-0.005
2734,-0.175,0.005
2735,-0.185,0.030
2736,-0.180,0.035
2737,-0.180,0.040
2738,-0.170,0.005
2739,-0.185,-0.010
2740,-0.190,-0.015
2741,-0.205,-0.015
2742,-0.205,-0.005
2743,-0.210,0.005
2744,-0.195,0.005
2745,-0.195,-0.010
2746,-0.195,-0.030
2747,-0.195,-0.010
2748,-0.195,0.010
2749,-0.155,0.030
2750,-0.085,0.030
2751,0.020,0.000
2752,0.155,-0.030
2753,0.330,-0.040
2754,0.535,-0.050
2755,0.770,-0.020
2756,1.040,0.035
2757,1.285,0.095
2758,1.480,0.200
2759,1.585,0.305
2760,1.545,0.415
2761,1.395,0.485
2762,1.135,0.515
2763,0.820,0.445
2764,0.510,0.315
2765,0.215,0.175
2766,-0.020,0.050
2767,-0.160,-0.060
2768,-0.250,-0.120
2769,-0.255,-0.135
2770,-0.255,-0.115
2771,-0.210,-0.075
2772,-0.165,-0.005
2773,-0.165,0.040
2774,-0.180,0.055
2775,-0.210,0.020
2776,-0.240,-0.020
2777,-0.290,-0.035
2778,-0.310,-0.020
2779,-0.325,-0.005
2780,-0.310,0.005
2781,-0.315,0.010
2782,-0.295,0.010
2783,-0.275,0.000
2784,-0.270,-0.010
2785,-0.270,-0.010
2786,-0.280,-0.010
2787,-0.290,-0.020
2788,-0.305,-0.035
2789,-0.305,-0.045
2790,-0.310,-0.030
2791,-0.310,-0.015
2792,-0.320,-0.005
2793,-0.310,-0.015
2794,-0.305,-0.020
2795,-0.300,-0.020
2796,-0.305,-0.005
2797,-0.300,0.000
2798,-0.305,-0.010
2799,-0.285,-0.030
2800,-0.285,-0.045
2801,-0.300,-0.045
2802,-0.305,-0.030
2803,-0.310,-0.030
2804,-0.310,-0.030
2805,-0.315,-0.040
2806,-0.310,-0.035
2807,-0.300,-0.045
2808,-0.300,-0.035
2809,-0.295,-0.040
2810,-0.290,-0.060
2811,-0.295,-0.065
2812,-0.290,-0.085
2813,-0.295,-0.075
2814,-0.295,-0.065
2815,-0.300,-0.070
2816,-0.295,-0.060
2817,-0.285,-0.070
2818,-0.285,-0.065
2819,-0.285,-0.050
2820,-0.265,-0.055
2821,-0.260,-0.060
2822,-0.250,-0.100
2823,-0.250,-0.110
2824,-0.260,-0.135
2825,-0.255,-0.120
2826,-0.265,-0.130
2827,-0.265,-0.145
2828,-0.255,-0.150
2829,-0.240,-0.145
2830,-0.235,-0.115
2831,-0.230,-0.100
2832,-0.220,-0.105
2833,-0.225,-0.120
2834,-0.230,-0.145
2835,-0.235,-0.150
2836,-0.250,-0.145
2837,-0.225,-0.140
2838,-0.225,-0.140
2839,-0.215,-0.145
2840,-0.225,-0.150
2841,-0.205,-0.135
2842,-0.225,-0.125
2843,-0.220,-0.120
2844,-0.210,-0.125
2845,-0.215,-0.150
2846,-0.205,-0.155
2847,-0.220,-0.130
2848,-0.225,-0.135
2849,-0.220,-0.120
2850,-0.205,-0.135
2851,-0.195,-0.130
2852,-0.185,-0.125
2853,-0.175,-0.100
2854,-0.165,-0.060
2855,-0.165,-0.040
2856,-0.160,-0.030
2857,-0.160,-0.020
2858,-0.175,-0.025
2859,-0.170,-0.005
2860,-0.180,-0.005
2861,-0.185,0.005
2862,-0.190,-0.010
2863,-0.170,-0.015
2864,-0.165,-0.005
2865,-0.160,0.015
2866,-0.160,0.040
2867,-0.180,0.040
2868,-0.185,0.025
2869,-0.195,0.000
2870,-0.190,0.000
2871,-0.200,0.005
2872,-0.210,0.010
2873,-0.210,0.010
2874,-0.215,-0.005
2875,-0.205,-0.005
2876,-0.210,0.000
2877,-0.185,0.020
2878,-0.190,0.040
2879,-0.175,0.035
2880,-0.185,0.015
2881,-0.185,0.000
2882,-0.200,0.015
2883,-0.210,0.010
2884,-0.220,0.015
2885,-0.230,0.015
2886,-0.220,0.000
2887,-0.230,-0.010
2888,-0.230,0.000
2889,-0.210,0.020
2890,-0.200,0.035
2891,-0.190,0.030
2892,-0.180,0.020
2893,-0.185,0.005
2894,-0.190,0.005
2895,-0.210,-0.005
2896,-0.205,0.005
2897,-0.235,-0.005
2898,-0.220,-0.015
2899,-0.215,-0.005
2900,-0.210,0.010
2901,-0.210,0.035
2902,-0.190,0.055
2903,-0.180,0.035
2904,-0.175,0.020
2905,-0.175,-0.005
2906,-0.190,-0.005
2907,-0.195,-0.005
2908,-0.205,0.000
2909,-0.220,-0.015
2910,-0.225,-0.025
2911,-0.215,-0.025
2912,-0.220,-0.005
2913,-0.215,0.015
2914,-0.215,0.030
2915,-0.200,0.015
2916,-0.200,0.010
2917,-0.185,0.015
2918,-0.200,0.010
2919,-0.215,0.035
2920,-0.215,0.020
2921,-0.225,0.005
2922,-0.225,-0.025
2923,-0.230,-0.025
2924,-0.240,-0.025
2925,-0.225,0.000
2926,-0.210,0.030
2927,-0.200,0.020
2928,-0.185,0.020
2929,-0.180,0.010
2930,-0.180,0.030
2931,-0.180,0.035
2932,-0.180,0.040
2933,-0.175,0.035
2934,-0.175,0.040
2935,-0.165,0.045
2936,-0.165,0.065
2937,-0.160,0.090
2938,-0.150,0.095
2939,-0.135,0.075
2940,-0.115,0.060
2941,-0.095,0.055
2942,-0.065,0.045
2943,-0.050,0.045
2944,-0.050,0.035
2945,-0.060,0.015
2946,-0.065,-0.020
2947,-0.075,-0.020
2948,-0.090,0.000
2949,-0.090,0.010
2950,-0.100,0.020
2951,-0.080,0.010
2952,-0.075,-0.010
2953,-0.095,-0.005
2954,-0.110,-0.020
2955,-0.135,-0.005
2956,-0.160,-0.025
2957,-0.190,-0.020
2958,-0.215,-0.025
2959,-0.240,0.000
2960,-0.245,0.015
2961,-0.260,0.015
2962,-0.270,0.005
2963,-0.275,-0.015
2964,-0.275,-0.040
2965,-0.280,-0.045
2966,-0.285,-0.025
2967,-0.300,-0.030
2968,-0.300,-0.015
2969,-0.305,-0.035
2970,-0.300,-0.045
2971,-0.320,-0.055
2972,-0.320,-0.025
2973,-0.320,-0.005
2974,-0.315,0.005
2975,-0.315,0.000
2976,-0.310,-0.015
2977,-0.315,-0.035
2978,-0.315,-0.020
2979,-0.330,-0.030
2980,-0.355,-0.030
2981,-0.360,-0.050
2982,-0.365,-0.050
2983,-0.340,-0.040
2984,-0.280,-0.025
2985,-0.190,-0.020
2986,-0.075,-0.020
2987,0.075,-0.050
2988,0.270,-0.090
2989,0.490,-0.100
2990,0.730,-0.075
2991,0.980,-0.025
2992,1.195,0.050
2993,1.375,0.135
2994,1.445,0.230
2995,1.365,0.325
2996,1.200,0.400
2997,0.920,0.435
2998,0.625,0.395
2999,0.330,0.285
3000,0.055,0.135
3001,-0.145,-0.025
3002,-0.290,-0.135
3003,-0.355,-0.175
3004,-0.385,-0.175
3005,-0.370,-0.125
3006,-0.350,-0.080
3007,-0.325,-0.055
3008,-0.330,-0.040
3009,-0.335,-0.035
3010,-0.350,-0.015
3011,-0.370,-0.010
3012,-0.380,-0.010
3013,-0.390,-0.035
3014,-0.395,-0.055
3015,-0.410,-0.045
3016,-0.420,-0.045
3017,-0.430,-0.040
3018,-0.430,-0.035
3019,-0.430,-0.065
3020,-0.420,-0.060
3021,-0.415,-0.070
3022,-0.415,-0.030
3023,-0.410,-0.015
3024,-0.400,-0.005
3025,-0.405,-0.010
3026,-0.410,-0.040
3027,-0.415,-0.045
3028,-0.415,-0.055
3029,-0.430,-0.055
3030,-0.440,-0.050
3031,-0.435,-0.055
3032,-0.430,-0.080
3033,-0.420,-0.075
3034,-0.420,-0.055
3035,-0.410,-0.035
3036,-0.405,-0.030
3037,-0.390,-0.050
3038,-0.385,-0.075
3039,-0.395,-0.080
3040,-0.400,-0.070
3041,-0.415,-0.085
3042,-0.420,-0.070
3043,-0.425,-0.065
3044,-0.420,-0.080
3045,-0.400,-0.070
3046,-0.410,-0.065
3047,-0.395,-0.050
3048,-0.390,-0.040
3049,-0.390,-0.055
3050,-0.380,-0.095
3051,-0.390,-0.115
3052,-0.385,-0.125
3053,-0.385,-0.105
3054,-0.385,-0.110
3055,-0.385,-0.100
3056,-0.385,-0.110
3057,-0.385,-0.125
3058,-0.385,-0.115
3059,-0.375,-0.115
3060,-0.375,-0.105
3061,-0.365,-0.115
3062,-0.355,-0.140
3063,-0.365,-0.160
3064,-0.355,-0.170
3065,-0.355,-0.170
3066,-0.355,-0.155
3067,-0.350,-0.160
3068,-0.345,-0.165
3069,-0.335,-0.180
3070,-0.335,-0.165
3071,-0.335,-0.150
3072,-0.330,-0.155
3073,-0.320,-0.170
3074,-0.325,-0.185
3075,-0.320,-0.200
3076,-0.330,-0.205
3077,-0.325,-0.190
3078,-0.330,-0.185
3079,-0.335,-0.180
3080,-0.325,-0.185
3081,-0.315,-0.185
3082,-0.310,-0.160
3083,-0.305,-0.145
3084,-0.305,-0.145
3085,-0.305,-0.145
3086,-0.300,-0.150
3087,-0.305,-0.155
3088,-0.310,-0.145
3089,-0.300,-0.140
3090,-0.300,-0.125
3091,-0.290,-0.130
3092,-0.275,-0.130
3093,-0.265,-0.115
3094,-0.255,-0.075
3095,-0.265,-0.050
3096,-0.245,-0.030
3097,-0.255,-0.025
3098,-0.260,-0.040
3099,-0.265,-0.055
3100,-0.275,-0.040
3101,-0.290,-0.030
3102,-0.285,-0.010
3103,-0.285,-0.020
3104,-0.275,-0.030
3105,-0.280,-0.015
3106,-0.275,0.000
3107,-0.280,0.010
3108,-0.285,0.015
3109,-0.290,-0.005
3110,-0.285,-0.030
3111,-0.305,-0.030
3112,-0.310,-0.015
3113,-0.315,-0.015
3114,-0.305,-0.025
3115,-0.295,-0.035
3116,-0.295,-0.035
3117,-0.295,-0.030
3118,-0.295,-0.010
3119,-0.295,0.010
3120,-0.305,0.005
3121,-0.300,-0.010
3122,-0.295,-0.015
3123,-0.305,-0.020
3124,-0.305,-0.015
3125,-0.320,-0.025
3126,-0.325,-0.040
3127,-0.325,-0.050
3128,-0.310,-0.040
3129,-0.295,-0.010
3130,-0.295,0.005
3131,-0.290,-0.005
3132,-0.290,-0.010
3133,-0.285,-0.020
3134,-0.290,-0.030
3135,-0.295,-0.015
3136,-0.310,-0.020
3137,-0.320,-0.025
3138,-0.315,-0.030
3139,-0.320,-0.035
3140,-0.325,-0.020
3141,-0.295,-0.010
3142,-0.295,0.000
3143,-0.300,-0.020
3144,-0.280,-0.020
3145,-0.290,-0.020
3146,-0.290,-0.015
3147,-0.295,0.000
3148,-0.320,-0.010
3149,-0.315,-0.030
3150,-0.310,-0.035
3151,-0.310,-0.030
3152,-0.305,-0.025
3153,-0.300,-0.020
3154,-0.290,-0.010
3155,-0.280,-0.005
3156,-0.275,-0.020
3157,-0.285,-0.010
3158,-0.285,-0.010
3159,-0.310,-0.005
3160,-0.310,-0.025
3161,-0.315,-0.030
3162,-0.320,-0.050
3163,-0.320,-0.030
3164,-0.310,0.000
3165,-0.290,0.015
3166,-0.275,0.020
3167,-0.250,0.015
3168,-0.240,0.035
3169,-0.235,0.050
3170,-0.225,0.060
3171,-0.230,0.050
3172,-0.230,0.030
3173,-0.240,0.025
3174,-0.235,0.015
3175,-0.225,0.020
3176,-0.190,0.010
3177,-0.160,0.005
3178,-0.140,0.005
3179,-0.115,-0.005
3180,-0.115,-0.010
3181,-0.125,0.005
3182,-0.140,-0.005
3183,-0.150,-0.015
3184,-0.170,-0.035
3185,-0.175,-0.030
3186,-0.205,-0.045
3187,-0.220,-0.040
3188,-0.230,-0.025
3189,-0.240,-0.030
3190,-0.245,-0.045
3191,-0.260,-0.030
3192,-0.270,-0.030
3193,-0.285,-0.015
3194,-0.310,-0.005
3195,-0.325,-0.035
3196,-0.345,-0.060
3197,-0.375,-0.070
3198,-0.390,-0.055
3199,-0.400,-0.040
3200,-0.405,-0.045
3201,-0.390,-0.030
3202,-0.395,-0.040
3203,-0.375,-0.040
3204,-0.370,-0.030
3205,-0.375,-0.020
3206,-0.370,-0.025
3207,-0.380,-0.050
3208,-0.390,-0.075
3209,-0.400,-0.080
3210,-0.400,-0.065
3211,-0.410,-0.055
3212,-0.420,-0.070
3213,-0.420,-0.075
3214,-0.425,-0.090
3215,-0.440,-0.095
3216,-0.420,-0.085
3217,-0.385,-0.055
3218,-0.310,-0.055
3219,-0.210,-0.075
3220,-0.060,-0.110
3221,0.115,-0.135
3222,0.335,-0.130
3223,0.590,-0.085
3224,0.855,-0.020
3225,1.105,0.065
3226,1.275,0.180
3227,1.350,0.305
3228,1.270,0.425
3229,1.070,0.505
3230,0.775,0.485
3231,0.440,0.375
3232,0.130,0.215
3233,-0.135,0.040
3234,-0.320,-0.100
3235,-0.425,-0.170
3236,-0.445,-0.185
3237,-0.435,-0.180
3238,-0.400,-0.125
3239,-0.365,-0.075
3240,-0.350,-0.020
3241,-0.360,-0.010
3242,-0.395,-0.015
3243,-0.430,-0.035
3244,-0.450,-0.080
3245,-0.475,-0.080
3246,-0.480,-0.060
3247,-0.480,-0.045
3248,-0.470,-0.045
3249,-0.455,-0.055
3250,-0.440,-0.065
3251,-0.445,-0.085
3252,-0.450,-0.070
3253,-0.465,-0.050
3254,-0.465,-0.040
3255,-0.460,-0.050
3256,-0.470,-0.080
3257,-0.475,-0.080
3258,-0.480,-0.080
3259,-0.485,-0.070
3260,-0.485,-0.060
3261,-0.480,-0.080
3262,-0.480,-0.065
3263,-0.460,-0.075
3264,-0.445,-0.065
3265,-0.455,-0.060
3266,-0.450,-0.055
3267,-0.445,-0.075
3268,-0.445,-0.095
3269,-0.455,-0.105
3270,-0.480,-0.105
3271,-0.475,-0.090
3272,-0.470,-0.075
3273,-0.460,-0.070
3274,-0.460,-0.095
3275,-0.450,-0.090
3276,-0.450,-0.090
3277,-0.445,-0.080
3278,-0.435,-0.080
3279,-0.435,-0.100
3280,-0.435,-0.115
3281,-0.425,-0.135
3282,-0.430,-0.135
3283,-0.440,-0.110
3284,-0.435,-0.100
3285,-0.435,-0.090
3286,-0.435,-0.105
3287,-0.420,-0.115
3288,-0.420,-0.135
3289,-0.415,-0.120
3290,-0.415,-0.120
3291,-0.405,-0.135
3292,-0.405,-0.145
3293,-0.400,-0.175
3294,-0.400,-0.170
3295,-0.395,-0.160
3296,-0.385,-0.140
3297,-0.385,-0.150
3298,-0.370,-0.150
3299,-0.370,-0.175
3300,-0.360,-0.200
3301,-0.365,-0.190
3302,-0.370,-0.180
3303,-0.375,-0.180
3304,-0.375,-0.185
3305,-0.370,-0.200
3306,-0.355,-0.210
3307,-0.355,-0.200
3308,-0.340,-0.175
3309,-0.340,-0.165
3310,-0.340,-0.145
3311,-0.330,-0.150
3312,-0.340,-0.180
3313,-0.340,-0.190
3314,-0.355,-0.180
3315,-0.360,-0.180
3316,-0.360,-0.185
3317,-0.365,-0.190
3318,-0.360,-0.205
3319,-0.360,-0.210
3320,-0.360,-0.190
3321,-0.335,-0.150
3322,-0.330,-0.145
3323,-0.310,-0.135
3324,-0.295,-0.130
3325,-0.295,-0.135
3326,-0.285,-0.125
3327,-0.280,-0.100
3328,-0.290,-0.090
3329,-0.295,-0.080
3330,-0.295,-0.075
3331,-0.290,-0.080
3332,-0.280,-0.050
3333,-0.290,-0.035
3334,-0.290,-0.005
3335,-0.275,0.015
3336,-0.250,0.000
3337,-0.270,-0.015
3338,-0.260,-0.020
3339,-0.270,-0.025
3340,-0.280,-0.020
3341,-0.300,-0.025
3342,-0.315,-0.030
3343,-0.310,-0.035
3344,-0.305,-0.040
3345,-0.300,-0.015
3346,-0.295,-0.005
3347,-0.295,-0.005
3348,-0.285,0.010
3349,-0.295,-0.010
3350,-0.295,-0.020
3351,-0.300,-0.025
3352,-0.305,-0.010
3353,-0.310,0.005
3354,-0.330,-0.005
3355,-0.330,-0.010
3356,-0.325,-0.025
3357,-0.325,-0.035
3358,-0.325,-0.015
3359,-0.325,0.000
3360,-0.305,0.000
3361,-0.300,-0.005
3362,-0.290,-0.020
3363,-0.285,-0.045
3364,-0.295,-0.035
3365,-0.310,-0.025
3366,-0.310,-0.020
3367,-0.305,-0.020
3368,-0.300,-0.025
3369,-0.295,-0.015
3370,-0.295,-0.015
3371,-0.290,0.015
3372,-0.295,0.025
3373,-0.300,0.010
3374,-0.285,-0.025
3375,-0.290,-0.040
3376,-0.285,-0.035
3377,-0.300,-0.020
3378,-0.305,-0.015
3379,-0.290,-0.005
3380,-0.290,-0.010
3381,-0.285,-0.010
3382,-0.290,0.000
3383,-0.285,0.020
3384,-0.290,0.010
3385,-0.285,-0.005
3386,-0.285,-0.035
3387,-0.290,-0.040
3388,-0.300,-0.035
3389,-0.300,-0.015
3390,-0.295,-0.025
3391,-0.300,-0.020
3392,-0.305,-0.020
3393,-0.285,-0.005
3394,-0.295,0.000
3395,-0.270,0.025
3396,-0.270,0.015
3397,-0.285,0.005
3398,-0.275,-0.020
3399,-0.275,-0.020
3400,-0.295,-0.015
3401,-0.295,-0.005
3402,-0.270,-0.005
3403,-0.265,-0.015
3404,-0.255,-0.010
3405,-0.240,0.010
3406,-0.235,0.050
3407,-0.215,0.055
3408,-0.210,0.055
3409,-0.205,0.050
3410,-0.190,0.045
3411,-0.190,0.050
3412,-0.200,0.050
3413,-0.170,0.045
3414,-0.170,0.030
3415,-0.130,0.015
3416,-0.110,0.010
3417,-0.105,0.015
3418,-0.100,0.055
3419,-0.110,0.050
3420,-0.115,0.030
3421,-0.115,0.005
3422,-0.125,-0.005
3423,-0.135,-0.005
3424,-0.160,-0.015
3425,-0.180,-0.040
3426,-0.200,-0.035
3427,-0.215,-0.035
3428,-0.240,-0.015
3429,-0.245,0.015
3430,-0.245,0.030
3431,-0.260,0.010
3432,-0.270,-0.020
3433,-0.290,-0.025
3434,-0.310,-0.020
3435,-0.325,-0.020
3436,-0.335,-0.035
3437,-0.345,-0.035
3438,-0.360,-0.050
3439,-0.355,-0.045
3440,-0.355,-0.035
3441,-0.350,-0.005
3442,-0.350,-0.005
3443,-0.330,-0.005
3444,-0.320,-0.030
3445,-0.335,-0.040
3446,-0.330,-0.035
3447,-0.355,-0.025
3448,-0.365,-0.035
3449,-0.380,-0.060
3450,-0.385,-0.070
3451,-0.400,-0.085
3452,-0.390,-0.065
3453,-0.380,-0.035
3454,-0.320,-0.015
3455,-0.235,-0.010
3456,-0.130,-0.035
3457,0.040,-0.065
3458,0.245,-0.080
3459,0.485,-0.080
3460,0.745,-0.055
3461,0.990,0.010
3462,1.235,0.120
3463,1.385,0.250
3464,1.395,0.400
3465,1.280,0.505
3466,1.065,0.550
3467,0.755,0.505
3468,0.430,0.385
3469,0.105,0.230
3470,-0.120,0.075
3471,-0.295,-0.045
3472,-0.395,-0.145
3473,-0.425,-0.200
3474,-0.415,-0.195
3475,-0.390,-0.140
3476,-0.365,-0.075
3477,-0.330,-0.025
3478,-0.320,0.000
3479,-0.340,-0.005
3480,-0.355,-0.030
3481,-0.365,-0.035
3482,-0.395,-0.045
3483,-0.405,-0.030
3484,-0.415,-0.025
3485,-0.415,-0.035
3486,-0.435,-0.050
3487,-0.415,-0.075
3488,-0.410,-0.060
3489,-0.415,-0.050
3490,-0.410,-0.030
3491,-0.405,-0.025
3492,-0.400,-0.045
3493,-0.390,-0.050
3494,-0.400,-0.055
3495,-0.400,-0.035
3496,-0.395,-0.030
3497,-0.405,-0.050
3498,-0.415,-0.060
3499,-0.410,-0.070
3500,-0.405,-0.060
3501,-0.415,-0.035
3502,-0.425,-0.020
3503,-0.400,-0.015
3504,-0.395,-0.035
3505,-0.380,-0.065
3506,-0.380,-0.070
3507,-0.390,-0.080
3508,-0.390,-0.075
3509,-0.385,-0.070
3510,-0.385,-0.085
3511,-0.390,-0.095
3512,-0.395,-0.080
3513,-0.400,-0.070
3514,-0.385,-0.045
3515,-0.385,-0.050
3516,-0.370,-0.060
3517,-0.370,-0.060
3518,-0.365,-0.065
3519,-0.385,-0.075
3520,-0.385,-0.090
3521,-0.385,-0.095
3522,-0.375,-0.120
3523,-0.360,-0.135
3524,-0.365,-0.115
3525,-0.350,-0.090
3526,-0.335,-0.085
3527,-0.320,-0.080
3528,-0.315,-0.100
3529,-0.315,-0.110
3530,-0.320,-0.115
3531,-0.325,-0.125
3532,-0.340,-0.140
3533,-0.335,-0.145
3534,-0.330,-0.165
3535,-0.320,-0.175
3536,-0.315,-0.160
3537,-0.305,-0.135
3538,-0.300,-0.125
3539,-0.290,-0.115
3540,-0.280,-0.135
3541,-0.280,-0.140
3542,-0.290,-0.145
3543,-0.300,-0.145
3544,-0.300,-0.130
3545,-0.300,-0.150
3546,-0.300,-0.155
3547,-0.295,-0.165
3548,-0.275,-0.160
3549,-0.285,-0.135
3550,-0.285,-0.120
3551,-0.265,-0.120
3552,-0.270,-0.115
3553,-0.275,-0.135
3554,-0.270,-0.135
3555,-0.270,-0.135
3556,-0.280,-0.120
3557,-0.275,-0.135
3558,-0.270,-0.125
3559,-0.255,-0.120
3560,-0.235,-0.090
3561,-0.220,-0.065
3562,-0.200,-0.020
3563,-0.195,-0.005
3564,-0.170,-0.015
3565,-0.170,-0.035
3566,-0.175,-0.035
3567,-0.190,-0.015
3568,-0.210,0.000
3569,-0.205,0.010
3570,-0.220,-0.005
3571,-0.195,-0.010
3572,-0.195,-0.010
3573,-0.185,0.010
3574,-0.195,0.035
3575,-0.190,0.045
3576,-0.185,0.030
3577,-0.190,0.025
3578,-0.190,0.015
3579,-0.210,0.020
3580,-0.210,0.040
3581,-0.235,0.050
3582,-0.230,0.040
3583,-0.240,0.035
3584,-0.235,0.025
3585,-0.230,0.025
3586,-0.225,0.040
3587,-0.225,0.055
3588,-0.210,0.055
3589,-0.210,0.045
3590,-0.205,0.020
3591,-0.205,-0.005
3592,-0.210,0.000
3593,-0.215,0.010
3594,-0.225,0.025
3595,-0.220,0.020
3596,-0.235,0.015
3597,-0.210,0.010
3598,-0.205,0.030
3599,-0.205,0.050
3600,-0.200,0.060
3601,-0.200,0.070
3602,-0.205,0.035
3603,-0.215,0.025
3604,-0.205,0.015
3605,-0.220,0.015
3606,-0.215,0.025
3607,-0.210,0.035
3608,-0.195,0.030
3609,-0.215,0.025
3610,-0.195,0.020
3611,-0.215,0.020
3612,-0.215,0.035
3613,-0.210,0.045
3614,-0.210,0.035
3615,-0.205,0.015
3616,-0.215,0.005
3617,-0.210,0.000
3618,-0.210,0.020
3619,-0.205,0.025
3620,-0.200,0.020
3621,-0.195,0.040
3622,-0.195,0.030
3623,-0.200,0.045
3624,-0.190,0.045
3625,-0.200,0.045
3626,-0.200,0.055
3627,-0.210,0.030
3628,-0.220,0.010
3629,-0.215,-0.005
3630,-0.225,0.010
3631,-0.225,0.030
3632,-0.220,0.035
3633,-0.205,0.035
3634,-0.190,0.020
3635,-0.195,0.020
3636,-0.185,0.030
3637,-0.200,0.040
3638,-0.205,0.050
3639,-0.215,0.040
3640,-0.210,0.025
3641,-0.215,0.010
3642,-0.225,0.025
3643,-0.210,0.050
3644,-0.195,0.075
3645,-0.180,0.105
3646,-0.170,0.100
3647,-0.150,0.095
3648,-0.140,0.080
3649,-0.135,0.090
3650,-0.130,0.095
3651,-0.135,0.095
3652,-0.110,0.080
3653,-0.100,0.050
3654,-0.080,0.040
3655,-0.085,0.035
3656,-0.070,0.045
3657,-0.080,0.050
3658,-0.070,0.055
3659,-0.070,0.040
3660,-0.065,0.040
3661,-0.065,0.030
3662,-0.065,0.030
3663,-0.085,0.040
3664,-0.090,0.015
3665,-0.105,0.000
3666,-0.140,-0.010
3667,-0.165,0.000
3668,-0.185,0.030
3669,-0.205,0.050
3670,-0.225,0.045
3671,-0.230,0.035
3672,-0.245,0.015
3673,-0.245,0.020
3674,-0.270,0.020
3675,-0.280,0.020
3676,-0.290,-0.010
3677,-0.295,-0.025
3678,-0.315,-0.025
3679,-0.320,-0.020
3680,-0.320,-0.010
3681,-0.310,0.015
3682,-0.310,0.015
3683,-0.305,0.005
3684,-0.305,0.010
3685,-0.310,0.000
3686,-0.320,0.005
3687,-0.305,0.000
3688,-0.330,-0.025
3689,-0.340,-0.050
3690,-0.350,-0.050
3691,-0.370,-0.050
3692,-0.375,-0.030
3693,-0.360,0.005
3694,-0.315,0.030
3695,-0.225,0.020
3696,-0.120,0.010
3697,0.025,-0.015
3698,0.220,-0.040
3699,0.430,-0.055
3700,0.685,-0.050
3701,0.940,-0.030
3702,1.170,0.030
3703,1.355,0.125
3704,1.450,0.255
3705,1.430,0.365
3706,1.280,0.450
3707,1.015,0.460
3708,0.680,0.395
3709,0.340,0.290
3710,0.035,0.150
3711,-0.180,0.010
3712,-0.315,-0.090
3713,-0.385,-0.150
3714,-0.400,-0.165
3715,-0.375,-0.130
3716,-0.340,-0.065
3717,-0.325,-0.010
3718,-0.305,0.010
3719,-0.325,0.010
3720,-0.345,-0.005
3721,-0.375,-0.015
3722,-0.415,-0.015
3723,-0.440,-0.025
3724,-0.435,-0.040
3725,-0.440,-0.040
3726,-0.440,-0.050
3727,-0.435,-0.030
3728,-0.435,-0.005
3729,-0.435,0.000
3730,-0.445,0.000
3731,-0.425,-0.010
3732,-0.420,-0.015
3733,-0.420,-0.030
3734,-0.430,0.000
3735,-0.435,0.005
3736,-0.440,-0.020
3737,-0.445,-0.030
3738,-0.455,-0.045
3739,-0.465,-0.040
3740,-0.465,-0.025
3741,-0.460,-0.010
3742,-0.455,-0.020
3743,-0.435,-0.040
3744,-0.425,-0.050
3745,-0.420,-0.035
3746,-0.425,-0.035
3747,-0.435,-0.035
3748,-0.455,-0.050
3749,-0.460,-0.050
3750,-0.455,-0.045
3751,-0.465,-0.040
3752,-0.465,-0.030
3753,-0.455,-0.030
3754,-0.440,-0.045
3755,-0.430,-0.065
3756,-0.420,-0.050
3757,-0.420,-0.045
3758,-0.410,-0.045
3759,-0.415,-0.065
3760,-0.420,-0.090
3761,-0.410,-0.100
3762,-0.425,-0.110
3763,-0.435,-0.090
3764,-0.430,-0.070
3765,-0.430,-0.070
3766,-0.415,-0.085
3767,-0.415,-0.080
3768,-0.390,-0.070
3769,-0.390,-0.090
3770,-0.395,-0.080
3771,-0.395,-0.115
3772,-0.380,-0.140
3773,-0.390,-0.155
3774,-0.390,-0.145
3775,-0.390,-0.135
3776,-0.385,-0.120
3777,-0.385,-0.125
3778,-0.375,-0.130
3779,-0.370,-0.140
3780,-0.365,-0.125
3781,-0.355,-0.125
3782,-0.355,-0.130
3783,-0.365,-0.140
3784,-0.355,-0.150
3785,-0.350,-0.170
3786,-0.355,-0.170
3787,-0.375,-0.155
3788,-0.370,-0.135
3789,-0.365,-0.130
3790,-0.370,-0.145
3791,-0.360,-0.135
3792,-0.355,-0.115
3793,-0.355,-0.105
3794,-0.360,-0.100
3795,-0.360,-0.110
3796,-0.360,-0.125
3797,-0.370,-0.130
3798,-0.365,-0.110
3799,-0.345,-0.080
3800,-0.340,-0.060
3801,-0.325,-0.045
3802,-0.305,-0.050
3803,-0.285,-0.030
3804,-0.290,-0.015
3805,-0.295,0.010
3806,-0.300,0.015
3807,-0.305,0.005
3808,-0.310,-0.005
3809,-0.320,-0.010
3810,-0.320,-0.005
3811,-0.325,0.010
3812,-0.330,0.030
3813,-0.320,0.030
3814,-0.320,0.030
3815,-0.320,0.050
3816,-0.315,0.060
3817,-0.325,0.065
3818,-0.335,0.055
3819,-0.345,0.015
3820,-0.345,0.010
3821,-0.365,0.005
3822,-0.365,0.010
3823,-0.370,0.020
3824,-0.360,0.025
3825,-0.345,0.020
3826,-0.345,0.035
3827,-0.330,0.050
3828,-0.335,0.060
3829,-0.340,0.075
3830,-0.340,0.050
3831,-0.350,0.015
3832,-0.355,0.010
3833,-0.360,-0.005
3834,-0.375,0.025
3835,-0.385,0.030
3836,-0.370,0.035
3837,-0.365,0.020
3838,-0.360,0.020
3839,-0.350,0.045
3840,-0.335,0.060
3841,-0.340,0.055
3842,-0.340,0.035
3843,-0.335,0.010
3844,-0.340,-0.015
3845,-0.350,-0.005
3846,-0.370,0.010
3847,-0.365,0.020
3848,-0.360,0.020
3849,-0.365,0.015
3850,-0.355,0.015
3851,-0.345,0.035
3852,-0.345,0.060
3853,-0.350,0.060
3854,-0.335,0.040
3855,-0.335,0.020
3856,-0.350,0.000
3857,-0.355,0.005
3858,-0.365,0.020
3859,-0.365,0.025
3860,-0.370,0.035
3861,-0.355,0.005
3862,-0.355,0.015
3863,-0.350,0.030
3864,-0.345,0.040
3865,-0.335,0.060
3866,-0.340,0.035
3867,-0.340,0.025
3868,-0.345,0.010
3869,-0.355,0.020
3870,-0.365,0.015
3871,-0.370,0.035
3872,-0.380,0.020
3873,-0.365,0.025
3874,-0.355,0.030
3875,-0.355,0.050
3876,-0.325,0.075
3877,-0.315,0.100
3878,-0.300,0.095
3879,-0.295,0.085
3880,-0.290,0.085
3881,-0.290,0.070
3882,-0.295,0.075
3883,-0.285,0.090
3884,-0.275,0.090
3885,-0.255,0.075
3886,-0.235,0.075
3887,-0.220,0.085
3888,-0.195,0.080
3889,-0.190,0.080
3890,-0.185,0.055
3891,-0.195,0.025
3892,-0.200,0.000
3893,-0.210,0.005
3894,-0.220,0.025
3895,-0.215,0.050
3896,-0.215,0.040
3897,-0.220,0.035
3898,-0.230,0.015
3899,-0.250,0.015
3900,-0.275,0.020
3901,-0.305,0.025
3902,-0.330,0.035
3903,-0.340,0.010
3904,-0.360,0.010
3905,-0.375,0.010
3906,-0.395,0.015
3907,-0.415,0.025
3908,-0.415,0.025
3909,-0.415,0.015
3910,-0.430,0.000
3911,-0.430,0.010
3912,-0.430,0.020
3913,-0.445,0.025
3914,-0.445,0.015
3915,-0.450,0.005
3916,-0.460,-0.005
3917,-0.470,-0.005
3918,-0.475,0.005
3919,-0.480,0.015
3920,-0.465,0.020
3921,-0.455,0.015
3922,-0.475,-0.010
3923,-0.470,-0.005
3924,-0.475,0.000
3925,-0.490,-0.005
3926,-0.510,-0.005
3927,-0.480,-0.015
3928,-0.445,-0.025
3929,-0.385,-0.015
3930,-0.310,-0.005
3931,-0.175,-0.020
3932,0.010,-0.040
3933,0.260,-0.060
3934,0.525,-0.055
3935,0.790,0.000
3936,1.040,0.080
3937,1.235,0.190
3938,1.335,0.280
3939,1.300,0.355
3940,1.130,0.400
3941,0.850,0.425
3942,0.505,0.365
3943,0.160,0.250
3944,-0.125,0.120
3945,-0.325,-0.030
3946,-0.450,-0.120
3947,-0.490,-0.155
3948,-0.485,-0.115
3949,-0.470,-0.060
3950,-0.445,-0.010
3951,-0.440,0.005
3952,-0.455,0.000
3953,-0.490,0.000
3954,-0.520,0.005
3955,-0.545,0.010
3956,-0.560,0.015
3957,-0.570,-0.005
3958,-0.565,-0.010
3959,-0.555,0.000
3960,-0.545,0.015
3961,-0.530,0.020
3962,-0.545,0.010
3963,-0.545,-0.005
3964,-0.540,-0.025
3965,-0.550,-0.030
3966,-0.575,-0.030
3967,-0.580,-0.005
3968,-0.580,0.005
3969,-0.570,0.000
3970,-0.575,0.000
3971,-0.555,0.000
3972,-0.545,-0.005
3973,-0.540,0.000
3974,-0.545,-0.015
3975,-0.535,-0.015
3976,-0.550,-0.030
3977,-0.545,-0.035
3978,-0.555,-0.025
3979,-0.565,-0.010
3980,-0.570,0.010
3981,-0.565,0.000
3982,-0.550,-0.015
3983,-0.540,-0.015
3984,-0.530,-0.010
3985,-0.540,-0.015
3986,-0.540,-0.010
3987,-0.530,-0.025
3988,-0.525,-0.050
3989,-0.530,-0.060
3990,-0.530,-0.060
3991,-0.545,-0.050
3992,-0.540,-0.045
3993,-0.540,-0.070
3994,-0.530,-0.055
3995,-0.520,-0.045
3996,-0.510,-0.035
3997,-0.515,-0.025
3998,-0.500,-0.035
3999,-0.505,-0.060
4000,-0.495,-0.075
4001,-0.490,-0.095
4002,-0.495,-0.080
4003,-0.495,-0.085
4004,-0.495,-0.090
4005,-0.490,-0.095
4006,-0.495,-0.115
4007,-0.485,-0.100
4008,-0.480,-0.085
4009,-0.465,-0.105
4010,-0.460,-0.100
4011,-0.465,-0.130
4012,-0.460,-0.140
4013,-0.460,-0.140
4014,-0.465,-0.130
4015,-0.455,-0.135
4016,-0.455,-0.135
4017,-0.450,-0.140
4018,-0.445,-0.130
4019,-0.445,-0.100
4020,-0.435,-0.085
4021,-0.440,-0.085
4022,-0.430,-0.110
4023,-0.435,-0.125
4024,-0.450,-0.140
4025,-0.450,-0.140
4026,-0.455,-0.120
4027,-0.470,-0.115
4028,-0.465,-0.105
4029,-0.450,-0.100
4030,-0.425,-0.090
4031,-0.415,-0.060
4032,-0.410,-0.040
4033,-0.400,-0.025
4034,-0.395,-0.020
4035,-0.395,-0.035
4036,-0.400,-0.025
4037,-0.400,-0.010
4038,-0.410,0.015
4039,-0.405,0.030
4040,-0.415,0.015
4041,-0.395,0.025
4042,-0.395,0.045
4043,-0.395,0.065
4044,-0.395,0.075
4045,-0.390,0.055
4046,-0.390,0.045
4047,-0.400,0.045
4048,-0.410,0.040
4049,-0.415,0.065
4050,-0.435,0.050
4051,-0.445,0.040
4052,-0.410,0.040
4053,-0.410,0.045
4054,-0.415,0.060
4055,-0.425,0.070
4056,-0.405,0.075
4057,-0.415,0.060
4058,-0.415,0.050
4059,-0.430,0.050
4060,-0.435,0.050
4061,-0.445,0.050
4062,-0.445,0.030
4063,-0.435,0.015
4064,-0.430,0.025
4065,-0.430,0.050
4066,-0.415,0.065
4067,-0.410,0.065
4068,-0.395,0.060
4069,-0.400,0.050
4070,-0.400,0.050
4071,-0.420,0.055
4072,-0.430,0.060
4073,-0.445,0.050
4074,-0.435,0.035
4075,-0.450,0.015
4076,-0.435,0.025
4077,-0.420,0.050
4078,-0.420,0.055
4079,-0.420,0.070
4080,-0.410,0.065
4081,-0.410,0.045
4082,-0.415,0.065
4083,-0.415,0.070
4084,-0.420,0.075
4085,-0.425,0.050
4086,-0.420,0.050
4087,-0.430,0.030
4088,-0.425,0.040
4089,-0.430,0.070
4090,-0.420,0.075
4091,-0.400,0.075
4092,-0.395,0.060
4093,-0.390,0.040
4094,-0.390,0.055
4095,-0.400,0.065
4096,-0.405,0.040
4097,-0.425,0.025
4098,-0.430,0.030
4099,-0.435,0.040
4100,-0.440,0.060
4101,-0.440,0.080
4102,-0.425,0.085
4103,-0.410,0.080
4104,-0.395,0.070
4105,-0.380,0.080
4106,-0.370,0.095
4107,-0.370,0.095
4108,-0.370,0.100
4109,-0.365,0.080
4110,-0.355,0.075
4111,-0.355,0.100
4112,-0.350,0.105
4113,-0.330,0.120
4114,-0.330,0.115
4115,-0.305,0.125
4116,-0.280,0.110
4117,-0.255,0.115
4118,-0.235,0.105
4119,-0.230,0.095
4120,-0.225,0.060
4121,-0.235,0.035
4122,-0.265,0.035
4123,-0.280,0.040
4124,-0.265,0.065
4125,-0.275,0.060
4126,-0.270,0.040
4127,-0.270,0.025
4128,-0.285,0.035
4129,-0.295,0.050
4130,-0.330,0.035
4131,-0.355,0.040
4132,-0.380,0.030
4133,-0.400,0.025
4134,-0.425,0.035
4135,-0.445,0.045
4136,-0.460,0.060
4137,-0.470,0.050
4138,-0.470,0.045
4139,-0.470,0.045
4140,-0.470,0.040
4141,-0.470,0.065
4142,-0.465,0.055
4143,-0.465,0.035
4144,-0.480,0.020
4145,-0.485,0.010
4146,-0.490,0.010
4147,-0.505,0.035
4148,-0.510,0.020
4149,-0.500,0.025
4150,-0.495,0.005
4151,-0.495,0.010
4152,-0.495,0.030
4153,-0.505,0.030
4154,-0.510,0.030
4155,-0.505,0.015
4156,-0.485,0.000
4157,-0.440,0.000
4158,-0.350,-0.005
4159,-0.240,-0.010
4160,-0.060,-0.025
4161,0.150,-0.030
4162,0.425,-0.020
4163,0.720,0.045
4164,1.000,0.170
4165,1.215,0.290
4166,1.325,0.430
4167,1.285,0.515
4168,1.125,0.570
4169,0.830,0.570
4170,0.475,0.485
4171,0.120,0.330
4172,-0.185,0.155
4173,-0.395,0.000
4174,-0.520,-0.115
4175,-0.565,-0.135
4176,-0.565,-0.080
4177,-0.525,-0.030
4178,-0.500,0.025
4179,-0.470,0.050
4180,-0.480,0.050
4181,-0.495,0.040
4182,-0.525,0.035
4183,-0.555,0.015
4184,-0.565,0.025
4185,-0.570,-0.005
4186,-0.555,-0.015
4187,-0.555,-0.005
4188,-0.545,0.025
4189,-0.555,0.050
4190,-0.550,0.040
4191,-0.560,0.020
4192,-0.565,0.005
4193,-0.565,-0.010
4194,-0.590,0.000
4195,-0.590,0.020
4196,-0.570,0.020
4197,-0.565,0.025
4198,-0.560,0.010
4199,-0.550,0.005
4200,-0.550,0.025
4201,-0.560,0.030
4202,-0.560,0.020
4203,-0.555,0.010
4204,-0.575,-0.010
4205,-0.575,-0.015
4206,-0.570,-0.010
4207,-0.560,0.010
4208,-0.545,0.015
4209,-0.540,0.005
4210,-0.545,-0.015
4211,-0.520,-0.020
4212,-0.520,-0.005
4213,-0.520,0.000
4214,-0.525,-0.005
4215,-0.525,-0.025
4216,-0.525,-0.045
4217,-0.525,-0.040
4218,-0.535,-0.025
4219,-0.545,-0.015
4220,-0.540,-0.010
4221,-0.525,-0.015
4222,-0.505,-0.015
4223,-0.495,-0.030
4224,-0.490,-0.025
4225,-0.490,-0.035
4226,-0.490,-0.045
4227,-0.480,-0.070
4228,-0.485,-0.080
4229,-0.485,-0.085
4230,-0.490,-0.075
4231,-0.500,-0.060
4232,-0.485,-0.075
4233,-0.475,-0.095
4234,-0.460,-0.095
4235,-0.455,-0.080
4236,-0.435,-0.090
4237,-0.445,-0.070
4238,-0.435,-0.080
4239,-0.430,-0.110
4240,-0.430,-0.125
4241,-0.435,-0.125
4242,-0.445,-0.105
4243,-0.450,-0.110
4244,-0.460,-0.105
4245,-0.450,-0.110
4246,-0.430,-0.105
4247,-0.415,-0.090
4248,-0.410,-0.080
4249,-0.410,-0.085
4250,-0.405,-0.090
4251,-0.405,-0.110
4252,-0.420,-0.120
4253,-0.425,-0.125
4254,-0.435,-0.125
4255,-0.460,-0.110
4256,-0.450,-0.110
4257,-0.425,-0.100
4258,-0.415,-0.100
4259,-0.385,-0.065
4260,-0.370,-0.040
4261,-0.355,-0.020
4262,-0.360,-0.030
4263,-0.350,-0.030
4264,-0.345,-0.025
4265,-0.355,-0.005
4266,-0.360,0.010
4267,-0.370,0.040
4268,-0.365,0.025
4269,-0.350,0.030
4270,-0.345,0.035
4271,-0.335,0.060
4272,-0.335,0.075
4273,-0.330,0.085
4274,-0.325,0.070
4275,-0.330,0.050
4276,-0.340,0.045
4277,-0.345,0.035
4278,-0.350,0.050
4279,-0.375,0.060
4280,-0.375,0.065
4281,-0.370,0.065
4282,-0.370,0.065
4283,-0.365,0.075
4284,-0.370,0.095
4285,-0.365,0.095
4286,-0.375,0.090
4287,-0.380,0.060
4288,-0.375,0.050
4289,-0.380,0.035
4290,-0.370,0.055
4291,-0.380,0.060
4292,-0.380,0.060
4293,-0.365,0.060
4294,-0.355,0.050
4295,-0.355,0.065
4296,-0.355,0.070
4297,-0.365,0.085
4298,-0.365,0.080
4299,-0.355,0.055
4300,-0.360,0.030
4301,-0.355,0.040
4302,-0.360,0.060
4303,-0.360,0.075
4304,-0.360,0.075
4305,-0.355,0.075
4306,-0.355,0.075
4307,-0.340,0.080
4308,-0.340,0.090
4309,-0.345,0.095
4310,-0.350,0.090
4311,-0.350,0.075
4312,-0.355,0.045
4313,-0.360,0.035
4314,-0.355,0.050
4315,-0.355,0.045
4316,-0.350,0.070
4317,-0.345,0.060
4318,-0.340,0.055
4319,-0.325,0.055
4320,-0.330,0.075
4321,-0.335,0.075
4322,-0.335,0.065
4323,-0.345,0.055
4324,-0.340,0.050
4325,-0.335,0.050
4326,-0.345,0.050
4327,-0.345,0.070
4328,-0.350,0.080
4329,-0.340,0.070
4330,-0.330,0.055
4331,-0.325,0.060
4332,-0.315,0.075
4333,-0.325,0.080
4334,-0.345,0.085
4335,-0.340,0.070
4336,-0.335,0.065
4337,-0.340,0.055
4338,-0.325,0.085
4339,-0.315,0.100
4340,-0.305,0.120
4341,-0.305,0.120
4342,-0.275,0.120
4343,-0.260,0.125
4344,-0.250,0.140
4345,-0.240,0.155
4346,-0.245,0.160
4347,-0.220,0.150
4348,-0.205,0.120
4349,-0.190,0.085
4350,-0.185,0.075
4351,-0.170,0.080
4352,-0.180,0.085
4353,-0.165,0.085
4354,-0.165,0.085
4355,-0.175,0.085
4356,-0.165,0.085
4357,-0.160,0.085
4358,-0.155,0.095
4359,-0.160,0.080
4360,-0.180,0.060
4361,-0.200,0.030
4362,-0.230,0.035
4363,-0.250,0.055
4364,-0.280,0.075
4365,-0.295,0.070
4366,-0.310,0.085
4367,-0.320,0.080
4368,-0.325,0.075
4369,-0.345,0.075
4370,-0.350,0.085
4371,-0.350,0.065
4372,-0.360,0.035
4373,-0.385,0.020
4374,-0.385,0.010
4375,-0.390,0.030
4376,-0.400,0.055
4377,-0.410,0.050
4378,-0.405,0.050
4379,-0.380,0.035
4380,-0.385,0.040
4381,-0.375,0.045
4382,-0.395,0.075
4383,-0.375,0.060
4384,-0.380,0.050
4385,-0.375,0.020
4386,-0.385,-0.005
4387,-0.405,-0.005
4388,-0.430,0.005
4389,-0.425,0.025
4390,-0.405,0.030
4391,-0.350,0.045
4392,-0.250,0.050
4393,-0.115,0.035
4394,0.060,0.045
4395,0.280,0.035
4396,0.520,0.020
4397,0.775,0.045
4398,1.030,0.105
4399,1.245,0.220
4400,1.380,0.355
4401,1.415,0.485
4402,1.315,0.570
4403,1.120,0.595
4404,0.820,0.545
4405,0.480,0.430
4406,0.145,0.285
4407,-0.110,0.120
4408,-0.295,-0.015
4409,-0.415,-0.105
4410,-0.470,-0.130
4411,-0.460,-0.095
4412,-0.425,-0.025
4413,-0.385,0.030
4414,-0.355,0.065
4415,-0.340,0.065
4416,-0.345,0.055
4417,-0.380,0.050
4418,-0.415,0.050
4419,-0.440,0.045
4420,-0.475,0.030
4421,-0.485,0.025
4422,-0.480,0.010
4423,-0.480,0.020
4424,-0.490,0.035
4425,-0.470,0.045
4426,-0.455,0.035
4427,-0.445,0.035
4428,-0.440,0.025
4429,-0.440,0.015
4430,-0.450,0.035
4431,-0.450,0.035
4432,-0.460,0.035
4433,-0.470,0.020
4434,-0.470,0.000
4435,-0.475,0.000
4436,-0.470,0.010
4437,-0.460,0.035
4438,-0.455,0.050
4439,-0.445,0.055
4440,-0.435,0.040
4441,-0.435,0.020
4442,-0.435,0.015
4443,-0.455,0.025
4444,-0.455,0.015
4445,-0.450,0.000
4446,-0.475,-0.010
4447,-0.465,-0.025
4448,-0.450,-0.015
4449,-0.450,0.000
4450,-0.460,0.025
4451,-0.440,0.020
4452,-0.425,0.025
4453,-0.410,0.005
4454,-0.410,0.005
4455,-0.415,0.000
4456,-0.430,0.010
4457,-0.420,-0.015
4458,-0.430,-0.030
4459,-0.425,-0.040
4460,-0.425,-0.045
4461,-0.420,-0.045
4462,-0.415,-0.020
4463,-0.410,-0.015
4464,-0.390,-0.010
4465,-0.390,-0.045
4466,-0.385,-0.055
4467,-0.375,-0.055
4468,-0.380,-0.060
4469,-0.390,-0.075
4470,-0.395,-0.080
4471,-0.400,-0.095
4472,-0.410,-0.105
4473,-0.390,-0.095
4474,-0.380,-0.065
4475,-0.380,-0.055
4476,-0.360,-0.055
4477,-0.360,-0.090
4478,-0.340,-0.090
4479,-0.335,-0.100
4480,-0.340,-0.095
4481,-0.340,-0.090
4482,-0.345,-0.080
4483,-0.350,-0.115
4484,-0.350,-0.110
4485,-0.355,-0.105
4486,-0.345,-0.100
4487,-0.360,-0.070
4488,-0.355,-0.080
4489,-0.360,-0.100
4490,-0.350,-0.120
4491,-0.345,-0.110
4492,-0.345,-0.105
4493,-0.340,-0.090
4494,-0.335,-0.085
4495,-0.335,-0.090
4496,-0.320,-0.085
4497,-0.310,-0.070
4498,-0.315,-0.045
4499,-0.305,-0.015
4500,-0.295,0.000
4501,-0.280,0.020
4502,-0.270,0.010
4503,-0.270,0.005
4504,-0.280,0.005
4505,-0.275,0.020
4506,-0.285,0.035
4507,-0.295,0.030
4508,-0.275,0.020
4509,-0.275,0.035
4510,-0.270,0.040
4511,-0.250,0.080
4512,-0.250,0.090
4513,-0.265,0.110
4514,-0.255,0.095
4515,-0.275,0.090
4516,-0.275,0.060
4517,-0.290,0.070
4518,-0.290,0.070
4519,-0.295,0.080
4520,-0.300,0.080
4521,-0.305,0.075
4522,-0.295,0.075
4523,-0.280,0.075
4524,-0.280,0.090
4525,-0.280,0.090
4526,-0.275,0.110
4527,-0.280,0.085
4528,-0.290,0.065
4529,-0.300,0.055
4530,-0.310,0.050
4531,-0.315,0.075
4532,-0.310,0.075
4533,-0.305,0.085
4534,-0.295,0.060
4535,-0.285,0.055
4536,-0.270,0.060
4537,-0.270,0.065
4538,-0.270,0.100
4539,-0.270,0.085
4540,-0.270,0.075
4541,-0.280,0.055
4542,-0.285,0.050
4543,-0.300,0.055
4544,-0.305,0.070
4545,-0.310,0.100
4546,-0.305,0.090
4547,-0.285,0.075
4548,-0.275,0.070
4549,-0.265,0.060
4550,-0.260,0.080
4551,-0.265,0.090
4552,-0.260,0.085
4553,-0.265,0.065
4554,-0.265,0.050
4555,-0.275,0.050
4556,-0.290,0.060
4557,-0.295,0.085
4558,-0.280,0.090
4559,-0.275,0.095
4560,-0.265,0.080
4561,-0.265,0.080
4562,-0.265,0.075
4563,-0.250,0.085
4564,-0.270,0.065
4565,-0.270,0.060
4566,-0.265,0.055
4567,-0.260,0.040
4568,-0.270,0.060
4569,-0.270,0.060
4570,-0.280,0.075
4571,-0.275,0.095
4572,-0.275,0.090
4573,-0.270,0.065
4574,-0.270,0.065
4575,-0.275,0.065
4576,-0.275,0.075
4577,-0.290,0.090
4578,-0.285,0.075
4579,-0.275,0.070
4580,-0.270,0.055
4581,-0.260,0.085
4582,-0.245,0.110
4583,-0.230,0.130
4584,-0.230,0.140
4585,-0.230,0.140
4586,-0.225,0.125
4587,-0.215,0.120
4588,-0.205,0.125
4589,-0.210,0.140
4590,-0.215,0.140
4591,-0.190,0.125
4592,-0.170,0.090
4593,-0.150,0.080
4594,-0.115,0.075
4595,-0.110,0.090
4596,-0.105,0.095
4597,-0.110,0.090
4598,-0.110,0.075
4599,-0.120,0.055
4600,-0.130,0.050
4601,-0.130,0.055
4602,-0.145,0.060
4603,-0.155,0.065
4604,-0.150,0.050
4605,-0.160,0.045
4606,-0.185,0.035
4607,-0.200,0.050
4608,-0.205,0.070
4609,-0.230,0.080
4610,-0.245,0.085
4611,-0.265,0.055
4612,-0.285,0.050
4613,-0.315,0.040
4614,-0.345,0.045
4615,-0.355,0.050
4616,-0.370,0.065
4617,-0.365,0.050
4618,-0.355,0.040
4619,-0.350,0.045
4620,-0.335,0.060
4621,-0.340,0.060
4622,-0.360,0.055
4623,-0.365,0.030
4624,-0.370,0.005
4625,-0.380,0.005
4626,-0.390,0.020
4627,-0.410,0.035
4628,-0.405,0.045
4629,-0.405,0.045
4630,-0.415,0.035
4631,-0.420,0.035
4632,-0.415,0.030
4633,-0.420,0.030
4634,-0.405,0.045
4635,-0.375,0.035
4636,-0.310,0.030
4637,-0.220,0.000
4638,-0.105,-0.015
4639,0.055,-0.035
4640,0.275,-0.025
4641,0.515,-0.015
4642,0.795,0.015
4643,1.060,0.100
4644,1.285,0.185
4645,1.450,0.280
4646,1.490,0.390
4647,1.395,0.460
4648,1.190,0.480
4649,0.890,0.450
4650,0.550,0.355
4651,0.210,0.235
4652,-0.050,0.110
4653,-0.240,0.005
4654,-0.350,-0.075
4655,-0.400,-0.110
4656,-0.395,-0.100
4657,-0.390,-0.050
4658,-0.380,0.010
4659,-0.370,0.040
4660,-0.370,0.035
4661,-0.385,0.020
4662,-0.415,0.010
4663,-0.430,-0.005
4664,-0.460,0.020
4665,-0.475,0.010
4666,-0.470,0.015
4667,-0.465,0.025
4668,-0.460,0.025
4669,-0.460,0.045
4670,-0.460,0.050
4671,-0.470,0.060
4672,-0.475,0.045
4673,-0.480,0.010
4674,-0.485,-0.005
4675,-0.480,0.000
4676,-0.475,0.010
4677,-0.470,0.030
4678,-0.460,0.035
4679,-0.480,0.025
4680,-0.440,0.010
4681,-0.445,0.005
4682,-0.465,0.015
4683,-0.480,0.020
4684,-0.475,0.010
4685,-0.470,-0.005
4686,-0.470,-0.015
4687,-0.475,-0.015
4688,-0.475,-0.020
4689,-0.460,0.010
4690,-0.465,0.000
4691,-0.455,0.000
4692,-0.450,0.000
4693,-0.445,0.000
4694,-0.465,0.020
4695,-0.465,0.015
4696,-0.475,-0.020
4697,-0.480,-0.040
4698,-0.475,-0.050
4699,-0.475,-0.060
4700,-0.460,-0.040
4701,-0.450,-0.020
4702,-0.435,-0.045
4703,-0.430,-0.040
4704,-0.415,-0.040
4705,-0.410,-0.035
4706,-0.420,-0.030
4707,-0.420,-0.040
4708,-0.445,-0.060
4709,-0.440,-0.095
4710,-0.435,-0.105
4711,-0.445,-0.100
4712,-0.430,-0.085
4713,-0.425,-0.070
4714,-0.400,-0.090
4715,-0.390,-0.090
4716,-0.380,-0.070
4717,-0.375,-0.075
4718,-0.380,-0.080
4719,-0.385,-0.100
4720,-0.380,-0.120
4721,-0.380,-0.135
4722,-0.380,-0.135
4723,-0.395,-0.120
4724,-0.395,-0.115
4725,-0.385,-0.120
4726,-0.365,-0.125
4727,-0.355,-0.130
4728,-0.355,-0.140
4729,-0.355,-0.120
4730,-0.360,-0.105
4731,-0.360,-0.095
4732,-0.370,-0.125
4733,-0.370,-0.130
4734,-0.385,-0.120
4735,-0.380,-0.090
4736,-0.375,-0.090
4737,-0.365,-0.095
4738,-0.340,-0.095
4739,-0.335,-0.075
4740,-0.330,-0.050
4741,-0.320,-0.035
4742,-0.305,-0.015
4743,-0.295,-0.015
4744,-0.295,-0.025
4745,-0.310,-0.015
4746,-0.305,0.005
4747,-0.315,0.030
4748,-0.310,0.040
4749,-0.310,0.040
4750,-0.315,0.045
4751,-0.315,0.050
4752,-0.305,0.075
4753,-0.315,0.080
4754,-0.300,0.075
4755,-0.320,0.055
4756,-0.320,0.030
4757,-0.315,0.035
4758,-0.325,0.030
4759,-0.335,0.050
4760,-0.335,0.050
4761,-0.320,0.060
4762,-0.310,0.060
4763,-0.325,0.055
4764,-0.320,0.060
4765,-0.315,0.075
4766,-0.320,0.065
4767,-0.330,0.035
4768,-0.335,0.030
4769,-0.335,0.035
4770,-0.350,0.045
4771,-0.360,0.055
4772,-0.345,0.070
4773,-0.340,0.065
4774,-0.330,0.050
4775,-0.320,0.060
4776,-0.310,0.075
4777,-0.315,0.080
4778,-0.310,0.070
4779,-0.325,0.055
4780,-0.325,0.035
4781,-0.350,0.025
4782,-0.350,0.035
4783,-0.350,0.025
4784,-0.330,0.030
4785,-0.320,0.035
4786,-0.310,0.025
4787,-0.310,0.040
4788,-0.300,0.060
4789,-0.310,0.075
4790,-0.305,0.080
4791,-0.315,0.055
4792,-0.310,0.035
4793,-0.320,0.020
4794,-0.340,0.010
4795,-0.340,0.040
4796,-0.355,0.050
4797,-0.345,0.050
4798,-0.330,0.045
4799,-0.315,0.045
4800,-0.300,0.045
4801,-0.295,0.050
4802,-0.305,0.075
4803,-0.305,0.060
4804,-0.315,0.050
4805,-0.320,0.030
4806,-0.325,0.030
4807,-0.335,0.035
4808,-0.335,0.040
4809,-0.330,0.050
4810,-0.320,0.030
4811,-0.315,0.045
4812,-0.305,0.050
4813,-0.300,0.070
4814,-0.300,0.080
4815,-0.300,0.080
4816,-0.310,0.065
4817,-0.300,0.050
4818,-0.305,0.055
4819,-0.295,0.065
4820,-0.290,0.100
4821,-0.285,0.130
4822,-0.275,0.125
4823,-0.260,0.120
4824,-0.235,0.105
4825,-0.225,0.100
4826,-0.210,0.115
4827,-0.210,0.105
4828,-0.195,0.090
4829,-0.175,0.080
4830,-0.155,0.050
4831,-0.150,0.055
4832,-0.160,0.055
4833,-0.165,0.055
4834,-0.170,0.060
4835,-0.165,0.050
4836,-0.160,0.060
4837,-0.160,0.045
4838,-0.165,0.065
4839,-0.180,0.070
4840,-0.180,0.040
4841,-0.200,0.025
4842,-0.230,-0.015
4843,-0.250,0.000
4844,-0.280,0.010
4845,-0.300,0.040
4846,-0.305,0.050
4847,-0.310,0.045
4848,-0.325,0.050
4849,-0.360,0.030
4850,-0.380,0.040
4851,-0.380,0.030
4852,-0.395,0.010
4853,-0.390,-0.010
4854,-0.390,-0.015
4855,-0.400,0.005
4856,-0.395,0.030
4857,-0.405,0.025
4858,-0.405,0.015
4859,-0.405,0.010
4860,-0.410,0.020
4861,-0.410,0.020
4862,-0.415,0.050
4863,-0.415,0.050
4864,-0.425,0.030
4865,-0.425,-0.015
4866,-0.445,-0.040
4867,-0.455,-0.065
4868,-0.450,-0.040
4869,-0.440,0.000
4870,-0.410,0.020
4871,-0.335,0.020
4872,-0.245,0.005
4873,-0.130,-0.025
4874,0.020,-0.050
4875,0.215,-0.065
4876,0.435,-0.050
4877,0.715,-0.020
4878,0.990,0.045
4879,1.240,0.130
4880,1.375,0.270
4881,1.405,0.390
4882,1.295,0.485
4883,1.060,0.520
4884,0.765,0.475
4885,0.440,0.355
4886,0.115,0.185
4887,-0.145,0.050
4888,-0.335,-0.065
4889,-0.435,-0.130
4890,-0.470,-0.155
4891,-0.465,-0.120
4892,-0.435,-0.075
4893,-0.410,-0.015
4894,-0.385,0.005
4895,-0.395,0.030
4896,-0.405,0.010
4897,-0.430,0.005
4898,-0.450,-0.010
4899,-0.480,-0.005
4900,-0.505,0.010
4901,-0.505,0.010
4902,-0.515,0.005
4903,-0.520,-0.005
4904,-0.520,-0.010
4905,-0.520,0.010
4906,-0.515,0.025
4907,-0.510,0.025
4908,-0.505,0.030
4909,-0.500,-0.010
4910,-0.490,-0.025
4911,-0.495,-0.030
4912,-0.500,-0.020
4913,-0.505,-0.020
4914,-0.510,-0.020
4915,-0.520,-0.020
4916,-0.515,-0.025
4917,-0.500,-0.025
4918,-0.515,-0.010
4919,-0.515,0.010
4920,-0.515,0.010
4921,-0.510,0.010
4922,-0.475,-0.015
4923,-0.475,-0.015
4924,-0.485,-0.015
4925,-0.490,-0.005
4926,-0.500,-0.020
4927,-0.505,-0.030
4928,-0.500,-0.045
4929,-0.495,-0.045
4930,-0.490,-0.030
4931,-0.475,-0.010
4932,-0.475,-0.005
4933,-0.465,-0.025
4934,-0.460,-0.040
4935,-0.445,-0.045
4936,-0.450,-0.055
4937,-0.450,-0.050
4938,-0.465,-0.055
4939,-0.460,-0.070
4940,-0.455,-0.085
4941,-0.460,-0.085
4942,-0.450,-0.060
4943,-0.440,-0.040
4944,-0.430,-0.040
4945,-0.445,-0.050
4946,-0.425,-0.080
4947,-0.420,-0.085
4948,-0.425,-0.115
4949,-0.420,-0.105
4950,-0.425,-0.125
4951,-0.420,-0.125
4952,-0.425,-0.160
4953,-0.405,-0.125
4954,-0.405,-0.120
4955,-0.400,-0.115
4956,-0.385,-0.100
4957,-0.380,-0.110
4958,-0.380,-0.125
4959,-0.380,-0.125
4960,-0.385,-0.130
4961,-0.385,-0.135
4962,-0.395,-0.155
4963,-0.400,-0.160
4964,-0.385,-0.160
4965,-0.390,-0.135
4966,-0.385,-0.115
4967,-0.375,-0.090
4968,-0.375,-0.110
4969,-0.375,-0.125
4970,-0.375,-0.125
4971,-0.380,-0.120
4972,-0.380,-0.105
4973,-0.380,-0.100
4974,-0.370,-0.115
4975,-0.360,-0.105
4976,-0.360,-0.090
4977,-0.340,-0.060
4978,-0.330,-0.040
4979,-0.320,-0.015
4980,-0.305,-0.015
4981,-0.300,-0.010
4982,-0.310,0.005
4983,-0.295,0.020
4984,-0.310,0.025
4985,-0.325,0.020
4986,-0.320,0.010
4987,-0.310,0.005
4988,-0.300,0.025
4989,-0.315,0.035
4990,-0.310,0.050
4991,-0.305,0.070
4992,-0.310,0.055
4993,-0.305,0.045
4994,-0.315,0.050
4995,-0.330,0.055
4996,-0.345,0.060
4997,-0.345,0.040
4998,-0.345,0.030
4999,-0.355,0.020
5000,-0.340,0.045
5001,-0.345,0.060
5002,-0.330,0.065
5003,-0.330,0.035
5004,-0.330,0.045
5005,-0.320,0.035
5006,-0.330,0.040
5007,-0.335,0.040
5008,-0.350,0.035
5009,-0.350,0.025
5010,-0.345,0.025
5011,-0.350,0.030
5012,-0.345,0.040
5013,-0.345,0.055
5014,-0.340,0.045
5015,-0.320,0.030
5016,-0.320,0.040
5017,-0.320,0.035
5018,-0.330,0.040
5019,-0.340,0.040
5020,-0.335,0.025
5021,-0.330,0.015
5022,-0.340,0.010
5023,-0.345,0.025
5024,-0.355,0.050
5025,-0.340,0.050
5026,-0.330,0.040
5027,-0.325,0.045
5028,-0.320,0.040
5029,-0.325,0.060
5030,-0.320,0.050
5031,-0.320,0.040
5032,-0.330,0.020
5033,-0.320,0.010
5034,-0.335,0.015
5035,-0.340,0.025
5036,-0.350,0.020
5037,-0.345,0.030
5038,-0.330,0.020
5039,-0.310,0.030
5040,-0.320,0.065
5041,-0.315,0.070
5042,-0.320,0.060
5043,-0.335,0.045
5044,-0.340,0.040
5045,-0.330,0.040
5046,-0.335,0.055
5047,-0.340,0.065
5048,-0.320,0.070
5049,-0.305,0.065
5050,-0.285,0.075
5051,-0.265,0.095
5052,-0.240,0.105
5053,-0.230,0.110
5054,-0.240,0.085
5055,-0.225,0.085
5056,-0.230,0.075
5057,-0.230,0.070
5058,-0.210,0.080
5059,-0.195,0.060
5060,-0.165,0.035
5061,-0.170,0.025
5062,-0.165,0.050
5063,-0.160,0.070
5064,-0.155,0.065
5065,-0.165,0.055
5066,-0.170,0.050
5067,-0.180,0.030
5068,-0.195,0.015
5069,-0.230,0.005
5070,-0.235,0.010
5071,-0.260,-0.005
5072,-0.290,-0.005
5073,-0.305,0.000
5074,-0.310,0.015
5075,-0.315,0.040
5076,-0.320,0.055
5077,-0.325,0.035
5078,-0.345,0.015
5079,-0.350,0.010
5080,-0.380,0.020
5081,-0.380,0.025
5082,-0.400,0.020
5083,-0.405,0.000
5084,-0.410,-0.005
5085,-0.410,0.000
5086,-0.415,0.020
5087,-0.410,0.030
5088,-0.395,0.035
5089,-0.385,0.015
5090,-0.380,0.010
5091,-0.380,0.010
5092,-0.390,0.015
5093,-0.405,0.005
5094,-0.420,-0.025
5095,-0.445,-0.045
5096,-0.455,-0.065
5097,-0.445,-0.035
5098,-0.410,0.000
5099,-0.340,0.015
5100,-0.245,0.020
5101,-0.080,-0.030
5102,0.105,-0.070
5103,0.325,-0.090
5104,0.585,-0.030
5105,0.820,0.045
5106,1.060,0.145
5107,1.245,0.260
5108,1.315,0.375
5109,1.285,0.495
5110,1.105,0.580
5111,0.830,0.585
5112,0.500,0.500
5113,0.195,0.325
5114,-0.070,0.150
5115,-0.270,-0.015
5116,-0.400,-0.115
5117,-0.450,-0.140
5118,-0.455,-0.125
5119,-0.420,-0.080
5120,-0.385,-0.030
5121,-0.375,0.020
5122,-0.375,0.045
5123,-0.405,0.065
5124,-0.430,0.050
5125,-0.450,0.025
5126,-0.450,0.005
5127,-0.460,-0.005
5128,-0.480,-0.005
5129,-0.480,0.005
5130,-0.480,-0.005
5131,-0.470,-0.030
5132,-0.470,-0.020
5133,-0.460,-0.015
5134,-0.475,0.000
5135,-0.470,0.015
5136,-0.455,0.015
5137,-0.445,-0.010
5138,-0.450,-0.010
5139,-0.450,-0.015
5140,-0.460,-0.005
5141,-0.455,-0.010
5142,-0.460,-0.020
5143,-0.475,-0.035
5144,-0.465,-0.035
5145,-0.465,-0.015
5146,-0.450,0.000
5147,-0.445,0.015
5148,-0.450,0.005
5149,-0.435,0.005
5150,-0.435,-0.010
5151,-0.435,-0.015
5152,-0.435,-0.010
5153,-0.445,-0.025
5154,-0.440,-0.025
5155,-0.435,-0.050
5156,-0.420,-0.070
5157,-0.430,-0.070
5158,-0.435,-0.045
5159,-0.420,-0.025
5160,-0.425,-0.020
5161,-0.420,-0.050
5162,-0.425,-0.055
5163,-0.425,-0.055
5164,-0.430,-0.045
5165,-0.440,-0.040
5166,-0.430,-0.045
5167,-0.425,-0.075
5168,-0.410,-0.085
5169,-0.420,-0.090
5170,-0.410,-0.080
5171,-0.405,-0.065
5172,-0.395,-0.070
5173,-0.380,-0.080
5174,-0.385,-0.090
5175,-0.380,-0.110
5176,-0.385,-0.110
5177,-0.380,-0.115
5178,-0.400,-0.110
5179,-0.400,-0.130
5180,-0.380,-0.150
5181,-0.370,-0.150
5182,-0.375,-0.130
5183,-0.350,-0.105
5184,-0.355,-0.090
5185,-0.345,-0.100
5186,-0.345,-0.125
5187,-0.350,-0.150
5188,-0.360,-0.135
5189,-0.380,-0.145
5190,-0.385,-0.140
5191,-0.375,-0.145
5192,-0.370,-0.145
5193,-0.355,-0.150
5194,-0.350,-0.140
5195,-0.340,-0.115
5196,-0.325,-0.100
5197,-0.335,-0.080
5198,-0.320,-0.105
5199,-0.320,-0.120
5200,-0.345,-0.130
5201,-0.345,-0.120
5202,-0.350,-0.095
5203,-0.345,-0.080
5204,-0.330,-0.070
5205,-0.325,-0.085
5206,-0.310,-0.055
5207,-0.295,-0.040
5208,-0.300,-0.020
5209,-0.270,0.000
5210,-0.265,-0.010
5211,-0.255,0.000
5212,-0.260,-0.005
5213,-0.265,0.030
5214,-0.275,0.035
5215,-0.285,0.040
5216,-0.290,0.025
5217,-0.295,0.025
5218,-0.300,0.015
5219,-0.305,0.035
5220,-0.305,0.050
5221,-0.280,0.070
5222,-0.290,0.070
5223,-0.280,0.045
5224,-0.280,0.030
5225,-0.295,0.025
5226,-0.300,0.040
5227,-0.305,0.055
5228,-0.315,0.055
5229,-0.310,0.050
5230,-0.305,0.050
5231,-0.310,0.070
5232,-0.300,0.075
5233,-0.295,0.070
5234,-0.295,0.055
5235,-0.290,0.040
5236,-0.290,0.030
5237,-0.295,0.035
5238,-0.295,0.035
5239,-0.300,0.055
5240,-0.310,0.045
5241,-0.295,0.040
5242,-0.310,0.030
5243,-0.295,0.040
5244,-0.290,0.065
5245,-0.270,0.065
5246,-0.285,0.050
5247,-0.295,0.055
5248,-0.310,0.055
5249,-0.305,0.055
5250,-0.295,0.070
5251,-0.305,0.055
5252,-0.300,0.030
5253,-0.295,0.020
5254,-0.290,0.025
5255,-0.295,0.045
5256,-0.290,0.070
5257,-0.290,0.065
5258,-0.290,0.060
5259,-0.295,0.060
5260,-0.295,0.045
5261,-0.295,0.040
5262,-0.300,0.050
5263,-0.295,0.030
5264,-0.290,0.030
5265,-0.290,0.025
5266,-0.285,0.040
5267,-0.290,0.050
5268,-0.300,0.065
5269,-0.295,0.065
5270,-0.305,0.045
5271,-0.295,0.050
5272,-0.295,0.055
5273,-0.305,0.050
5274,-0.295,0.060
5275,-0.300,0.040
5276,-0.285,0.040
5277,-0.280,0.040
5278,-0.270,0.060
5279,-0.270,0.095
5280,-0.260,0.105
5281,-0.250,0.105
5282,-0.245,0.095
5283,-0.225,0.090
5284,-0.225,0.090
5285,-0.210,0.105
5286,-0.205,0.105
5287,-0.200,0.080
5288,-0.175,0.060
5289,-0.160,0.060
5290,-0.145,0.080
5291,-0.130,0.080
5292,-0.115,0.085
5293,-0.110,0.065
5294,-0.110,0.060
5295,-0.125,0.045
5296,-0.135,0.050
5297,-0.135,0.050
5298,-0.150,0.035
5299,-0.145,0.020
5300,-0.160,-0.005
5301,-0.180,-0.005
5302,-0.195,0.015
5303,-0.225,0.030
5304,-0.240,0.050
5305,-0.255,0.030
5306,-0.275,0.030
5307,-0.295,0.030
5308,-0.315,0.040
5309,-0.330,0.050
5310,-0.350,0.025
5311,-0.360,0.015
5312,-0.365,0.005
5313,-0.360,0.010
5314,-0.345,0.030
5315,-0.350,0.050
5316,-0.335,0.055
5317,-0.345,0.030
5318,-0.350,0.030
5319,-0.355,0.025
5320,-0.375,0.015
5321,-0.385,0.020
5322,-0.380,0.005
5323,-0.385,-0.005
5324,-0.395,-0.005
5325,-0.395,-0.010
5326,-0.400,0.000
5327,-0.400,0.005
5328,-0.375,0.015
5329,-0.345,0.015
5330,-0.280,0.015
5331,-0.195,-0.005
5332,-0.065,-0.020
5333,0.120,-0.050
5334,0.330,-0.070
5335,0.585,-0.035
5336,0.860,0.035
5337,1.120,0.180
5338,1.310,0.320
5339,1.400,0.465
5340,1.350,0.575
5341,1.180,0.615
5342,0.885,0.610
5343,0.550,0.505
5344,0.205,0.360
5345,-0.095,0.155
5346,-0.300,-0.015
5347,-0.415,-0.140
5348,-0.460,-0.160
5349,-0.455,-0.130
5350,-0.415,-0.045
5351,-0.355,0.025
5352,-0.325,0.045
5353,-0.310,0.060
5354,-0.355,0.050
5355,-0.385,0.035
5356,-0.410,0.025
5357,-0.435,0.015
5358,-0.445,0.000
5359,-0.455,-0.030
5360,-0.465,-0.020
5361,-0.455,0.000
5362,-0.445,0.015
5363,-0.435,0.030
5364,-0.440,0.025
5365,-0.420,0.020
5366,-0.415,0.015
5367,-0.425,0.010
5368,-0.425,0.010
5369,-0.435,0.005
5370,-0.440,-0.010
5371,-0.445,-0.025
5372,-0.450,-0.015
5373,-0.470,0.000
5374,-0.455,0.005
5375,-0.445,0.015
5376,-0.455,0.025
5377,-0.435,0.005
5378,-0.430,-0.010
5379,-0.425,-0.010
5380,-0.430,-0.005
5381,-0.425,0.000
5382,-0.430,-0.015
5383,-0.435,-0.030
5384,-0.440,-0.040
5385,-0.430,-0.025
5386,-0.430,0.000
5387,-0.440,0.000
5388,-0.430,0.010
5389,-0.415,-0.005
5390,-0.410,-0.040
5391,-0.405,-0.055
5392,-0.415,-0.055
5393,-0.420,-0.045
5394,-0.430,-0.040
5395,-0.425,-0.045
5396,-0.400,-0.065
5397,-0.405,-0.055
5398,-0.400,-0.060
5399,-0.405,-0.035
5400,-0.400,-0.020
5401,-0.385,-0.040
5402,-0.375,-0.045
5403,-0.390,-0.075
5404,-0.375,-0.095
5405,-0.380,-0.090
5406,-0.385,-0.095
5407,-0.380,-0.110
5408,-0.370,-0.120
5409,-0.365,-0.115
5410,-0.350,-0.105
5411,-0.355,-0.080
5412,-0.350,-0.075
5413,-0.350,-0.085
5414,-0.355,-0.125
5415,-0.345,-0.140
5416,-0.345,-0.130
5417,-0.370,-0.135
5418,-0.355,-0.110
5419,-0.360,-0.125
5420,-0.355,-0.130
5421,-0.345,-0.135
5422,-0.325,-0.125
5423,-0.325,-0.105
5424,-0.330,-0.095
5425,-0.320,-0.100
5426,-0.320,-0.110
5427,-0.330,-0.135
5428,-0.335,-0.140
5429,-0.335,-0.125
5430,-0.355,-0.115
5431,-0.350,-0.110
5432,-0.340,-0.115
5433,-0.325,-0.105
5434,-0.305,-0.095
5435,-0.295,-0.065
5436,-0.275,-0.030
5437,-0.260,-0.020
5438,-0.250,-0.030
5439,-0.265,-0.025
5440,-0.265,-0.030
5441,-0.255,-0.005
5442,-0.265,0.025
5443,-0.280,0.025
5444,-0.275,0.015
5445,-0.285,0.020
5446,-0.285,0.030
5447,-0.280,0.040
5448,-0.270,0.065
5449,-0.260,0.065
5450,-0.270,0.070
5451,-0.260,0.055
5452,-0.265,0.050
5453,-0.275,0.055
5454,-0.285,0.065
5455,-0.290,0.065
5456,-0.300,0.070
5457,-0.295,0.055
5458,-0.285,0.050
5459,-0.275,0.060
5460,-0.270,0.090
5461,-0.265,0.095
5462,-0.265,0.085
5463,-0.270,0.065
5464,-0.285,0.040
5465,-0.310,0.035
5466,-0.315,0.035
5467,-0.325,0.050
5468,-0.315,0.050
5469,-0.310,0.050
5470,-0.295,0.045
5471,-0.285,0.075
5472,-0.280,0.075
5473,-0.275,0.090
5474,-0.290,0.090
5475,-0.280,0.065
5476,-0.280,0.035
5477,-0.285,0.025
5478,-0.285,0.025
5479,-0.290,0.055
5480,-0.310,0.065
5481,-0.310,0.065
5482,-0.305,0.055
5483,-0.280,0.045
5484,-0.285,0.040
5485,-0.285,0.060
5486,-0.280,0.060
5487,-0.280,0.070
5488,-0.280,0.050
5489,-0.270,0.040
5490,-0.275,0.030
5491,-0.285,0.030
5492,-0.290,0.055
5493,-0.290,0.055
5494,-0.295,0.050
5495,-0.295,0.045
5496,-0.280,0.040
5497,-0.280,0.055
5498,-0.305,0.070
5499,-0.290,0.085
5500,-0.295,0.070
5501,-0.290,0.050
5502,-0.290,0.030
5503,-0.290,0.040
5504,-0.290,0.050
5505,-0.285,0.075
5506,-0.290,0.080
5507,-0.290,0.070
5508,-0.280,0.070
5509,-0.270,0.060
5510,-0.275,0.065
5511,-0.280,0.080
5512,-0.280,0.075
5513,-0.275,0.080
5514,-0.270,0.060
5515,-0.255,0.065
5516,-0.250,0.090
5517,-0.240,0.105
5518,-0.225,0.135
5519,-0.205,0.135
5520,-0.195,0.120
5521,-0.185,0.120
5522,-0.185,0.115
5523,-0.180,0.115
5524,-0.170,0.120
5525,-0.150,0.100
5526,-0.140,0.080
5527,-0.135,0.060
5528,-0.140,0.060
5529,-0.150,0.070
5530,-0.140,0.080
5531,-0.145,0.080
5532,-0.145,0.065
5533,-0.130,0.055
5534,-0.140,0.055
5535,-0.160,0.050
5536,-0.190,0.040
5537,-0.220,0.040
5538,-0.250,0.020
5539,-0.270,0.015
5540,-0.280,0.040
5541,-0.300,0.070
5542,-0.310,0.080
5543,-0.305,0.075
5544,-0.310,0.070
5545,-0.310,0.065
5546,-0.325,0.075
5547,-0.340,0.065
5548,-0.360,0.060
5549,-0.370,0.040
5550,-0.370,0.030
5551,-0.375,0.015
5552,-0.380,0.020
5553,-0.400,0.050
5554,-0.390,0.045
5555,-0.390,0.035
5556,-0.375,0.045
5557,-0.350,0.045
5558,-0.360,0.060
5559,-0.365,0.055
5560,-0.385,0.025
5561,-0.420,0.000
5562,-0.435,-0.010
5563,-0.420,0.005
5564,-0.380,0.020
5565,-0.285,0.015
5566,-0.145,0.000
5567,0.060,-0.020
5568,0.310,-0.015
5569,0.605,0.035
5570,0.915,0.125
5571,1.180,0.230
5572,1.350,0.365
5573,1.385,0.495
5574,1.230,0.590
5575,0.965,0.615
5576,0.600,0.530
5577,0.220,0.370
5578,-0.090,0.185
5579,-0.320,0.050
5580,-0.425,-0.055
5581,-0.460,-0.090
5582,-0.445,-0.075
5583,-0.405,-0.040
5584,-0.370,0.005
5585,-0.370,0.065
5586,-0.375,0.080
5587,-0.415,0.080
5588,-0.445,0.060
5589,-0.460,0.025
5590,-0.465,0.015
5591,-0.470,0.035
5592,-0.475,0.045
5593,-0.460,0.045
5594,-0.440,0.030
5595,-0.435,0.020
5596,-0.450,0.010
5597,-0.470,0.035
5598,-0.470,0.040
5599,-0.475,0.030
5600,-0.485,0.010
5601,-0.475,0.015
5602,-0.470,0.025
5603,-0.460,0.040
5604,-0.455,0.055
5605,-0.445,0.035
5606,-0.435,0.025
5607,-0.440,0.025
5608,-0.440,0.035
5609,-0.455,0.045
5610,-0.455,0.020
5611,-0.460,0.000
5612,-0.455,-0.020
5613,-0.460,-0.020
5614,-0.470,0.005
5615,-0.460,0.010
5616,-0.435,0.025
5617,-0.425,0.010
5618,-0.430,0.000
5619,-0.420,0.015
5620,-0.420,0.000
5621,-0.425,-0.005
5622,-0.430,-0.015
5623,-0.450,-0.040
5624,-0.445,-0.050
5625,-0.450,-0.045
5626,-0.435,-0.015
5627,-0.420,-0.005
5628,-0.405,-0.005
5629,-0.390,-0.025
5630,-0.400,-0.040
5631,-0.400,-0.040
5632,-0.395,-0.045
5633,-0.395,-0.040
5634,-0.390,-0.065
5635,-0.385,-0.070
5636,-0.390,-0.085
5637,-0.385,-0.100
5638,-0.370,-0.080
5639,-0.365,-0.075
5640,-0.365,-0.065
5641,-0.360,-0.090
5642,-0.370,-0.075
5643,-0.365,-0.085
5644,-0.365,-0.070
5645,-0.370,-0.080
5646,-0.365,-0.090
5647,-0.360,-0.125
5648,-0.355,-0.130
5649,-0.355,-0.110
5650,-0.345,-0.090
5651,-0.335,-0.070
5652,-0.325,-0.070
5653,-0.325,-0.085
5654,-0.325,-0.095
5655,-0.345,-0.100
5656,-0.345,-0.095
5657,-0.360,-0.090
5658,-0.350,-0.095
5659,-0.355,-0.105
5660,-0.360,-0.105
5661,-0.330,-0.090
5662,-0.320,-0.075
5663,-0.315,-0.040
5664,-0.300,-0.025
5665,-0.290,-0.035
5666,-0.290,-0.035
5667,-0.285,-0.020
5668,-0.280,0.010
5669,-0.285,0.025
5670,-0.285,0.035
5671,-0.285,0.025
5672,-0.285,0.025
5673,-0.280,0.020
5674,-0.270,0.025
5675,-0.260,0.050
5676,-0.265,0.060
5677,-0.245,0.070
5678,-0.250,0.080
5679,-0.265,0.070
5680,-0.270,0.070
5681,-0.285,0.085
5682,-0.295,0.085
5683,-0.300,0.065
5684,-0.305,0.060
5685,-0.310,0.055
5686,-0.300,0.080
5687,-0.290,0.110
5688,-0.285,0.130
5689,-0.275,0.115
5690,-0.275,0.100
5691,-0.275,0.090
5692,-0.280,0.080
5693,-0.290,0.080
5694,-0.310,0.095
5695,-0.310,0.070
5696,-0.315,0.075
5697,-0.320,0.060
5698,-0.325,0.060
5699,-0.320,0.075
5700,-0.295,0.080
5701,-0.280,0.090
5702,-0.270,0.075
5703,-0.270,0.070
5704,-0.290,0.075
5705,-0.290,0.080
5706,-0.290,0.090
5707,-0.310,0.090
5708,-0.305,0.075
5709,-0.310,0.070
5710,-0.305,0.065
5711,-0.300,0.085
5712,-0.300,0.110
5713,-0.290,0.110
5714,-0.280,0.095
5715,-0.265,0.090
5716,-0.260,0.075
5717,-0.270,0.075
5718,-0.285,0.080
5719,-0.295,0.070
5720,-0.290,0.070
5721,-0.285,0.065
5722,-0.290,0.075
5723,-0.285,0.085
5724,-0.285,0.115
5725,-0.285,0.125
5726,-0.285,0.095
5727,-0.290,0.075
5728,-0.280,0.075
5729,-0.280,0.065
5730,-0.285,0.085
5731,-0.300,0.090
5732,-0.285,0.075
5733,-0.295,0.080
5734,-0.295,0.070
5735,-0.285,0.085
5736,-0.295,0.110
5737,-0.290,0.110
5738,-0.280,0.110
5739,-0.265,0.100
5740,-0.255,0.080
5741,-0.255,0.090
5742,-0.250,0.115
5743,-0.245,0.130
5744,-0.235,0.140
5745,-0.215,0.130
5746,-0.195,0.115
5747,-0.190,0.120
5748,-0.190,0.145
5749,-0.180,0.160
5750,-0.170,0.175
5751,-0.170,0.155
5752,-0.150,0.125
5753,-0.140,0.110
5754,-0.140,0.105
5755,-0.125,0.095
5756,-0.120,0.110
5757,-0.110,0.105
5758,-0.105,0.100
5759,-0.115,0.085
5760,-0.115,0.100
5761,-0.115,0.105
5762,-0.130,0.100
5763,-0.140,0.075
5764,-0.150,0.055
5765,-0.175,0.035
5766,-0.190,0.030
5767,-0.215,0.055
5768,-0.220,0.080
5769,-0.245,0.090
5770,-0.240,0.090
5771,-0.260,0.080
5772,-0.265,0.085
5773,-0.275,0.105
5774,-0.295,0.105
5775,-0.310,0.095
5776,-0.340,0.080
5777,-0.340,0.055
5778,-0.330,0.055
5779,-0.340,0.060
5780,-0.365,0.065
5781,-0.365,0.080
5782,-0.350,0.075
5783,-0.335,0.065
5784,-0.320,0.060
5785,-0.315,0.070
5786,-0.305,0.080
5787,-0.310,0.075
5788,-0.320,0.075
5789,-0.330,0.050
5790,-0.345,0.030
5791,-0.370,0.025
5792,-0.385,0.020
5793,-0.400,0.035
5794,-0.380,0.045
5795,-0.350,0.040
5796,-0.260,0.040
5797,-0.145,0.045
5798,0.005,0.030
5799,0.205,0.020
5800,0.435,0.000
5801,0.695,0.015
5802,0.950,0.095
5803,1.170,0.195
5804,1.325,0.350
5805,1.375,0.510
5806,1.290,0.640
5807,1.095,0.690
5808,0.805,0.665
5809,0.490,0.560
5810,0.160,0.400
5811,-0.095,0.230
5812,-0.270,0.070
5813,-0.375,-0.045
5814,-0.430,-0.090
5815,-0.420,-0.080
5816,-0.380,-0.025
5817,-0.335,0.030
5818,-0.310,0.060
5819,-0.305,0.065
5820,-0.310,0.060
5821,-0.320,0.060
5822,-0.350,0.065
5823,-0.370,0.065
5824,-0.380,0.060
5825,-0.385,0.040
5826,-0.385,0.030
5827,-0.380,0.020
5828,-0.390,0.030
5829,-0.400,0.070
5830,-0.410,0.060
5831,-0.405,0.055
5832,-0.405,0.050
5833,-0.385,0.065
5834,-0.390,0.070
5835,-0.370,0.070
5836,-0.385,0.055
5837,-0.375,0.025
5838,-0.390,0.010
5839,-0.375,0.000
5840,-0.385,0.030
5841,-0.380,0.035
5842,-0.375,0.035
5843,-0.365,0.025
5844,-0.355,0.035
5845,-0.350,0.050
5846,-0.355,0.050
5847,-0.355,0.055
5848,-0.355,0.035
5849,-0.360,0.025
5850,-0.355,0.020
5851,-0.365,0.035
5852,-0.365,0.030
5853,-0.360,0.040
5854,-0.360,0.025
5855,-0.345,0.020
5856,-0.350,0.015
5857,-0.340,0.015
5858,-0.340,0.010
5859,-0.355,0.025
5860,-0.340,0.000
5861,-0.335,-0.025
5862,-0.335,-0.025
5863,-0.340,-0.025
5864,-0.330,-0.015
5865,-0.320,-0.010
5866,-0.310,-0.025
5867,-0.305,-0.030
5868,-0.300,-0.030
5869,-0.295,-0.015
5870,-0.300,-0.010
5871,-0.290,-0.015
5872,-0.295,-0.040
5873,-0.285,-0.065
5874,-0.280,-0.070
5875,-0.290,-0.075
5876,-0.285,-0.065
5877,-0.270,-0.050
5878,-0.265,-0.070
5879,-0.265,-0.075
5880,-0.260,-0.075
5881,-0.265,-0.070
5882,-0.265,-0.045
5883,-0.255,-0.045
5884,-0.260,-0.065
5885,-0.260,-0.090
5886,-0.255,-0.110
5887,-0.260,-0.090
5888,-0.265,-0.080
5889,-0.275,-0.060
5890,-0.260,-0.080
5891,-0.255,-0.090
5892,-0.245,-0.080
5893,-0.240,-0.065
5894,-0.225,-0.055
5895,-0.235,-0.035
5896,-0.235,-0.050
5897,-0.225,-0.055
5898,-0.215,-0.055
5899,-0.210,-0.035
5900,-0.210,-0.010
5901,-0.195,0.005
5902,-0.175,0.015
5903,-0.155,0.025
5904,-0.140,0.040
5905,-0.130,0.070
5906,-0.135,0.095
5907,-0.135,0.100
5908,-0.135,0.075
5909,-0.130,0.065
5910,-0.145,0.055
5911,-0.150,0.065
5912,-0.170,0.080
5913,-0.170,0.095
5914,-0.170,0.105
5915,-0.165,0.105
5916,-0.155,0.115
5917,-0.160,0.130
5918,-0.155,0.145
5919,-0.165,0.145
5920,-0.165,0.110
5921,-0.165,0.085
5922,-0.175,0.085
5923,-0.190,0.090
5924,-0.180,0.095
5925,-0.185,0.105
5926,-0.190,0.105
5927,-0.165,0.090
5928,-0.145,0.090
5929,-0.125,0.100
5930,-0.135,0.125
5931,-0.125,0.110
5932,-0.135,0.095
5933,-0.145,0.080
5934,-0.145,0.060
5935,-0.160,0.070
5936,-0.165,0.085
5937,-0.180,0.125
5938,-0.165,0.140
5939,-0.165,0.130
5940,-0.155,0.120
5941,-0.150,0.115
5942,-0.145,0.110
5943,-0.150,0.105
5944,-0.140,0.105
5945,-0.125,0.100
5946,-0.135,0.070
5947,-0.140,0.075
5948,-0.155,0.095
5949,-0.160,0.110
5950,-0.155,0.105
5951,-0.155,0.105
5952,-0.145,0.085
5953,-0.125,0.090
5954,-0.145,0.105
5955,-0.135,0.115
5956,-0.125,0.125
5957,-0.120,0.110
5958,-0.120,0.090
5959,-0.125,0.080
5960,-0.140,0.095
5961,-0.145,0.110
5962,-0.150,0.135
5963,-0.130,0.135
5964,-0.120,0.125
5965,-0.120,0.100
5966,-0.130,0.095
5967,-0.135,0.115
5968,-0.155,0.100
5969,-0.140,0.100
5970,-0.145,0.080
5971,-0.160,0.065
5972,-0.145,0.085
5973,-0.145,0.110
5974,-0.130,0.130
5975,-0.115,0.150
5976,-0.100,0.150
5977,-0.080,0.155
5978,-0.070,0.155
5979,-0.070,0.155
5980,-0.075,0.175
5981,-0.070,0.190
5982,-0.070,0.165
5983,-0.060,0.145
5984,-0.045,0.135
5985,-0.025,0.145
5986,-0.005,0.150
5987,0.020,0.165
5988,0.040,0.155
5989,0.065,0.130
5990,0.060,0.115
5991,0.050,0.115
5992,0.035,0.120
5993,0.025,0.110
5994,0.015,0.100
5995,0.015,0.085
5996,0.025,0.080
5997,0.010,0.085
5998,0.005,0.095
5999,-0.015,0.105
6000,-0.030,0.100
6001,-0.050,0.105
6002,-0.075,0.110
6003,-0.100,0.125
6004,-0.130,0.130
6005,-0.155,0.110
6006,-0.160,0.080
6007,-0.175,0.070
6008,-0.180,0.050
6009,-0.180,0.065
6010,-0.170,0.090
6011,-0.170,0.095
6012,-0.175,0.075
6013,-0.170,0.075
6014,-0.170,0.075
6015,-0.160,0.090
6016,-0.185,0.095
6017,-0.195,0.070
6018,-0.195,0.055
6019,-0.195,0.050
6020,-0.185,0.045
6021,-0.195,0.065
6022,-0.210,0.085
6023,-0.215,0.085
6024,-0.225,0.055
6025,-0.205,0.055
6026,-0.175,0.060
6027,-0.120,0.080
6028,-0.035,0.095
6029,0.085,0.085
6030,0.240,0.040
6031,0.445,0.020
6032,0.680,0.000
6033,0.935,0.035
6034,1.185,0.120
6035,1.430,0.220
6036,1.590,0.320
6037,1.645,0.430
6038,1.565,0.515
6039,1.365,0.570
6040,1.075,0.570
6041,0.740,0.475
6042,0.410,0.330
6043,0.130,0.155
6044,-0.075,0.010
6045,-0.200,-0.075
6046,-0.260,-0.080
6047,-0.265,-0.060
6048,-0.225,-0.015
6049,-0.170,0.010
6050,-0.140,0.040
6051,-0.125,0.060
6052,-0.150,0.060
6053,-0.190,0.070
6054,-0.205,0.040
6055,-0.225,0.025
6056,-0.245,0.015
6057,-0.260,0.010
6058,-0.250,0.035
6059,-0.255,0.055
6060,-0.250,0.080
6061,-0.235,0.065
6062,-0.220,0.050
6063,-0.215,0.045
6064,-0.220,0.045
6065,-0.225,0.050
6066,-0.240,0.055
6067,-0.250,0.045
6068,-0.250,0.030
6069,-0.245,0.025
6070,-0.235,0.040
6071,-0.255,0.050
6072,-0.230,0.060
6073,-0.215,0.070
6074,-0.215,0.050
6075,-0.210,0.025
6076,-0.225,0.020
6077,-0.225,0.020
6078,-0.220,0.025
6079,-0.270,0.025
6080,-0.265,0.030
6081,-0.255,0.000
6082,-0.230,0.015
6083,-0.220,0.025
6084,-0.215,0.040
6085,-0.205,0.055
6086,-0.200,0.050
6087,-0.210,0.030
6088,-0.220,0.005
6089,-0.230,0.005
6090,-0.230,0.020
6091,-0.245,0.025
6092,-0.220,0.015
6093,-0.210,-0.010
6094,-0.200,-0.015
6095,-0.205,-0.020
6096,-0.190,-0.005
6097,-0.180,0.000
6098,-0.185,0.000
6099,-0.175,-0.020
6100,-0.170,-0.030
6101,-0.175,-0.040
6102,-0.200,-0.025
6103,-0.195,-0.030
6104,-0.195,-0.025
6105,-0.195,-0.035
6106,-0.185,-0.050
6107,-0.175,-0.060
6108,-0.155,-0.055
6109,-0.140,-0.035
6110,-0.150,-0.015
6111,-0.155,-0.030
6112,-0.155,-0.060
6113,-0.155,-0.080
6114,-0.160,-0.100
6115,-0.160,-0.090
6116,-0.160,-0.075
6117,-0.155,-0.060
6118,-0.155,-0.060
6119,-0.140,-0.080
6120,-0.135,-0.075
6121,-0.140,-0.080
6122,-0.135,-0.090
6123,-0.140,-0.090
6124,-0.135,-0.100
6125,-0.135,-0.110
6126,-0.145,-0.125
6127,-0.150,-0.105
6128,-0.165,-0.100
6129,-0.160,-0.070
6130,-0.150,-0.080
6131,-0.130,-0.080
6132,-0.135,-0.075
6133,-0.120,-0.065
6134,-0.110,-0.045
6135,-0.115,-0.015
6136,-0.105,-0.010
6137,-0.095,-0.025
6138,-0.090,-0.040
6139,-0.095,-0.040
6140,-0.085,-0.020
6141,-0.100,0.010
6142,-0.080,0.035
6143,-0.065,0.040
6144,-0.070,0.045
6145,-0.075,0.050
6146,-0.085,0.070
6147,-0.090,0.095
6148,-0.090,0.070
6149,-0.085,0.070
6150,-0.095,0.050
6151,-0.100,0.030
6152,-0.105,0.045
6153,-0.110,0.065
6154,-0.110,0.075
6155,-0.100,0.085
6156,-0.095,0.075
6157,-0.080,0.075
6158,-0.080,0.085
6159,-0.105,0.095
6160,-0.115,0.100
6161,-0.105,0.075
6162,-0.105,0.055
6163,-0.110,0.050
6164,-0.120,0.050
6165,-0.125,0.065
6166,-0.120,0.075
6167,-0.110,0.080
6168,-0.105,0.080
6169,-0.095,0.085
6170,-0.100,0.095
6171,-0.100,0.095
6172,-0.110,0.085
6173,-0.110,0.055
6174,-0.105,0.030
6175,-0.110,0.055
6176,-0.115,0.070
6177,-0.115,0.075
6178,-0.110,0.080
6179,-0.095,0.085
6180,-0.105,0.075
6181,-0.105,0.090
6182,-0.110,0.090
6183,-0.105,0.090
6184,-0.100,0.065
6185,-0.090,0.040
6186,-0.100,0.040
6187,-0.105,0.030
6188,-0.110,0.050
6189,-0.100,0.065
6190,-0.100,0.060
6191,-0.080,0.070
6192,-0.075,0.085
6193,-0.070,0.100
6194,-0.075,0.105
6195,-0.080,0.085
6196,-0.095,0.065
6197,-0.095,0.040
6198,-0.110,0.035
6199,-0.105,0.060
6200,-0.105,0.065
6201,-0.100,0.060
6202,-0.095,0.055
6203,-0.080,0.055
6204,-0.085,0.060
6205,-0.080,0.070
6206,-0.080,0.070
6207,-0.075,0.070
6208,-0.085,0.060
6209,-0.085,0.050
6210,-0.085,0.075
6211,-0.095,0.105
6212,-0.085,0.120
6213,-0.070,0.110
6214,-0.050,0.110
6215,-0.030,0.110
6216,-0.015,0.115
6217,0.015,0.135
6218,0.015,0.135
6219,0.015,0.130
6220,0.020,0.085
6221,0.035,0.065
6222,0.040,0.075
6223,0.030,0.065
6224,0.040,0.055
6225,0.030,0.050
6226,0.040,0.060
6227,0.050,0.060
6228,0.045,0.075
6229,0.055,0.085
6230,0.045,0.065
6231,0.050,0.045
6232,0.025,0.040
6233,0.000,0.040
6234,-0.030,0.035
6235,-0.070,0.040
6236,-0.105,0.045
6237,-0.115,0.045
6238,-0.120,0.040
6239,-0.125,0.045
6240,-0.125,0.065
6241,-0.140,0.055
6242,-0.150,0.050
6243,-0.150,0.045
6244,-0.160,0.015
6245,-0.165,0.015
6246,-0.190,0.025
6247,-0.195,0.025
6248,-0.210,0.040
6249,-0.210,0.020
6250,-0.200,0.020
6251,-0.195,0.045
6252,-0.185,0.060
6253,-0.175,0.070
6254,-0.180,0.060
6255,-0.185,0.030
6256,-0.205,0.005
6257,-0.220,-0.005
6258,-0.245,-0.005
6259,-0.260,-0.015
6260,-0.245,0.010
6261,-0.210,0.025
6262,-0.125,0.030
6263,-0.015,0.035
6264,0.110,0.035
6265,0.295,0.020
6266,0.520,0.005
6267,0.770,-0.005
6268,1.035,-0.005
6269,1.275,0.040
6270,1.480,0.135
6271,1.585,0.230
6272,1.585,0.345
6273,1.460,0.415
6274,1.205,0.435
6275,0.875,0.385
6276,0.520,0.295
6277,0.230,0.175
6278,-0.005,0.040
6279,-0.145,-0.060
6280,-0.215,-0.120
6281,-0.245,-0.135
6282,-0.245,-0.095
6283,-0.225,-0.030
6284,-0.220,0.010
6285,-0.220,0.035
6286,-0.225,0.040
6287,-0.250,0.025
6288,-0.280,0.030
6289,-0.300,0.040
6290,-0.310,0.035
6291,-0.320,0.010
6292,-0.325,0.000
6293,-0.305,-0.010
6294,-0.320,0.005
6295,-0.325,0.020
6296,-0.320,0.020
6297,-0.330,-0.005
6298,-0.330,-0.005
6299,-0.330,0.005
6300,-0.330,0.030
6301,-0.325,0.030
6302,-0.320,0.025
6303,-0.325,0.015
6304,-0.335,0.005
6305,-0.330,-0.010
6306,-0.335,-0.005
6307,-0.340,-0.010
6308,-0.330,-0.010
6309,-0.325,-0.015
6310,-0.310,-0.010
6311,-0.310,-0.005
6312,-0.305,0.020
6313,-0.310,0.030
6314,-0.315,0.010
6315,-0.310,-0.010
6316,-0.315,-0.020
6317,-0.320,-0.020
6318,-0.325,-0.015
6319,-0.315,-0.010
6320,-0.310,-0.020
6321,-0.320,-0.040
6322,-0.295,-0.035
6323,-0.290,-0.025
6324,-0.290,-0.015
6325,-0.290,0.005
6326,-0.270,-0.005
6327,-0.275,-0.020
6328,-0.285,-0.050
6329,-0.280,-0.060
6330,-0.305,-0.065
6331,-0.290,-0.065
6332,-0.285,-0.065
6333,-0.280,-0.065
6334,-0.275,-0.080
6335,-0.270,-0.070
6336,-0.260,-0.045
6337,-0.240,-0.040
6338,-0.265,-0.050
6339,-0.260,-0.075
6340,-0.255,-0.100
6341,-0.280,-0.110
6342,-0.275,-0.110
6343,-0.270,-0.090
6344,-0.265,-0.085
6345,-0.250,-0.095
6346,-0.240,-0.110
6347,-0.230,-0.110
6348,-0.225,-0.115
6349,-0.215,-0.085
6350,-0.215,-0.085
6351,-0.210,-0.095
6352,-0.195,-0.130
6353,-0.210,-0.135
6354,-0.225,-0.125
6355,-0.225,-0.110
6356,-0.245,-0.110
6357,-0.245,-0.115
6358,-0.245,-0.120
6359,-0.230,-0.115
6360,-0.210,-0.110
6361,-0.215,-0.085
6362,-0.220,-0.065
6363,-0.220,-0.065
6364,-0.205,-0.075
6365,-0.215,-0.095
6366,-0.210,-0.080
6367,-0.220,-0.080
6368,-0.210,-0.065
6369,-0.215,-0.025
6370,-0.195,-0.025
6371,-0.170,-0.015
6372,-0.170,-0.010
6373,-0.150,0.010
6374,-0.160,0.025
6375,-0.165,0.060
6376,-0.175,0.055
6377,-0.180,0.045
6378,-0.185,0.025
6379,-0.185,0.020
6380,-0.200,0.035
6381,-0.195,0.055
6382,-0.185,0.065
6383,-0.190,0.050
6384,-0.180,0.065
6385,-0.180,0.070
6386,-0.175,0.065
6387,-0.180,0.075
6388,-0.185,0.060
6389,-0.190,0.035
6390,-0.195,0.010
6391,-0.205,0.005
6392,-0.210,0.025
6393,-0.215,0.045
6394,-0.220,0.065
6395,-0.215,0.050
6396,-0.210,0.065
6397,-0.190,0.060
6398,-0.195,0.070
6399,-0.195,0.070
6400,-0.190,0.065
6401,-0.185,0.045
6402,-0.185,0.030
6403,-0.210,0.025
6404,-0.210,0.030
6405,-0.205,0.055
6406,-0.215,0.050
6407,-0.180,0.055
6408,-0.175,0.040
6409,-0.165,0.045
6410,-0.185,0.045
6411,-0.180,0.060
6412,-0.190,0.070
6413,-0.185,0.050
6414,-0.185,0.030
6415,-0.185,0.020
6416,-0.180,0.020
6417,-0.180,0.055
6418,-0.195,0.070
6419,-0.185,0.070
6420,-0.180,0.055
6421,-0.165,0.055
6422,-0.175,0.045
6423,-0.195,0.060
6424,-0.195,0.070
6425,-0.195,0.075
6426,-0.190,0.055
6427,-0.185,0.030
6428,-0.195,0.030
6429,-0.200,0.030
6430,-0.180,0.050
6431,-0.175,0.075
6432,-0.170,0.080
6433,-0.170,0.065
6434,-0.175,0.040
6435,-0.170,0.055
6436,-0.185,0.045
6437,-0.195,0.055
6438,-0.205,0.035
6439,-0.205,0.020
6440,-0.205,0.025
6441,-0.205,0.045
6442,-0.185,0.075
6443,-0.180,0.080
6444,-0.150,0.100
6445,-0.145,0.095
6446,-0.135,0.115
6447,-0.130,0.125
6448,-0.135,0.130
6449,-0.125,0.130
6450,-0.130,0.100
6451,-0.120,0.090
6452,-0.115,0.090
6453,-0.115,0.090
6454,-0.095,0.105
6455,-0.065,0.110
6456,-0.055,0.095
6457,-0.025,0.085
6458,-0.010,0.050
6459,-0.030,0.050
6460,-0.040,0.060
6461,-0.055,0.080
6462,-0.055,0.055
6463,-0.085,0.040
6464,-0.090,0.040
6465,-0.080,0.060
6466,-0.090,0.065
6467,-0.085,0.075
6468,-0.095,0.060
6469,-0.095,0.060
6470,-0.120,0.045
6471,-0.150,0.045
6472,-0.185,0.045
6473,-0.205,0.045
6474,-0.220,0.030
6475,-0.235,0.020
6476,-0.255,0.015
6477,-0.270,0.040
6478,-0.285,0.050
6479,-0.275,0.045
6480,-0.270,0.025
6481,-0.270,0.010
6482,-0.255,0.010
6483,-0.265,0.035
6484,-0.265,0.030
6485,-0.290,0.040
6486,-0.300,0.025
6487,-0.320,0.005
6488,-0.325,0.010
6489,-0.325,0.040
6490,-0.315,0.045
6491,-0.320,0.040
6492,-0.310,0.020
6493,-0.310,-0.005
6494,-0.305,-0.015
6495,-0.285,0.010
6496,-0.250,0.035
6497,-0.170,0.020
6498,-0.060,-0.015
6499,0.075,-0.025
6500,0.255,-0.050
6501,0.480,-0.040
6502,0.740,0.010
6503,1.020,0.060
6504,1.265,0.140
6505,1.450,0.225
6506,1.490,0.345
6507,1.405,0.435
6508,1.190,0.495
6509,0.875,0.450
6510,0.530,0.340
6511,0.190,0.180
6512,-0.080,0.030
6513,-0.265,-0.080
6514,-0.350,-0.125
6515,-0.375,-0.130
6516,-0.355,-0.080
6517,-0.315,-0.030
6518,-0.275,0.010
6519,-0.275,0.035
6520,-0.280,0.040
6521,-0.300,0.035
6522,-0.330,0.000
6523,-0.365,-0.010
6524,-0.390,-0.025
6525,-0.415,-0.010
6526,-0.400,0.010
6527,-0.405,0.010
6528,-0.395,0.015
6529,-0.375,0.020
6530,-0.365,0.020
6531,-0.375,0.035
6532,-0.380,0.030
6533,-0.385,0.015
6534,-0.395,-0.010
6535,-0.395,-0.010
6536,-0.395,-0.015
6537,-0.405,-0.005
6538,-0.400,0.000
6539,-0.395,0.005
6540,-0.400,0.005
6541,-0.365,-0.005
6542,-0.375,0.005
6543,-0.380,0.010
6544,-0.390,0.010
6545,-0.395,0.000
6546,-0.395,-0.025
6547,-0.395,-0.025
6548,-0.395,-0.015
6549,-0.390,0.005
6550,-0.390,0.005
6551,-0.385,-0.005
6552,-0.375,-0.010
6553,-0.365,-0.025
6554,-0.380,-0.025
6555,-0.390,-0.020
6556,-0.380,-0.025
6557,-0.380,-0.030
6558,-0.380,-0.055
6559,-0.375,-0.065
6560,-0.390,-0.055
6561,-0.380,-0.045
6562,-0.380,-0.035
6563,-0.370,-0.035
6564,-0.355,-0.055
6565,-0.345,-0.060
6566,-0.345,-0.055
6567,-0.335,-0.045
6568,-0.340,-0.050
6569,-0.350,-0.060
6570,-0.350,-0.080
6571,-0.355,-0.100
6572,-0.345,-0.085
6573,-0.320,-0.070
6574,-0.330,-0.070
6575,-0.315,-0.080
6576,-0.300,-0.090
6577,-0.295,-0.110
6578,-0.295,-0.110
6579,-0.295,-0.110
6580,-0.290,-0.115
6581,-0.290,-0.115
6582,-0.305,-0.130
6583,-0.305,-0.135
6584,-0.305,-0.125
6585,-0.295,-0.125
6586,-0.285,-0.120
6587,-0.285,-0.120
6588,-0.275,-0.120
6589,-0.275,-0.105
6590,-0.285,-0.095
6591,-0.285,-0.080
6592,-0.280,-0.100
6593,-0.280,-0.115
6594,-0.285,-0.120
6595,-0.295,-0.130
6596,-0.295,-0.115
6597,-0.290,-0.085
6598,-0.275,-0.085
6599,-0.270,-0.070
6600,-0.240,-0.060
6601,-0.225,-0.025
6602,-0.225,0.000
6603,-0.225,0.010
6604,-0.220,0.010
6605,-0.235,0.000
6606,-0.225,0.000
6607,-0.235,0.015
6608,-0.235,0.030
6609,-0.240,0.045
6610,-0.240,0.050
6611,-0.235,0.045
6612,-0.225,0.045
6613,-0.235,0.050
6614,-0.230,0.060
6615,-0.225,0.060
6616,-0.235,0.040
6617,-0.240,0.030
6618,-0.250,0.030
6619,-0.255,0.025
6620,-0.265,0.045
6621,-0.260,0.050
6622,-0.255,0.050
6623,-0.250,0.045
6624,-0.240,0.045
6625,-0.235,0.050
6626,-0.235,0.055
6627,-0.245,0.055
6628,-0.245,0.040
6629,-0.260,0.015
6630,-0.260,0.025
6631,-0.275,0.035
6632,-0.270,0.045
6633,-0.265,0.055
6634,-0.250,0.035
6635,-0.250,0.025
6636,-0.225,0.030
6637,-0.225,0.045
6638,-0.230,0.055
6639,-0.235,0.050
6640,-0.220,0.030
6641,-0.250,0.020
6642,-0.265,0.015
6643,-0.265,0.030
6644,-0.250,0.035
6645,-0.240,0.030
6646,-0.235,0.040
6647,-0.220,0.020
6648,-0.230,0.035
6649,-0.225,0.050
6650,-0.220,0.070
6651,-0.220,0.060
6652,-0.220,0.040
6653,-0.225,0.040
6654,-0.230,0.025
6655,-0.235,0.030
6656,-0.250,0.045
6657,-0.240,0.045
