'sample interval','MLII','V1'
'0.00277778 sec','mV','mV'
0,-0.035,0.035
1,-0.035,0.035
2,-0.035,0.035
3,-0.035,0.035
4,-0.035,0.035
5,-0.035,0.035
6,-0.035,0.035
7,-0.035,0.035
8,-0.035,0.035
9,-0.035,0.060
10,-0.020,0.085
11,-0.040,0.070
12,-0.065,0.045
13,-0.080,0.010
14,-0.100,0.010
15,-0.090,0.015
16,-0.080,0.005
17,-0.105,0.000
18,-0.095,-0.025
19,-0.125,-0.055
20,-0.135,-0.045
21,-0.125,-0.040
22,-0.115,-0.025
23,-0.105,-0.025
24,-0.120,-0.025
25,-0.130,-0.030
26,-0.125,-0.010
27,-0.120,-0.010
28,-0.105,0.005
29,-0.100,0.000
30,-0.115,-0.005
31,-0.125,-0.025
32,-0.130,-0.005
33,-0.130,0.005
34,-0.115,0.015
35,-0.115,0.020
36,-0.110,0.000
37,-0.125,0.005
38,-0.130,0.015
39,-0.120,0.035
40,-0.105,0.035
41,-0.105,0.040
42,-0.090,0.015
43,-0.125,0.015
44,-0.135,0.025
45,-0.120,0.030
46,-0.100,0.050
47,-0.110,0.035
48,-0.115,0.035
49,-0.120,0.025
50,-0.115,0.040
51,-0.110,0.050
52,-0.090,0.055
53,-0.085,0.050
54,-0.095,0.040
55,-0.120,0.045
56,-0.125,0.040
57,-0.120,0.040
58,-0.110,0.060
59,-0.100,0.045
60,-0.115,0.030
61,-0.135,0.020
62,-0.135,0.025
63,-0.140,0.050
64,-0.110,0.055
65,-0.130,0.050
66,-0.135,0.030
67,-0.150,0.000
68,-0.140,0.010
69,-0.135,0.020
70,-0.130,0.035
71,-0.140,0.025
72,-0.135,0.025
73,-0.145,0.010
74,-0.145,0.015
75,-0.135,0.035
76,-0.120,0.035
77,-0.125,0.035
78,-0.130,0.015
79,-0.145,0.015
80,-0.145,0.025
81,-0.125,0.050
82,-0.125,0.060
83,-0.135,0.035
84,-0.130,0.025
85,-0.145,0.020
86,-0.155,0.030
87,-0.150,0.050
88,-0.135,0.045
89,-0.135,0.030
90,-0.140,0.000
91,-0.160,-0.005
92,-0.165,0.015
93,-0.150,0.045
94,-0.145,0.070
95,-0.135,0.060
96,-0.150,0.050
97,-0.145,0.055
98,-0.150,0.055
99,-0.140,0.075
100,-0.125,0.085
101,-0.120,0.075
102,-0.120,0.070
103,-0.120,0.065
104,-0.115,0.075
105,-0.115,0.080
106,-0.090,0.080
107,-0.070,0.055
108,-0.075,0.020
109,-0.090,0.000
110,-0.090,0.025
111,-0.075,0.020
112,-0.065,0.045
113,-0.075,0.040
114,-0.070,0.020
115,-0.110,-0.005
116,-0.095,-0.005
117,-0.100,0.005
118,-0.085,-0.005
119,-0.080,-0.005
120,-0.095,-0.025
121,-0.125,-0.030
122,-0.140,-0.055
123,-0.125,-0.055
124,-0.130,-0.050
125,-0.125,-0.045
126,-0.150,-0.040
127,-0.155,-0.040
128,-0.165,-0.030
129,-0.145,-0.025
130,-0.150,-0.005
131,-0.145,0.000
132,-0.175,0.005
133,-0.195,0.000
134,-0.205,0.015
135,-0.190,0.040
136,-0.185,0.050
137,-0.185,0.035
138,-0.200,0.010
139,-0.205,0.000
140,-0.220,0.010
141,-0.205,0.040
142,-0.185,0.050
143,-0.195,0.045
144,-0.225,0.025
145,-0.215,0.035
146,-0.230,0.030
147,-0.220,0.050
148,-0.220,0.055
149,-0.220,0.055
150,-0.230,0.030
151,-0.235,0.025
152,-0.245,0.035
153,-0.235,0.045
154,-0.215,0.055
155,-0.225,0.050
156,-0.230,0.045
157,-0.245,0.025
158,-0.250,0.020
159,-0.240,0.040
160,-0.235,0.045
161,-0.215,0.050
162,-0.230,0.040
163,-0.250,0.030
164,-0.240,0.035
165,-0.230,0.025
166,-0.220,0.020
167,-0.215,0.025
168,-0.225,0.015
169,-0.240,0.010
170,-0.245,0.015
171,-0.230,0.035
172,-0.220,0.055
173,-0.205,0.030
174,-0.195,-0.020
175,-0.185,-0.130
176,-0.175,-0.230
177,-0.135,-0.360
178,-0.090,-0.490
179,-0.035,-0.640
180,0.030,-0.780
181,0.110,-0.880
182,0.180,-0.930
183,0.220,-0.925
184,0.220,-0.905
185,0.185,-0.925
186,0.085,-0.940
187,-0.035,-0.925
188,-0.095,-0.900
189,-0.095,-0.845
190,-0.025,-0.795
191,0.085,-0.770
192,0.205,-0.750
193,0.340,-0.730
194,0.480,-0.695
195,0.595,-0.665
196,0.670,-0.640
197,0.680,-0.615
198,0.590,-0.570
199,0.455,-0.525
200,0.335,-0.430
201,0.230,-0.340
202,0.140,-0.275
203,0.035,-0.225
204,-0.090,-0.175
205,-0.200,-0.125
206,-0.300,-0.050
207,-0.390,0.050
208,-0.445,0.115
209,-0.485,0.145
210,-0.510,0.150
211,-0.495,0.155
212,-0.455,0.175
213,-0.425,0.195
214,-0.380,0.205
215,-0.335,0.210
216,-0.330,0.220
217,-0.320,0.215
218,-0.330,0.220
219,-0.310,0.250
220,-0.315,0.260
221,-0.300,0.250
222,-0.310,0.235
223,-0.315,0.230
224,-0.320,0.240
225,-0.290,0.265
226,-0.285,0.270
227,-0.270,0.265
228,-0.275,0.260
229,-0.295,0.260
230,-0.295,0.265
231,-0.285,0.285
232,-0.285,0.300
233,-0.280,0.290
234,-0.275,0.280
235,-0.295,0.275
236,-0.290,0.290
237,-0.275,0.315
238,-0.255,0.340
239,-0.245,0.345
240,-0.230,0.355
241,-0.260,0.335
242,-0.260,0.330
243,-0.250,0.335
244,-0.235,0.330
245,-0.235,0.325
246,-0.235,0.325
247,-0.245,0.330
248,-0.245,0.340
249,-0.220,0.370
250,-0.195,0.385
251,-0.175,0.365
252,-0.180,0.370
253,-0.180,0.365
254,-0.170,0.380
255,-0.155,0.385
256,-0.140,0.395
257,-0.120,0.385
258,-0.125,0.385
259,-0.120,0.385
260,-0.115,0.385
261,-0.100,0.400
262,-0.070,0.400
263,-0.075,0.390
264,-0.045,0.375
265,-0.050,0.345
266,-0.045,0.365
267,-0.005,0.355
268,0.015,0.345
269,0.025,0.320
270,0.030,0.285
271,0.030,0.245
272,0.040,0.225
273,0.060,0.230
274,0.085,0.225
275,0.090,0.200
276,0.080,0.165
277,0.080,0.135
278,0.080,0.125
279,0.110,0.110
280,0.125,0.105
281,0.140,0.085
282,0.130,0.050
283,0.115,0.040
284,0.090,0.040
285,0.090,0.055
286,0.085,0.055
287,0.060,0.060
288,0.030,0.050
289,-0.015,0.055
290,-0.040,0.035
291,-0.060,0.055
292,-0.080,0.070
293,-0.095,0.065
294,-0.115,0.050
295,-0.150,0.035
296,-0.175,0.025
297,-0.175,0.025
298,-0.165,0.050
299,-0.170,0.050
300,-0.185,0.030
301,-0.205,0.025
302,-0.235,0.020
303,-0.220,0.040
304,-0.215,0.065
305,-0.205,0.060
306,-0.220,0.050
307,-0.245,0.035
308,-0.240,0.040
309,-0.230,0.060
310,-0.230,0.045
311,-0.225,0.060
312,-0.245,0.045
313,-0.275,0.030
314,-0.255,0.035
315,-0.245,0.045
316,-0.240,0.070
317,-0.235,0.065
318,-0.235,0.045
319,-0.245,0.045
320,-0.265,0.035
321,-0.250,0.055
322,-0.245,0.065
323,-0.235,0.065
324,-0.245,0.055
325,-0.260,0.050
326,-0.255,0.065
327,-0.240,0.075
328,-0.225,0.090
329,-0.245,0.070
330,-0.240,0.065
331,-0.250,0.065
332,-0.250,0.065
333,-0.260,0.085
334,-0.235,0.100
335,-0.235,0.095
336,-0.235,0.080
337,-0.240,0.080
338,-0.245,0.065
339,-0.255,0.080
340,-0.240,0.090
341,-0.240,0.090
342,-0.240,0.070
343,-0.245,0.055
344,-0.260,0.050
345,-0.235,0.055
346,-0.220,0.070
347,-0.225,0.080
348,-0.245,0.085
349,-0.260,0.075
350,-0.255,0.080
351,-0.230,0.090
352,-0.230,0.075
353,-0.210,0.070
354,-0.230,0.070
355,-0.250,0.055
356,-0.260,0.065
357,-0.255,0.095
358,-0.245,0.090
359,-0.230,0.075
360,-0.235,0.060
361,-0.240,0.055
362,-0.250,0.060
363,-0.245,0.075
364,-0.240,0.085
365,-0.255,0.080
366,-0.255,0.065
367,-0.255,0.065
368,-0.275,0.060
369,-0.260,0.095
370,-0.245,0.095
371,-0.240,0.075
372,-0.260,0.065
373,-0.270,0.050
374,-0.265,0.050
375,-0.265,0.070
376,-0.250,0.085
377,-0.245,0.090
378,-0.260,0.085
379,-0.285,0.080
380,-0.270,0.100
381,-0.255,0.120
382,-0.235,0.135
383,-0.225,0.120
384,-0.225,0.100
385,-0.240,0.095
386,-0.235,0.110
387,-0.220,0.120
388,-0.215,0.130
389,-0.215,0.120
390,-0.230,0.120
391,-0.245,0.100
392,-0.240,0.085
393,-0.220,0.095
394,-0.190,0.100
395,-0.175,0.090
396,-0.195,0.075
397,-0.180,0.045
398,-0.180,0.045
399,-0.170,0.055
400,-0.170,0.060
401,-0.175,0.045
402,-0.200,0.030
403,-0.210,0.005
404,-0.220,-0.005
405,-0.215,0.010
406,-0.215,0.015
407,-0.210,0.025
408,-0.210,0.020
409,-0.230,0.015
410,-0.230,0.025
411,-0.230,0.030
412,-0.220,0.025
413,-0.225,0.005
414,-0.250,-0.005
415,-0.270,0.000
416,-0.280,0.005
417,-0.275,0.035
418,-0.270,0.065
419,-0.265,0.065
420,-0.275,0.070
421,-0.290,0.050
422,-0.310,0.055
423,-0.315,0.060
424,-0.305,0.055
425,-0.285,0.055
426,-0.295,0.055
427,-0.290,0.040
428,-0.290,0.050
429,-0.295,0.065
430,-0.280,0.095
431,-0.285,0.080
432,-0.300,0.060
433,-0.300,0.040
434,-0.315,0.065
435,-0.310,0.075
436,-0.315,0.075
437,-0.325,0.075
438,-0.320,0.050
439,-0.325,0.045
440,-0.335,0.055
441,-0.325,0.070
442,-0.300,0.090
443,-0.300,0.070
444,-0.305,0.065
445,-0.310,0.055
446,-0.330,0.085
447,-0.305,0.110
448,-0.305,0.110
449,-0.290,0.090
450,-0.305,0.065
451,-0.315,0.050
452,-0.310,0.045
453,-0.310,0.065
454,-0.300,0.065
455,-0.285,0.060
456,-0.295,0.040
457,-0.295,0.025
458,-0.300,0.025
459,-0.315,0.045
460,-0.280,0.070
461,-0.255,0.060
462,-0.260,0.035
463,-0.255,-0.030
464,-0.250,-0.110
465,-0.200,-0.200
466,-0.145,-0.285
467,-0.100,-0.420
468,-0.050,-0.535
469,0.015,-0.650
470,0.080,-0.730
471,0.145,-0.775
472,0.210,-0.805
473,0.230,-0.805
474,0.200,-0.815
475,0.135,-0.830
476,0.080,-0.825
477,-0.020,-0.820
478,-0.075,-0.785
479,-0.095,-0.740
480,-0.075,-0.725
481,-0.040,-0.710
482,0.045,-0.665
483,0.155,-0.630
484,0.285,-0.590
485,0.380,-0.570
486,0.460,-0.560
487,0.500,-0.550
488,0.500,-0.530
489,0.485,-0.480
490,0.425,-0.415
491,0.335,-0.380
492,0.245,-0.320
493,0.160,-0.300
494,0.085,-0.220
495,0.025,-0.160
496,-0.040,-0.095
497,-0.125,-0.045
498,-0.205,0.010
499,-0.290,0.040
500,-0.360,0.090
501,-0.420,0.135
502,-0.435,0.160
503,-0.455,0.170
504,-0.470,0.175
505,-0.470,0.180
506,-0.440,0.195
507,-0.405,0.225
508,-0.370,0.235
509,-0.355,0.235
510,-0.350,0.230
511,-0.355,0.220
512,-0.360,0.240
513,-0.350,0.255
514,-0.320,0.265
515,-0.335,0.280
516,-0.335,0.265
517,-0.360,0.275
518,-0.345,0.280
519,-0.330,0.280
520,-0.325,0.295
521,-0.330,0.285
522,-0.335,0.260
523,-0.335,0.260
524,-0.340,0.255
525,-0.335,0.285
526,-0.330,0.295
527,-0.320,0.295
528,-0.310,0.285
529,-0.340,0.285
530,-0.335,0.290
531,-0.320,0.310
532,-0.305,0.320
533,-0.295,0.325
534,-0.310,0.325
535,-0.325,0.320
536,-0.310,0.320
537,-0.310,0.345
538,-0.290,0.355
539,-0.280,0.360
540,-0.280,0.340
541,-0.285,0.345
542,-0.290,0.360
543,-0.275,0.375
544,-0.265,0.400
545,-0.250,0.380
546,-0.250,0.375
547,-0.250,0.360
548,-0.255,0.385
549,-0.220,0.405
550,-0.200,0.420
551,-0.180,0.425
552,-0.195,0.410
553,-0.190,0.400
554,-0.210,0.405
555,-0.180,0.430
556,-0.155,0.440
557,-0.125,0.445
558,-0.140,0.430
559,-0.125,0.410
560,-0.120,0.420
561,-0.105,0.435
562,-0.085,0.430
563,-0.075,0.410
564,-0.075,0.380
565,-0.075,0.345
566,-0.070,0.330
567,-0.045,0.335
568,-0.040,0.335
569,-0.030,0.315
570,-0.010,0.300
571,-0.015,0.275
572,0.005,0.255
573,0.030,0.265
574,0.060,0.230
575,0.060,0.210
576,0.065,0.185
577,0.060,0.150
578,0.065,0.145
579,0.095,0.145
580,0.125,0.145
581,0.115,0.130
582,0.130,0.105
583,0.130,0.095
584,0.110,0.085
585,0.120,0.100
586,0.115,0.090
587,0.105,0.100
588,0.085,0.075
589,0.045,0.070
590,0.030,0.080
591,0.010,0.080
592,0.010,0.085
593,-0.005,0.075
594,-0.025,0.065
595,-0.075,0.055
596,-0.090,0.075
597,-0.105,0.075
598,-0.115,0.075
599,-0.115,0.075
600,-0.150,0.070
601,-0.150,0.055
602,-0.175,0.060
603,-0.180,0.075
604,-0.175,0.095
605,-0.180,0.085
606,-0.190,0.070
607,-0.210,0.070
608,-0.215,0.070
609,-0.195,0.075
610,-0.185,0.080
611,-0.180,0.075
612,-0.195,0.060
613,-0.215,0.070
614,-0.230,0.070
615,-0.220,0.090
616,-0.210,0.085
617,-0.210,0.060
618,-0.225,0.045
619,-0.215,0.035
620,-0.230,0.065
621,-0.220,0.070
622,-0.205,0.090
623,-0.190,0.075
624,-0.200,0.065
625,-0.195,0.060
626,-0.200,0.075
627,-0.205,0.080
628,-0.185,0.085
629,-0.195,0.085
630,-0.195,0.070
631,-0.205,0.050
632,-0.210,0.070
633,-0.205,0.085
634,-0.185,0.105
635,-0.170,0.100
636,-0.190,0.095
637,-0.205,0.075
638,-0.195,0.080
639,-0.180,0.095
640,-0.175,0.105
641,-0.170,0.100
642,-0.190,0.090
643,-0.195,0.080
644,-0.215,0.070
645,-0.190,0.090
646,-0.185,0.090
647,-0.190,0.090
648,-0.195,0.080
649,-0.195,0.080
650,-0.195,0.075
651,-0.200,0.095
652,-0.180,0.100
653,-0.170,0.100
654,-0.185,0.085
655,-0.210,0.075
656,-0.200,0.080
657,-0.200,0.115
658,-0.170,0.120
659,-0.165,0.120
660,-0.200,0.095
661,-0.210,0.075
662,-0.210,0.080
663,-0.195,0.090
664,-0.170,0.100
665,-0.180,0.105
666,-0.190,0.070
667,-0.200,0.065
668,-0.215,0.070
669,-0.205,0.090
670,-0.195,0.090
671,-0.185,0.090
672,-0.200,0.070
673,-0.210,0.060
674,-0.210,0.065
675,-0.205,0.080
676,-0.200,0.095
677,-0.195,0.090
678,-0.205,0.065
679,-0.220,0.080
680,-0.215,0.075
681,-0.205,0.090
682,-0.210,0.100
683,-0.185,0.095
684,-0.195,0.080
685,-0.210,0.070
686,-0.215,0.065
687,-0.210,0.090
688,-0.195,0.105
689,-0.190,0.105
690,-0.215,0.105
691,-0.210,0.110
692,-0.215,0.105
693,-0.190,0.130
694,-0.180,0.140
695,-0.165,0.125
696,-0.170,0.125
697,-0.190,0.110
698,-0.180,0.115
699,-0.170,0.135
700,-0.160,0.140
701,-0.145,0.130
702,-0.150,0.115
703,-0.150,0.095
704,-0.145,0.090
705,-0.155,0.095
706,-0.120,0.105
707,-0.115,0.095
708,-0.105,0.065
709,-0.105,0.045
710,-0.115,0.050
711,-0.105,0.045
712,-0.110,0.070
713,-0.095,0.055
714,-0.110,0.045
715,-0.125,0.030
716,-0.130,0.030
717,-0.145,0.035
718,-0.135,0.040
719,-0.130,0.030
720,-0.145,0.005
721,-0.160,0.000
722,-0.165,0.005
723,-0.165,0.035
724,-0.150,0.035
725,-0.155,0.035
726,-0.165,0.035
727,-0.175,0.015
728,-0.195,0.030
729,-0.195,0.025
730,-0.180,0.045
731,-0.185,0.045
732,-0.200,0.050
733,-0.195,0.050
734,-0.210,0.070
735,-0.205,0.090
736,-0.205,0.095
737,-0.220,0.095
738,-0.225,0.085
739,-0.215,0.065
740,-0.240,0.050
741,-0.225,0.050
742,-0.210,0.075
743,-0.220,0.080
744,-0.240,0.070
745,-0.250,0.060
746,-0.245,0.060
747,-0.225,0.080
748,-0.225,0.090
749,-0.220,0.080
750,-0.230,0.070
751,-0.250,0.065
752,-0.250,0.065
753,-0.245,0.075
754,-0.235,0.090
755,-0.215,0.080
756,-0.220,0.070
757,-0.240,0.065
758,-0.245,0.065
759,-0.230,0.080
760,-0.230,0.105
761,-0.215,0.085
762,-0.225,0.070
763,-0.225,0.065
764,-0.240,0.065
765,-0.225,0.070
766,-0.205,0.085
767,-0.220,0.080
768,-0.220,0.055
769,-0.220,0.065
770,-0.230,0.060
771,-0.215,0.070
772,-0.200,0.080
773,-0.190,0.080
774,-0.205,0.070
775,-0.210,0.065
776,-0.205,0.065
777,-0.185,0.050
778,-0.150,-0.010
779,-0.140,-0.135
780,-0.125,-0.270
781,-0.125,-0.390
782,-0.070,-0.495
783,-0.005,-0.595
784,0.050,-0.685
785,0.130,-0.785
786,0.175,-0.840
787,0.220,-0.870
788,0.230,-0.855
789,0.220,-0.845
790,0.185,-0.845
791,0.120,-0.870
792,0.015,-0.865
793,-0.050,-0.825
794,-0.050,-0.775
795,0.015,-0.735
796,0.120,-0.705
797,0.240,-0.675
798,0.380,-0.675
799,0.490,-0.655
800,0.590,-0.640
801,0.685,-0.600
802,0.745,-0.560
803,0.750,-0.540
804,0.680,-0.515
805,0.565,-0.470
806,0.455,-0.425
807,0.375,-0.340
808,0.290,-0.295
809,0.210,-0.250
810,0.120,-0.220
811,0.005,-0.180
812,-0.110,-0.100
813,-0.200,-0.030
814,-0.275,0.040
815,-0.350,0.070
816,-0.420,0.110
817,-0.455,0.130
818,-0.480,0.170
819,-0.475,0.210
820,-0.435,0.225
821,-0.400,0.225
822,-0.370,0.220
823,-0.340,0.205
824,-0.325,0.205
825,-0.305,0.240
826,-0.270,0.265
827,-0.260,0.260
828,-0.255,0.260
829,-0.260,0.245
830,-0.280,0.245
831,-0.255,0.255
832,-0.250,0.275
833,-0.245,0.270
834,-0.240,0.260
835,-0.250,0.260
836,-0.250,0.275
837,-0.240,0.285
838,-0.225,0.300
839,-0.215,0.305
840,-0.235,0.295
841,-0.240,0.290
842,-0.245,0.305
843,-0.235,0.305
844,-0.215,0.335
845,-0.210,0.340
846,-0.220,0.315
847,-0.235,0.325
848,-0.230,0.330
849,-0.225,0.335
850,-0.215,0.355
851,-0.195,0.355
852,-0.185,0.355
853,-0.200,0.345
854,-0.190,0.365
855,-0.190,0.365
856,-0.170,0.375
857,-0.165,0.365
858,-0.165,0.375
859,-0.175,0.355
860,-0.180,0.380
861,-0.165,0.390
862,-0.140,0.410
863,-0.125,0.395
864,-0.130,0.380
865,-0.135,0.370
866,-0.120,0.385
867,-0.110,0.400
868,-0.095,0.430
869,-0.080,0.430
870,-0.075,0.415
871,-0.085,0.410
872,-0.070,0.415
873,-0.055,0.425
874,-0.040,0.445
875,-0.030,0.435
876,-0.015,0.415
877,-0.025,0.400
878,-0.025,0.410
879,0.000,0.410
880,0.020,0.425
881,0.045,0.400
882,0.045,0.390
883,0.035,0.370
884,0.035,0.355
885,0.070,0.355
886,0.085,0.360
887,0.100,0.335
888,0.115,0.300
889,0.110,0.275
890,0.110,0.255
891,0.120,0.245
892,0.150,0.235
893,0.160,0.205
894,0.170,0.185
895,0.170,0.160
896,0.175,0.155
897,0.190,0.135
898,0.190,0.135
899,0.210,0.105
900,0.225,0.080
901,0.200,0.065
902,0.195,0.060
903,0.195,0.075
904,0.205,0.090
905,0.190,0.085
906,0.170,0.075
907,0.125,0.070
908,0.110,0.070
909,0.095,0.085
910,0.080,0.100
911,0.080,0.080
912,0.045,0.065
913,0.015,0.065
914,-0.015,0.065
915,-0.035,0.075
916,-0.035,0.085
917,-0.040,0.075
918,-0.080,0.070
919,-0.095,0.070
920,-0.095,0.070
921,-0.090,0.095
922,-0.100,0.090
923,-0.095,0.080
924,-0.100,0.065
925,-0.130,0.045
926,-0.130,0.050
927,-0.125,0.065
928,-0.125,0.075
929,-0.125,0.070
930,-0.135,0.055
931,-0.145,0.055
932,-0.155,0.060
933,-0.150,0.085
934,-0.140,0.090
935,-0.130,0.080
936,-0.145,0.075
937,-0.150,0.070
938,-0.145,0.085
939,-0.155,0.085
940,-0.145,0.095
941,-0.120,0.100
942,-0.145,0.075
943,-0.155,0.080
944,-0.165,0.080
945,-0.150,0.085
946,-0.130,0.105
947,-0.130,0.100
948,-0.140,0.085
949,-0.150,0.085
950,-0.145,0.080
951,-0.145,0.090
952,-0.145,0.110
953,-0.125,0.090
954,-0.140,0.085
955,-0.150,0.085
956,-0.165,0.070
957,-0.155,0.100
958,-0.145,0.110
959,-0.155,0.105
960,-0.150,0.095
961,-0.165,0.095
962,-0.170,0.100
963,-0.160,0.120
964,-0.150,0.125
965,-0.150,0.115
966,-0.155,0.120
967,-0.170,0.115
968,-0.195,0.105
969,-0.180,0.095
970,-0.155,0.095
971,-0.150,0.110
972,-0.160,0.115
973,-0.175,0.100
974,-0.175,0.090
975,-0.165,0.085
976,-0.140,0.080
977,-0.140,0.070
978,-0.145,0.060
979,-0.170,0.055
980,-0.180,0.070
981,-0.170,0.095
982,-0.150,0.105
983,-0.150,0.100
984,-0.155,0.085
985,-0.165,0.060
986,-0.175,0.065
987,-0.175,0.070
988,-0.155,0.075
989,-0.145,0.065
990,-0.155,0.050
991,-0.170,0.050
992,-0.180,0.065
993,-0.160,0.070
994,-0.150,0.080
995,-0.155,0.080
996,-0.165,0.075
997,-0.170,0.075
998,-0.185,0.080
999,-0.180,0.090
1000,-0.170,0.075
1001,-0.170,0.065
1002,-0.175,0.045
1003,-0.180,0.065
1004,-0.185,0.080
1005,-0.160,0.095
1006,-0.170,0.100
1007,-0.180,0.090
1008,-0.180,0.085
1009,-0.205,0.095
1010,-0.175,0.110
1011,-0.160,0.115
1012,-0.160,0.105
1013,-0.160,0.075
1014,-0.165,0.070
1015,-0.170,0.075
1016,-0.150,0.080
1017,-0.120,0.110
1018,-0.115,0.110
1019,-0.120,0.100
1020,-0.140,0.080
1021,-0.145,0.080
1022,-0.135,0.090
1023,-0.110,0.085
1024,-0.100,0.075
1025,-0.105,0.055
1026,-0.120,0.045
1027,-0.115,0.040
1028,-0.105,0.060
1029,-0.090,0.060
1030,-0.085,0.045
1031,-0.100,0.020
1032,-0.120,0.005
1033,-0.130,0.005
1034,-0.125,0.015
1035,-0.115,0.030
1036,-0.120,0.020
1037,-0.130,0.010
1038,-0.150,-0.005
1039,-0.155,0.000
1040,-0.160,0.010
1041,-0.150,0.020
1042,-0.155,0.005
1043,-0.155,0.000
1044,-0.175,-0.005
1045,-0.200,-0.010
1046,-0.205,0.005
1047,-0.180,0.015
1048,-0.175,0.005
1049,-0.200,0.015
1050,-0.210,0.020
1051,-0.225,0.030
1052,-0.200,0.055
1053,-0.190,0.060
1054,-0.190,0.065
1055,-0.220,0.045
1056,-0.245,0.045
1057,-0.265,0.050
1058,-0.255,0.060
1059,-0.230,0.065
1060,-0.225,0.060
1061,-0.220,0.055
1062,-0.245,0.040
1063,-0.255,0.050
1064,-0.245,0.070
1065,-0.240,0.075
1066,-0.230,0.070
1067,-0.245,0.055
1068,-0.265,0.050
1069,-0.275,0.060
1070,-0.265,0.065
1071,-0.250,0.080
1072,-0.250,0.070
1073,-0.250,0.060
1074,-0.270,0.055
1075,-0.275,0.065
1076,-0.255,0.075
1077,-0.255,0.085
1078,-0.260,0.075
1079,-0.255,0.060
1080,-0.275,0.055
1081,-0.285,0.055
1082,-0.260,0.055
1083,-0.275,0.070
1084,-0.275,0.065
1085,-0.265,0.045
1086,-0.280,0.030
1087,-0.285,0.040
1088,-0.275,0.065
1089,-0.260,0.070
1090,-0.260,0.055
1091,-0.255,0.050
1092,-0.265,0.035
1093,-0.270,0.045
1094,-0.260,0.040
1095,-0.250,0.060
1096,-0.240,0.055
1097,-0.255,0.065
1098,-0.265,0.045
1099,-0.260,0.025
1100,-0.235,-0.010
1101,-0.210,-0.065
1102,-0.180,-0.160
1103,-0.165,-0.280
1104,-0.150,-0.400
1105,-0.115,-0.510
1106,-0.060,-0.610
1107,0.015,-0.705
1108,0.090,-0.810
1109,0.135,-0.865
1110,0.145,-0.905
1111,0.150,-0.920
1112,0.145,-0.900
1113,0.115,-0.890
1114,0.050,-0.910
1115,-0.050,-0.920
1116,-0.125,-0.895
1117,-0.165,-0.870
1118,-0.120,-0.810
1119,-0.030,-0.765
1120,0.080,-0.740
1121,0.210,-0.720
1122,0.300,-0.695
1123,0.410,-0.680
1124,0.525,-0.655
1125,0.630,-0.610
1126,0.690,-0.605
1127,0.670,-0.580
1128,0.600,-0.555
1129,0.485,-0.495
1130,0.390,-0.425
1131,0.310,-0.365
1132,0.215,-0.320
1133,0.120,-0.275
1134,0.005,-0.240
1135,-0.100,-0.180
1136,-0.200,-0.115
1137,-0.290,-0.060
1138,-0.375,-0.005
1139,-0.460,0.040
1140,-0.505,0.075
1141,-0.545,0.110
1142,-0.555,0.165
1143,-0.520,0.185
1144,-0.505,0.190
1145,-0.470,0.185
1146,-0.455,0.185
1147,-0.440,0.190
1148,-0.410,0.225
1149,-0.365,0.225
1150,-0.345,0.230
1151,-0.340,0.220
1152,-0.345,0.215
1153,-0.355,0.235
1154,-0.355,0.250
1155,-0.340,0.275
1156,-0.320,0.265
1157,-0.325,0.245
1158,-0.350,0.245
1159,-0.340,0.250
1160,-0.335,0.265
1161,-0.325,0.280
1162,-0.320,0.265
1163,-0.320,0.270
1164,-0.325,0.260
1165,-0.335,0.270
1166,-0.330,0.285
1167,-0.315,0.305
1168,-0.305,0.285
1169,-0.305,0.285
1170,-0.330,0.275
1171,-0.320,0.290
1172,-0.310,0.305
1173,-0.310,0.315
1174,-0.305,0.325
1175,-0.295,0.305
1176,-0.300,0.300
1177,-0.310,0.315
1178,-0.305,0.320
1179,-0.290,0.345
1180,-0.280,0.345
1181,-0.270,0.330
1182,-0.280,0.325
1183,-0.280,0.345
1184,-0.275,0.350
1185,-0.255,0.365
1186,-0.235,0.365
1187,-0.250,0.370
1188,-0.265,0.360
1189,-0.260,0.365
1190,-0.235,0.380
1191,-0.220,0.405
1192,-0.215,0.400
1193,-0.200,0.380
1194,-0.200,0.365
1195,-0.195,0.385
1196,-0.185,0.385
1197,-0.170,0.400
1198,-0.150,0.395
1199,-0.145,0.395
1200,-0.140,0.380
1201,-0.130,0.375
1202,-0.130,0.390
1203,-0.100,0.395
1204,-0.080,0.385
1205,-0.075,0.370
1206,-0.080,0.350
1207,-0.065,0.340
1208,-0.040,0.340
1209,-0.030,0.340
1210,-0.015,0.315
1211,-0.015,0.285
1212,-0.015,0.265
1213,0.000,0.250
1214,0.025,0.240
1215,0.035,0.225
1216,0.035,0.195
1217,0.040,0.175
1218,0.035,0.135
1219,0.045,0.130
1220,0.055,0.135
1221,0.080,0.125
1222,0.100,0.105
1223,0.095,0.080
1224,0.085,0.060
1225,0.080,0.060
1226,0.070,0.065
1227,0.075,0.080
1228,0.075,0.080
1229,0.045,0.050
1230,0.015,0.045
1231,-0.025,0.050
1232,-0.030,0.070
1233,-0.040,0.080
1234,-0.050,0.060
1235,-0.085,0.050
1236,-0.110,0.055
1237,-0.135,0.045
1238,-0.150,0.045
1239,-0.160,0.055
1240,-0.165,0.050
1241,-0.180,0.040
1242,-0.210,0.040
1243,-0.215,0.045
1244,-0.210,0.045
1245,-0.210,0.065
1246,-0.210,0.055
1247,-0.220,0.040
1248,-0.250,0.040
1249,-0.275,0.040
1250,-0.265,0.055
1251,-0.260,0.050
1252,-0.260,0.060
1253,-0.260,0.050
1254,-0.290,0.040
1255,-0.305,0.040
1256,-0.290,0.065
1257,-0.285,0.065
1258,-0.265,0.050
1259,-0.280,0.045
1260,-0.295,0.045
1261,-0.310,0.045
1262,-0.295,0.065
1263,-0.280,0.080
1264,-0.285,0.070
1265,-0.280,0.050
1266,-0.305,0.040
1267,-0.305,0.050
1268,-0.290,0.075
1269,-0.290,0.090
1270,-0.290,0.080
1271,-0.295,0.070
1272,-0.300,0.050
1273,-0.305,0.070
1274,-0.285,0.080
1275,-0.270,0.090
1276,-0.270,0.095
1277,-0.280,0.080
1278,-0.305,0.065
1279,-0.300,0.080
1280,-0.295,0.090
1281,-0.280,0.100
1282,-0.280,0.105
1283,-0.300,0.085
1284,-0.295,0.080
1285,-0.305,0.090
1286,-0.295,0.100
1287,-0.295,0.110
1288,-0.290,0.090
1289,-0.290,0.085
1290,-0.305,0.085
1291,-0.310,0.090
1292,-0.295,0.095
1293,-0.300,0.105
1294,-0.275,0.095
1295,-0.295,0.080
1296,-0.305,0.080
1297,-0.315,0.100
1298,-0.300,0.100
1299,-0.290,0.110
1300,-0.295,0.085
1301,-0.290,0.075
1302,-0.315,0.060
1303,-0.330,0.065
1304,-0.330,0.085
1305,-0.290,0.100
1306,-0.285,0.080
1307,-0.285,0.085
1308,-0.290,0.070
1309,-0.305,0.075
1310,-0.305,0.090
1311,-0.285,0.105
1312,-0.285,0.090
1313,-0.295,0.075
1314,-0.290,0.075
1315,-0.305,0.075
1316,-0.285,0.095
1317,-0.305,0.110
1318,-0.290,0.090
1319,-0.285,0.095
1320,-0.310,0.070
1321,-0.330,0.080
1322,-0.330,0.095
1323,-0.320,0.105
1324,-0.305,0.115
1325,-0.310,0.100
1326,-0.330,0.095
1327,-0.335,0.105
1328,-0.305,0.130
1329,-0.285,0.145
1330,-0.270,0.140
1331,-0.265,0.130
1332,-0.280,0.120
1333,-0.285,0.120
1334,-0.280,0.130
1335,-0.280,0.155
1336,-0.250,0.140
1337,-0.255,0.125
1338,-0.270,0.095
1339,-0.260,0.085
1340,-0.245,0.070
1341,-0.235,0.080
1342,-0.200,0.070
1343,-0.195,0.070
1344,-0.210,0.040
1345,-0.230,0.045
1346,-0.235,0.040
1347,-0.230,0.055
1348,-0.225,0.050
1349,-0.230,0.035
1350,-0.255,0.025
1351,-0.255,0.035
1352,-0.270,0.020
1353,-0.260,0.030
1354,-0.270,0.015
1355,-0.285,-0.005
1356,-0.280,0.000
1357,-0.285,0.010
1358,-0.270,0.030
1359,-0.275,0.035
1360,-0.255,0.055
1361,-0.280,0.050
1362,-0.310,0.045
1363,-0.335,0.065
1364,-0.325,0.090
1365,-0.315,0.110
1366,-0.320,0.110
1367,-0.335,0.095
1368,-0.350,0.095
1369,-0.360,0.125
1370,-0.335,0.140
1371,-0.320,0.120
1372,-0.305,0.080
1373,-0.315,0.040
1374,-0.340,0.035
1375,-0.340,0.035
1376,-0.340,0.050
1377,-0.330,0.060
1378,-0.325,0.070
1379,-0.330,0.045
1380,-0.365,0.060
1381,-0.365,0.065
1382,-0.355,0.090
1383,-0.340,0.095
1384,-0.335,0.085
1385,-0.345,0.090
1386,-0.350,0.075
1387,-0.350,0.070
1388,-0.345,0.095
1389,-0.330,0.115
1390,-0.320,0.100
1391,-0.340,0.085
1392,-0.330,0.065
1393,-0.335,0.070
1394,-0.330,0.080
1395,-0.310,0.095
1396,-0.305,0.080
1397,-0.305,0.075
1398,-0.325,0.055
1399,-0.325,0.075
1400,-0.300,0.080
1401,-0.280,0.090
1402,-0.260,0.065
1403,-0.260,0.010
1404,-0.250,-0.075
1405,-0.255,-0.150
1406,-0.215,-0.245
1407,-0.135,-0.350
1408,-0.065,-0.465
1409,0.025,-0.585
1410,0.085,-0.695
1411,0.155,-0.765
1412,0.250,-0.795
1413,0.310,-0.785
1414,0.330,-0.780
1415,0.305,-0.760
1416,0.255,-0.805
1417,0.185,-0.815
1418,0.120,-0.800
1419,0.095,-0.760
1420,0.070,-0.730
1421,0.080,-0.695
1422,0.130,-0.680
1423,0.235,-0.655
1424,0.360,-0.625
1425,0.505,-0.600
1426,0.630,-0.570
1427,0.705,-0.560
1428,0.755,-0.525
1429,0.755,-0.485
1430,0.705,-0.410
1431,0.660,-0.365
1432,0.590,-0.315
1433,0.515,-0.275
1434,0.430,-0.235
1435,0.340,-0.195
1436,0.260,-0.125
1437,0.185,-0.060
1438,0.070,-0.005
1439,-0.040,0.040
1440,-0.175,0.080
1441,-0.290,0.140
1442,-0.365,0.190
1443,-0.420,0.225
1444,-0.455,0.230
1445,-0.485,0.220
1446,-0.465,0.215
1447,-0.450,0.230
1448,-0.425,0.245
1449,-0.405,0.285
1450,-0.385,0.280
1451,-0.370,0.265
1452,-0.370,0.255
1453,-0.385,0.265
1454,-0.390,0.280
1455,-0.380,0.280
1456,-0.380,0.265
1457,-0.390,0.280
1458,-0.400,0.275
1459,-0.395,0.280
1460,-0.400,0.295
1461,-0.375,0.325
1462,-0.355,0.320
1463,-0.375,0.305
1464,-0.390,0.310
1465,-0.395,0.325
1466,-0.385,0.350
1467,-0.375,0.385
1468,-0.375,0.385
1469,-0.365,0.375
1470,-0.370,0.350
1471,-0.385,0.315
1472,-0.385,0.305
1473,-0.365,0.305
1474,-0.370,0.305
1475,-0.355,0.320
1476,-0.370,0.325
1477,-0.375,0.340
1478,-0.355,0.375
1479,-0.345,0.380
1480,-0.315,0.390
1481,-0.325,0.355
1482,-0.335,0.360
1483,-0.345,0.365
1484,-0.340,0.380
1485,-0.335,0.405
1486,-0.315,0.400
1487,-0.305,0.405
1488,-0.315,0.405
1489,-0.310,0.410
1490,-0.295,0.425
1491,-0.285,0.455
1492,-0.270,0.450
1493,-0.265,0.445
1494,-0.265,0.435
1495,-0.270,0.440
1496,-0.255,0.450
1497,-0.225,0.455
1498,-0.215,0.450
1499,-0.205,0.450
1500,-0.220,0.435
1501,-0.200,0.450
1502,-0.190,0.450
1503,-0.170,0.470
1504,-0.155,0.465
1505,-0.145,0.450
1506,-0.145,0.425
1507,-0.140,0.390
1508,-0.130,0.390
1509,-0.090,0.395
1510,-0.070,0.370
1511,-0.050,0.330
1512,-0.075,0.295
1513,-0.070,0.290
1514,-0.045,0.285
1515,-0.025,0.260
1516,0.005,0.225
1517,0.020,0.195
1518,0.030,0.170
1519,0.040,0.165
1520,0.065,0.170
1521,0.090,0.165
1522,0.120,0.155
1523,0.130,0.140
1524,0.115,0.130
1525,0.105,0.120
1526,0.110,0.120
1527,0.125,0.130
1528,0.115,0.120
1529,0.105,0.095
1530,0.070,0.095
1531,0.050,0.090
1532,0.040,0.090
1533,0.025,0.100
1534,0.010,0.095
1535,-0.015,0.090
1536,-0.055,0.095
1537,-0.090,0.100
1538,-0.090,0.125
1539,-0.095,0.130
1540,-0.100,0.115
1541,-0.120,0.105
1542,-0.145,0.080
1543,-0.155,0.095
1544,-0.150,0.090
1545,-0.145,0.095
1546,-0.155,0.095
1547,-0.140,0.080
1548,-0.175,0.100
1549,-0.170,0.095
1550,-0.170,0.095
1551,-0.165,0.090
1552,-0.150,0.065
1553,-0.165,0.050
1554,-0.175,0.035
1555,-0.185,0.055
1556,-0.165,0.075
1557,-0.160,0.095
1558,-0.160,0.070
1559,-0.165,0.080
1560,-0.175,0.050
1561,-0.185,0.065
1562,-0.180,0.075
1563,-0.165,0.095
1564,-0.150,0.095
1565,-0.165,0.080
1566,-0.175,0.075
1567,-0.175,0.085
1568,-0.175,0.100
1569,-0.155,0.115
1570,-0.155,0.105
1571,-0.160,0.090
1572,-0.160,0.080
1573,-0.170,0.080
1574,-0.150,0.095
1575,-0.150,0.115
1576,-0.155,0.110
1577,-0.150,0.095
1578,-0.160,0.080
1579,-0.170,0.080
1580,-0.150,0.095
1581,-0.135,0.115
1582,-0.130,0.120
1583,-0.145,0.110
1584,-0.150,0.095
1585,-0.160,0.105
1586,-0.155,0.105
1587,-0.130,0.115
1588,-0.130,0.100
1589,-0.135,0.090
1590,-0.145,0.090
1591,-0.145,0.090
1592,-0.145,0.110
1593,-0.125,0.110
1594,-0.105,0.095
1595,-0.120,0.095
1596,-0.135,0.090
1597,-0.150,0.095
1598,-0.140,0.105
1599,-0.130,0.105
1600,-0.125,0.100
1601,-0.135,0.085
1602,-0.145,0.070
1603,-0.165,0.075
1604,-0.160,0.090
1605,-0.125,0.110
1606,-0.125,0.095
1607,-0.125,0.085
1608,-0.130,0.075
1609,-0.145,0.085
1610,-0.135,0.100
1611,-0.135,0.100
1612,-0.120,0.100
1613,-0.125,0.090
1614,-0.140,0.075
1615,-0.150,0.075
1616,-0.140,0.090
1617,-0.130,0.090
1618,-0.135,0.105
1619,-0.130,0.090
1620,-0.150,0.075
1621,-0.155,0.080
1622,-0.160,0.095
1623,-0.145,0.120
1624,-0.135,0.115
1625,-0.145,0.090
1626,-0.150,0.080
1627,-0.150,0.090
1628,-0.155,0.105
1629,-0.140,0.130
1630,-0.125,0.135
1631,-0.135,0.115
1632,-0.155,0.110
1633,-0.160,0.130
1634,-0.145,0.135
1635,-0.125,0.145
1636,-0.105,0.140
1637,-0.105,0.130
1638,-0.120,0.135
1639,-0.130,0.140
1640,-0.130,0.155
1641,-0.110,0.150
1642,-0.100,0.155
1643,-0.100,0.130
1644,-0.110,0.120
1645,-0.100,0.095
1646,-0.095,0.100
1647,-0.080,0.115
1648,-0.050,0.105
1649,-0.065,0.100
1650,-0.070,0.080
1651,-0.080,0.085
1652,-0.075,0.085
1653,-0.075,0.075
1654,-0.080,0.085
1655,-0.080,0.065
1656,-0.100,0.055
1657,-0.105,0.055
1658,-0.095,0.035
1659,-0.085,0.030
1660,-0.090,0.010
1661,-0.115,0.015
1662,-0.130,0.015
1663,-0.150,0.020
1664,-0.140,0.035
1665,-0.125,0.045
1666,-0.120,0.035
1667,-0.120,0.050
1668,-0.145,0.045
1669,-0.150,0.040
1670,-0.150,0.070
1671,-0.145,0.070
1672,-0.135,0.090
1673,-0.140,0.090
1674,-0.155,0.085
1675,-0.175,0.080
1676,-0.180,0.100
1677,-0.175,0.105
1678,-0.170,0.095
1679,-0.175,0.090
1680,-0.190,0.090
1681,-0.205,0.090
1682,-0.180,0.110
1683,-0.190,0.120
1684,-0.170,0.110
1685,-0.190,0.110
1686,-0.195,0.090
1687,-0.200,0.100
1688,-0.190,0.105
1689,-0.180,0.110
1690,-0.185,0.105
1691,-0.190,0.100
1692,-0.205,0.095
1693,-0.220,0.100
1694,-0.215,0.100
1695,-0.210,0.125
1696,-0.195,0.110
1697,-0.210,0.105
1698,-0.200,0.090
1699,-0.220,0.105
1700,-0.205,0.100
1701,-0.200,0.105
1702,-0.185,0.100
1703,-0.205,0.080
1704,-0.205,0.085
1705,-0.200,0.095
1706,-0.210,0.105
1707,-0.175,0.120
1708,-0.180,0.100
1709,-0.175,0.095
1710,-0.180,0.070
1711,-0.200,0.075
1712,-0.180,0.080
1713,-0.160,0.080
1714,-0.145,0.025
1715,-0.135,-0.070
1716,-0.130,-0.185
1717,-0.115,-0.315
1718,-0.080,-0.445
1719,-0.005,-0.575
1720,0.075,-0.710
1721,0.150,-0.810
1722,0.235,-0.875
1723,0.305,-0.880
1724,0.335,-0.850
1725,0.365,-0.835
1726,0.340,-0.845
1727,0.280,-0.860
1728,0.205,-0.865
1729,0.160,-0.830
1730,0.155,-0.775
1731,0.225,-0.720
1732,0.345,-0.690
1733,0.490,-0.665
1734,0.600,-0.650
1735,0.720,-0.630
1736,0.835,-0.590
1737,0.925,-0.555
1738,0.955,-0.530
1739,0.885,-0.490
1740,0.765,-0.435
1741,0.660,-0.360
1742,0.580,-0.285
1743,0.520,-0.220
1744,0.435,-0.180
1745,0.305,-0.130
1746,0.170,-0.085
1747,0.025,-0.005
1748,-0.135,0.070
1749,-0.235,0.140
1750,-0.315,0.180
1751,-0.365,0.205
1752,-0.405,0.230
1753,-0.425,0.240
1754,-0.400,0.265
1755,-0.340,0.285
1756,-0.310,0.295
1757,-0.290,0.280
1758,-0.265,0.285
1759,-0.270,0.290
1760,-0.270,0.305
1761,-0.250,0.325
1762,-0.245,0.320
1763,-0.260,0.310
1764,-0.260,0.305
1765,-0.275,0.305
1766,-0.260,0.320
1767,-0.260,0.335
1768,-0.250,0.330
1769,-0.255,0.340
1770,-0.270,0.310
1771,-0.270,0.330
1772,-0.260,0.340
1773,-0.245,0.350
1774,-0.240,0.345
1775,-0.240,0.345
1776,-0.270,0.345
1777,-0.270,0.345
1778,-0.260,0.370
1779,-0.250,0.375
1780,-0.245,0.390
1781,-0.245,0.385
1782,-0.245,0.375
1783,-0.275,0.385
1784,-0.265,0.405
1785,-0.245,0.415
1786,-0.240,0.420
1787,-0.240,0.420
1788,-0.255,0.410
1789,-0.250,0.415
1790,-0.240,0.445
1791,-0.230,0.455
1792,-0.220,0.460
1793,-0.210,0.450
1794,-0.225,0.440
1795,-0.220,0.460
1796,-0.235,0.470
1797,-0.195,0.500
1798,-0.175,0.495
1799,-0.175,0.485
1800,-0.180,0.470
1801,-0.180,0.485
1802,-0.160,0.490
1803,-0.145,0.525
1804,-0.130,0.500
1805,-0.125,0.480
1806,-0.115,0.475
1807,-0.115,0.475
1808,-0.095,0.480
1809,-0.080,0.485
1810,-0.060,0.480
1811,-0.065,0.445
1812,-0.065,0.430
1813,-0.060,0.405
1814,-0.035,0.415
1815,-0.020,0.415
1816,0.010,0.375
1817,0.020,0.340
1818,0.015,0.320
1819,0.025,0.300
1820,0.035,0.280
1821,0.065,0.270
1822,0.085,0.240
1823,0.105,0.215
1824,0.120,0.180
1825,0.115,0.180
1826,0.150,0.175
1827,0.185,0.180
1828,0.190,0.170
1829,0.190,0.155
1830,0.175,0.135
1831,0.160,0.135
1832,0.160,0.140
1833,0.155,0.150
1834,0.135,0.140
1835,0.115,0.120
1836,0.080,0.105
1837,0.050,0.110
1838,0.040,0.120
1839,0.035,0.135
1840,0.035,0.125
1841,0.005,0.115
1842,-0.030,0.100
1843,-0.045,0.110
1844,-0.080,0.115
1845,-0.060,0.135
1846,-0.055,0.125
1847,-0.070,0.100
1848,-0.095,0.110
1849,-0.110,0.105
1850,-0.105,0.110
1851,-0.095,0.125
1852,-0.090,0.120
1853,-0.110,0.105
1854,-0.125,0.115
1855,-0.145,0.110
1856,-0.150,0.130
1857,-0.140,0.135
1858,-0.130,0.130
1859,-0.135,0.110
1860,-0.130,0.115
1861,-0.140,0.120
1862,-0.150,0.130
1863,-0.140,0.135
1864,-0.125,0.130
1865,-0.130,0.125
1866,-0.140,0.105
1867,-0.155,0.115
1868,-0.140,0.130
1869,-0.130,0.145
1870,-0.110,0.140
1871,-0.125,0.125
1872,-0.140,0.120
1873,-0.160,0.135
1874,-0.140,0.145
1875,-0.135,0.150
1876,-0.115,0.145
1877,-0.130,0.125
1878,-0.150,0.110
1879,-0.155,0.150
1880,-0.150,0.155
1881,-0.135,0.170
1882,-0.130,0.160
1883,-0.140,0.150
1884,-0.145,0.140
1885,-0.160,0.140
1886,-0.145,0.150
1887,-0.135,0.165
1888,-0.135,0.155
1889,-0.140,0.140
1890,-0.165,0.150
1891,-0.165,0.140
1892,-0.165,0.170
1893,-0.155,0.180
1894,-0.140,0.180
1895,-0.140,0.155
1896,-0.170,0.130
1897,-0.180,0.140
1898,-0.170,0.145
1899,-0.160,0.170
1900,-0.150,0.155
1901,-0.170,0.135
1902,-0.175,0.135
1903,-0.175,0.135
1904,-0.175,0.150
1905,-0.170,0.150
1906,-0.155,0.165
1907,-0.170,0.155
1908,-0.180,0.135
1909,-0.185,0.130
1910,-0.180,0.140
1911,-0.180,0.150
1912,-0.160,0.150
1913,-0.170,0.130
1914,-0.175,0.125
1915,-0.200,0.130
1916,-0.190,0.145
1917,-0.170,0.160
1918,-0.160,0.150
1919,-0.175,0.140
1920,-0.180,0.120
1921,-0.190,0.130
1922,-0.195,0.145
1923,-0.180,0.145
1924,-0.175,0.150
1925,-0.170,0.135
1926,-0.190,0.120
1927,-0.205,0.130
1928,-0.200,0.135
1929,-0.170,0.150
1930,-0.155,0.145
1931,-0.180,0.135
1932,-0.185,0.140
1933,-0.190,0.160
1934,-0.185,0.170
1935,-0.170,0.185
1936,-0.160,0.190
1937,-0.165,0.180
1938,-0.185,0.170
1939,-0.175,0.170
1940,-0.175,0.180
1941,-0.140,0.190
1942,-0.125,0.195
1943,-0.130,0.195
1944,-0.140,0.180
1945,-0.150,0.165
1946,-0.140,0.175
1947,-0.120,0.165
1948,-0.120,0.155
1949,-0.110,0.130
1950,-0.115,0.120
1951,-0.110,0.105
1952,-0.110,0.115
1953,-0.080,0.130
1954,-0.070,0.110
1955,-0.085,0.095
1956,-0.105,0.090
1957,-0.130,0.070
1958,-0.115,0.075
1959,-0.110,0.085
1960,-0.100,0.095
1961,-0.125,0.080
1962,-0.150,0.075
1963,-0.155,0.070
1964,-0.145,0.075
1965,-0.145,0.090
1966,-0.140,0.085
1967,-0.150,0.075
1968,-0.165,0.070
1969,-0.175,0.070
1970,-0.175,0.085
1971,-0.175,0.095
1972,-0.165,0.085
1973,-0.165,0.100
1974,-0.180,0.095
1975,-0.190,0.100
1976,-0.195,0.110
1977,-0.195,0.130
1978,-0.190,0.125
1979,-0.215,0.120
1980,-0.225,0.105
1981,-0.220,0.110
1982,-0.205,0.130
1983,-0.190,0.140
1984,-0.190,0.130
1985,-0.205,0.125
1986,-0.225,0.105
1987,-0.250,0.125
1988,-0.240,0.135
1989,-0.210,0.135
1990,-0.220,0.140
1991,-0.225,0.125
1992,-0.240,0.120
1993,-0.240,0.125
1994,-0.235,0.140
1995,-0.220,0.155
1996,-0.210,0.145
1997,-0.220,0.120
1998,-0.220,0.120
1999,-0.240,0.120
2000,-0.250,0.125
2001,-0.220,0.140
2002,-0.210,0.130
2003,-0.220,0.115
2004,-0.225,0.110
2005,-0.230,0.120
2006,-0.235,0.120
2007,-0.220,0.145
2008,-0.210,0.130
2009,-0.220,0.120
2010,-0.225,0.105
2011,-0.250,0.095
2012,-0.230,0.105
2013,-0.210,0.125
2014,-0.195,0.130
2015,-0.210,0.090
2016,-0.195,0.030
2017,-0.185,-0.035
2018,-0.165,-0.125
2019,-0.125,-0.245
2020,-0.100,-0.385
2021,-0.060,-0.535
2022,-0.005,-0.680
2023,0.070,-0.765
2024,0.160,-0.835
2025,0.215,-0.830
2026,0.250,-0.830
2027,0.250,-0.845
2028,0.190,-0.860
2029,0.115,-0.860
2030,0.070,-0.825
2031,0.060,-0.780
2032,0.100,-0.735
2033,0.175,-0.720
2034,0.300,-0.690
2035,0.430,-0.670
2036,0.585,-0.625
2037,0.730,-0.585
2038,0.830,-0.575
2039,0.865,-0.545
2040,0.835,-0.535
2041,0.715,-0.465
2042,0.620,-0.390
2043,0.525,-0.315
2044,0.430,-0.260
2045,0.315,-0.220
2046,0.180,-0.165
2047,0.025,-0.095
2048,-0.130,-0.030
2049,-0.245,0.055
2050,-0.335,0.120
2051,-0.420,0.170
2052,-0.480,0.195
2053,-0.510,0.235
2054,-0.500,0.255
2055,-0.450,0.280
2056,-0.390,0.285
2057,-0.355,0.275
2058,-0.340,0.275
2059,-0.340,0.295
2060,-0.300,0.315
2061,-0.300,0.330
2062,-0.280,0.325
2063,-0.295,0.320
2064,-0.310,0.310
2065,-0.330,0.320
2066,-0.295,0.340
2067,-0.305,0.365
2068,-0.290,0.360
2069,-0.290,0.355
2070,-0.290,0.345
2071,-0.305,0.345
2072,-0.285,0.360
2073,-0.275,0.365
2074,-0.255,0.380
2075,-0.265,0.365
2076,-0.280,0.365
2077,-0.285,0.375
2078,-0.275,0.385
2079,-0.270,0.405
2080,-0.255,0.390
2081,-0.260,0.390
2082,-0.270,0.390
2083,-0.275,0.410
2084,-0.270,0.425
2085,-0.255,0.455
2086,-0.235,0.445
2087,-0.245,0.440
2088,-0.260,0.445
2089,-0.245,0.445
2090,-0.240,0.475
2091,-0.215,0.490
2092,-0.200,0.485
2093,-0.215,0.490
2094,-0.210,0.475
2095,-0.215,0.490
2096,-0.210,0.515
2097,-0.185,0.520
2098,-0.165,0.515
2099,-0.170,0.505
2100,-0.175,0.495
2101,-0.170,0.505
2102,-0.165,0.530
2103,-0.140,0.530
2104,-0.105,0.525
2105,-0.115,0.495
2106,-0.110,0.485
2107,-0.110,0.485
2108,-0.085,0.500
2109,-0.050,0.505
2110,-0.030,0.480
2111,-0.035,0.455
2112,-0.035,0.435
2113,-0.015,0.425
2114,-0.005,0.400
2115,0.015,0.400
2116,0.035,0.380
2117,0.045,0.330
2118,0.025,0.300
2119,0.025,0.290
2120,0.065,0.295
2121,0.090,0.265
2122,0.110,0.255
2123,0.105,0.215
2124,0.115,0.200
2125,0.115,0.180
2126,0.135,0.180
2127,0.160,0.190
2128,0.175,0.175
2129,0.175,0.155
2130,0.155,0.135
2131,0.130,0.145
2132,0.105,0.150
2133,0.105,0.165
2134,0.110,0.160
2135,0.085,0.145
2136,0.040,0.135
2137,0.010,0.140
2138,-0.015,0.155
2139,-0.020,0.165
2140,-0.025,0.155
2141,-0.045,0.130
2142,-0.080,0.110
2143,-0.105,0.110
2144,-0.120,0.135
2145,-0.115,0.145
2146,-0.120,0.135
2147,-0.135,0.135
2148,-0.165,0.125
2149,-0.160,0.145
2150,-0.170,0.125
2151,-0.155,0.145
2152,-0.145,0.145
2153,-0.145,0.130
2154,-0.180,0.120
2155,-0.185,0.115
2156,-0.175,0.140
2157,-0.170,0.155
2158,-0.155,0.155
2159,-0.175,0.145
2160,-0.190,0.125
2161,-0.205,0.135
2162,-0.180,0.145
2163,-0.170,0.160
2164,-0.160,0.160
2165,-0.170,0.155
2166,-0.195,0.140
2167,-0.210,0.135
2168,-0.200,0.155
2169,-0.185,0.175
2170,-0.175,0.165
2171,-0.190,0.145
2172,-0.215,0.135
2173,-0.205,0.150
2174,-0.205,0.170
2175,-0.185,0.180
2176,-0.185,0.175
2177,-0.185,0.155
2178,-0.210,0.155
2179,-0.230,0.150
2180,-0.210,0.175
2181,-0.200,0.195
2182,-0.190,0.175
2183,-0.200,0.165
2184,-0.205,0.160
2185,-0.215,0.165
2186,-0.220,0.180
2187,-0.210,0.175
2188,-0.205,0.180
2189,-0.210,0.165
2190,-0.210,0.150
2191,-0.230,0.160
2192,-0.225,0.180
2193,-0.205,0.175
2194,-0.200,0.185
2195,-0.205,0.175
2196,-0.215,0.165
2197,-0.225,0.165
2198,-0.215,0.165
2199,-0.210,0.175
2200,-0.205,0.180
2201,-0.210,0.155
2202,-0.230,0.150
2203,-0.230,0.145
2204,-0.220,0.150
2205,-0.220,0.180
2206,-0.200,0.175
2207,-0.215,0.160
2208,-0.230,0.155
2209,-0.235,0.150
2210,-0.230,0.150
2211,-0.235,0.165
2212,-0.220,0.155
2213,-0.225,0.145
2214,-0.240,0.130
2215,-0.250,0.150
2216,-0.245,0.150
2217,-0.230,0.170
2218,-0.225,0.160
2219,-0.240,0.145
2220,-0.250,0.140
2221,-0.240,0.150
2222,-0.240,0.170
2223,-0.230,0.170
2224,-0.225,0.175
2225,-0.235,0.160
2226,-0.265,0.150
2227,-0.270,0.140
2228,-0.260,0.135
2229,-0.245,0.150
2230,-0.240,0.160
2231,-0.235,0.150
2232,-0.260,0.135
2233,-0.250,0.145
2234,-0.260,0.175
2235,-0.235,0.180
2236,-0.230,0.180
2237,-0.240,0.180
2238,-0.245,0.180
2239,-0.255,0.180
2240,-0.255,0.195
2241,-0.225,0.205
2242,-0.210,0.210
2243,-0.210,0.200
2244,-0.215,0.195
2245,-0.220,0.195
2246,-0.210,0.205
2247,-0.200,0.215
2248,-0.190,0.195
2249,-0.200,0.170
2250,-0.205,0.135
2251,-0.220,0.145
2252,-0.195,0.145
2253,-0.175,0.160
2254,-0.170,0.145
2255,-0.170,0.140
2256,-0.205,0.110
2257,-0.200,0.110
2258,-0.185,0.110
2259,-0.185,0.115
2260,-0.175,0.105
2261,-0.190,0.095
2262,-0.205,0.085
2263,-0.220,0.100
2264,-0.230,0.105
2265,-0.225,0.110
2266,-0.205,0.105
2267,-0.230,0.085
2268,-0.250,0.075
2269,-0.270,0.075
2270,-0.255,0.080
2271,-0.255,0.095
2272,-0.250,0.090
2273,-0.265,0.105
2274,-0.275,0.095
2275,-0.310,0.115
2276,-0.310,0.135
2277,-0.280,0.150
2278,-0.290,0.155
2279,-0.285,0.140
2280,-0.315,0.130
2281,-0.325,0.145
2282,-0.325,0.155
2283,-0.300,0.165
2284,-0.285,0.165
2285,-0.300,0.150
2286,-0.320,0.140
2287,-0.335,0.145
2288,-0.320,0.150
2289,-0.310,0.150
2290,-0.310,0.150
2291,-0.325,0.150
2292,-0.330,0.145
2293,-0.340,0.150
2294,-0.340,0.160
2295,-0.320,0.160
2296,-0.315,0.155
2297,-0.330,0.150
2298,-0.340,0.135
2299,-0.350,0.145
2300,-0.345,0.150
2301,-0.335,0.175
2302,-0.325,0.165
2303,-0.315,0.160
2304,-0.340,0.145
2305,-0.335,0.140
2306,-0.340,0.150
2307,-0.330,0.170
2308,-0.315,0.155
2309,-0.320,0.150
2310,-0.320,0.135
2311,-0.340,0.135
2312,-0.315,0.150
2313,-0.315,0.165
2314,-0.315,0.140
2315,-0.315,0.140
2316,-0.315,0.135
2317,-0.320,0.135
2318,-0.310,0.145
2319,-0.290,0.130
2320,-0.260,0.065
2321,-0.265,-0.030
2322,-0.260,-0.150
2323,-0.230,-0.290
2324,-0.165,-0.410
2325,-0.070,-0.540
2326,0.010,-0.655
2327,0.095,-0.765
2328,0.150,-0.830
2329,0.170,-0.850
2330,0.185,-0.810
2331,0.165,-0.820
2332,0.090,-0.830
2333,-0.020,-0.825
2334,-0.090,-0.795
2335,-0.100,-0.750
2336,-0.040,-0.695
2337,0.085,-0.655
2338,0.255,-0.620
2339,0.410,-0.610
2340,0.525,-0.590
2341,0.620,-0.570
2342,0.700,-0.535
2343,0.740,-0.500
2344,0.700,-0.470
2345,0.590,-0.425
2346,0.470,-0.370
2347,0.355,-0.310
2348,0.240,-0.225
2349,0.130,-0.150
2350,0.025,-0.110
2351,-0.105,-0.050
2352,-0.235,-0.005
2353,-0.360,0.065
2354,-0.450,0.150
2355,-0.495,0.225
2356,-0.540,0.255
2357,-0.565,0.265
2358,-0.560,0.270
2359,-0.535,0.295
2360,-0.495,0.315
2361,-0.445,0.335
2362,-0.420,0.340
2363,-0.390,0.330
2364,-0.410,0.325
2365,-0.410,0.340
2366,-0.415,0.345
2367,-0.395,0.380
2368,-0.385,0.365
2369,-0.390,0.365
2370,-0.415,0.345
2371,-0.410,0.370
2372,-0.420,0.375
2373,-0.415,0.385
2374,-0.390,0.390
2375,-0.385,0.380
2376,-0.395,0.380
2377,-0.400,0.390
2378,-0.380,0.410
2379,-0.370,0.415
2380,-0.355,0.420
2381,-0.355,0.415
2382,-0.365,0.405
2383,-0.385,0.405
2384,-0.370,0.425
2385,-0.365,0.445
2386,-0.345,0.435
2387,-0.350,0.435
2388,-0.355,0.445
2389,-0.350,0.455
2390,-0.345,0.465
2391,-0.325,0.480
2392,-0.315,0.485
2393,-0.305,0.490
2394,-0.315,0.480
2395,-0.325,0.495
2396,-0.305,0.510
2397,-0.280,0.525
2398,-0.275,0.520
2399,-0.270,0.515
2400,-0.265,0.505
2401,-0.290,0.520
2402,-0.260,0.535
2403,-0.215,0.530
2404,-0.205,0.535
2405,-0.190,0.520
2406,-0.200,0.515
2407,-0.190,0.510
2408,-0.170,0.520
2409,-0.155,0.515
2410,-0.130,0.510
2411,-0.115,0.495
2412,-0.110,0.460
2413,-0.100,0.460
2414,-0.090,0.450
2415,-0.070,0.450
2416,-0.035,0.420
2417,-0.045,0.375
2418,-0.035,0.355
2419,-0.035,0.335
2420,-0.015,0.320
2421,0.010,0.310
2422,0.055,0.275
2423,0.050,0.240
2424,0.070,0.220
2425,0.070,0.220
2426,0.085,0.210
2427,0.090,0.225
2428,0.110,0.215
2429,0.100,0.170
2430,0.065,0.170
2431,0.010,0.160
2432,0.010,0.170
2433,-0.005,0.200
2434,-0.020,0.185
2435,-0.050,0.170
2436,-0.090,0.160
2437,-0.135,0.150
2438,-0.155,0.165
2439,-0.170,0.185
2440,-0.165,0.185
2441,-0.170,0.155
2442,-0.195,0.155
2443,-0.225,0.165
2444,-0.225,0.160
2445,-0.220,0.175
2446,-0.235,0.160
2447,-0.235,0.160
2448,-0.250,0.150
2449,-0.255,0.140
2450,-0.250,0.165
2451,-0.240,0.170
2452,-0.230,0.165
2453,-0.245,0.160
2454,-0.265,0.150
2455,-0.260,0.155
2456,-0.260,0.160
2457,-0.245,0.165
2458,-0.235,0.175
2459,-0.240,0.170
2460,-0.255,0.155
2461,-0.270,0.160
2462,-0.265,0.175
2463,-0.240,0.185
2464,-0.235,0.170
2465,-0.235,0.170
2466,-0.260,0.160
2467,-0.260,0.165
2468,-0.255,0.180
2469,-0.245,0.190
2470,-0.235,0.185
2471,-0.235,0.180
2472,-0.245,0.155
2473,-0.260,0.175
2474,-0.250,0.190
2475,-0.240,0.190
2476,-0.230,0.190
2477,-0.235,0.180
2478,-0.260,0.175
2479,-0.275,0.180
2480,-0.275,0.190
2481,-0.240,0.195
2482,-0.240,0.185
2483,-0.240,0.175
2484,-0.250,0.180
2485,-0.265,0.190
2486,-0.250,0.195
2487,-0.230,0.200
2488,-0.220,0.190
2489,-0.225,0.185
2490,-0.240,0.170
2491,-0.250,0.175
2492,-0.250,0.180
2493,-0.240,0.195
2494,-0.220,0.180
2495,-0.235,0.185
2496,-0.245,0.160
2497,-0.255,0.175
2498,-0.250,0.175
2499,-0.240,0.190
2500,-0.230,0.185
2501,-0.230,0.170
2502,-0.250,0.160
2503,-0.255,0.160
2504,-0.255,0.190
2505,-0.230,0.185
2506,-0.220,0.175
2507,-0.220,0.175
2508,-0.235,0.165
2509,-0.235,0.160
2510,-0.250,0.175
2511,-0.230,0.185
2512,-0.210,0.185
2513,-0.240,0.170
2514,-0.240,0.150
2515,-0.245,0.160
2516,-0.250,0.155
2517,-0.230,0.175
2518,-0.220,0.175
2519,-0.225,0.155
2520,-0.235,0.145
2521,-0.250,0.160
2522,-0.240,0.170
2523,-0.225,0.190
2524,-0.220,0.190
2525,-0.225,0.180
2526,-0.240,0.180
2527,-0.250,0.190
2528,-0.240,0.205
2529,-0.235,0.235
2530,-0.205,0.215
2531,-0.205,0.215
2532,-0.205,0.205
2533,-0.210,0.195
2534,-0.195,0.220
2535,-0.190,0.220
2536,-0.180,0.210
2537,-0.180,0.195
2538,-0.185,0.190
2539,-0.195,0.175
2540,-0.185,0.180
2541,-0.155,0.165
2542,-0.130,0.170
2543,-0.140,0.155
2544,-0.140,0.140
2545,-0.135,0.140
2546,-0.140,0.135
2547,-0.120,0.135
2548,-0.120,0.125
2549,-0.130,0.115
2550,-0.150,0.090
2551,-0.165,0.095
2552,-0.150,0.105
2553,-0.160,0.115
2554,-0.160,0.100
2555,-0.160,0.095
2556,-0.175,0.070
2557,-0.190,0.080
2558,-0.175,0.085
2559,-0.175,0.095
2560,-0.170,0.095
2561,-0.175,0.075
2562,-0.190,0.080
2563,-0.210,0.075
2564,-0.220,0.090
2565,-0.215,0.105
2566,-0.185,0.110
2567,-0.195,0.110
2568,-0.205,0.105
2569,-0.230,0.115
2570,-0.225,0.135
2571,-0.225,0.140
2572,-0.210,0.140
2573,-0.225,0.125
2574,-0.245,0.120
2575,-0.240,0.125
2576,-0.235,0.130
2577,-0.215,0.150
2578,-0.205,0.135
2579,-0.210,0.135
2580,-0.225,0.125
2581,-0.250,0.115
2582,-0.240,0.130
2583,-0.230,0.145
2584,-0.230,0.140
2585,-0.235,0.140
2586,-0.240,0.115
2587,-0.260,0.125
2588,-0.245,0.140
2589,-0.240,0.155
2590,-0.220,0.150
2591,-0.225,0.145
2592,-0.235,0.125
2593,-0.255,0.125
2594,-0.245,0.140
2595,-0.240,0.150
2596,-0.220,0.135
2597,-0.220,0.125
2598,-0.240,0.130
2599,-0.245,0.130
2600,-0.245,0.140
2601,-0.235,0.155
2602,-0.210,0.140
2603,-0.225,0.140
2604,-0.240,0.125
2605,-0.240,0.115
2606,-0.245,0.125
2607,-0.230,0.145
2608,-0.200,0.130
2609,-0.215,0.120
2610,-0.225,0.105
2611,-0.240,0.105
2612,-0.215,0.125
2613,-0.190,0.120
2614,-0.175,0.090
2615,-0.155,-0.005
2616,-0.150,-0.085
2617,-0.135,-0.185
2618,-0.100,-0.285
2619,-0.045,-0.390
2620,0.015,-0.530
2621,0.080,-0.635
2622,0.125,-0.740
2623,0.175,-0.785
2624,0.240,-0.785
2625,0.270,-0.775
2626,0.280,-0.780
2627,0.225,-0.790
2628,0.155,-0.805
2629,0.070,-0.790
2630,0.025,-0.745
2631,0.050,-0.710
2632,0.105,-0.675
2633,0.185,-0.655
2634,0.275,-0.640
2635,0.390,-0.615
2636,0.540,-0.595
2637,0.660,-0.555
2638,0.745,-0.535
2639,0.790,-0.520
2640,0.760,-0.505
2641,0.690,-0.465
2642,0.600,-0.415
2643,0.535,-0.340
2644,0.455,-0.295
2645,0.370,-0.235
2646,0.275,-0.200
2647,0.175,-0.145
2648,0.070,-0.085
2649,-0.035,-0.020
2650,-0.130,0.025
2651,-0.240,0.085
2652,-0.325,0.125
2653,-0.410,0.180
2654,-0.435,0.225
2655,-0.435,0.265
2656,-0.430,0.275
2657,-0.410,0.265
2658,-0.400,0.265
2659,-0.385,0.285
2660,-0.350,0.305
2661,-0.295,0.310
2662,-0.260,0.320
2663,-0.265,0.320
2664,-0.275,0.305
2665,-0.275,0.325
2666,-0.275,0.340
2667,-0.275,0.345
2668,-0.265,0.350
2669,-0.270,0.345
2670,-0.265,0.340
2671,-0.280,0.330
2672,-0.270,0.360
2673,-0.265,0.365
2674,-0.245,0.365
2675,-0.245,0.360
2676,-0.270,0.350
2677,-0.270,0.360
2678,-0.265,0.375
2679,-0.260,0.385
2680,-0.240,0.390
2681,-0.250,0.390
2682,-0.245,0.370
2683,-0.250,0.385
2684,-0.245,0.395
2685,-0.240,0.405
2686,-0.215,0.405
2687,-0.230,0.405
2688,-0.245,0.400
2689,-0.250,0.400
2690,-0.235,0.430
2691,-0.210,0.435
2692,-0.195,0.445
2693,-0.195,0.440
2694,-0.220,0.425
2695,-0.210,0.455
2696,-0.210,0.475
2697,-0.185,0.480
2698,-0.170,0.475
2699,-0.180,0.475
2700,-0.170,0.475
2701,-0.170,0.485
2702,-0.170,0.500
2703,-0.160,0.515
2704,-0.140,0.515
2705,-0.130,0.500
2706,-0.130,0.495
2707,-0.125,0.510
2708,-0.120,0.515
2709,-0.105,0.530
2710,-0.080,0.525
2711,-0.080,0.520
2712,-0.075,0.510
2713,-0.075,0.510
2714,-0.055,0.515
2715,-0.030,0.525
2716,-0.010,0.505
2717,-0.015,0.485
2718,-0.015,0.465
2719,-0.005,0.450
2720,0.010,0.450
2721,0.020,0.455
2722,0.045,0.430
2723,0.055,0.395
2724,0.045,0.360
2725,0.050,0.350
2726,0.065,0.350
2727,0.085,0.325
2728,0.110,0.295
2729,0.125,0.270
2730,0.125,0.240
2731,0.130,0.230
2732,0.145,0.205
2733,0.170,0.210
2734,0.180,0.200
2735,0.210,0.190
2736,0.205,0.175
2737,0.200,0.150
2738,0.190,0.165
2739,0.200,0.170
2740,0.210,0.155
2741,0.175,0.140
2742,0.140,0.130
2743,0.115,0.130
2744,0.095,0.150
2745,0.090,0.160
2746,0.085,0.145
2747,0.055,0.130
2748,0.015,0.125
2749,-0.010,0.125
2750,-0.025,0.125
2751,-0.020,0.140
2752,-0.025,0.125
2753,-0.050,0.125
2754,-0.080,0.120
2755,-0.090,0.115
2756,-0.100,0.135
2757,-0.090,0.150
2758,-0.085,0.135
2759,-0.095,0.125
2760,-0.115,0.115
2761,-0.140,0.120
2762,-0.130,0.140
2763,-0.125,0.150
2764,-0.100,0.150
2765,-0.115,0.140
2766,-0.130,0.120
2767,-0.140,0.130
2768,-0.145,0.135
2769,-0.145,0.145
2770,-0.115,0.135
2771,-0.115,0.130
2772,-0.130,0.125
2773,-0.155,0.125
2774,-0.145,0.145
2775,-0.140,0.160
2776,-0.125,0.160
2777,-0.125,0.140
2778,-0.140,0.140
2779,-0.145,0.130
2780,-0.140,0.155
2781,-0.140,0.155
2782,-0.120,0.150
2783,-0.120,0.145
2784,-0.140,0.145
2785,-0.135,0.155
2786,-0.130,0.160
2787,-0.115,0.175
2788,-0.105,0.155
2789,-0.125,0.155
2790,-0.130,0.140
2791,-0.140,0.150
2792,-0.135,0.165
2793,-0.125,0.170
2794,-0.105,0.170
2795,-0.115,0.155
2796,-0.135,0.160
2797,-0.135,0.150
2798,-0.150,0.170
2799,-0.125,0.170
2800,-0.110,0.165
2801,-0.120,0.170
2802,-0.135,0.140
2803,-0.155,0.150
2804,-0.155,0.160
2805,-0.130,0.170
2806,-0.120,0.170
2807,-0.125,0.160
2808,-0.150,0.140
2809,-0.160,0.155
2810,-0.155,0.165
2811,-0.140,0.175
2812,-0.130,0.170
2813,-0.140,0.155
2814,-0.145,0.150
2815,-0.170,0.145
2816,-0.165,0.155
2817,-0.150,0.170
2818,-0.125,0.170
2819,-0.135,0.165
2820,-0.150,0.140
2821,-0.160,0.145
2822,-0.155,0.155
2823,-0.140,0.170
2824,-0.125,0.160
2825,-0.150,0.145
2826,-0.165,0.140
2827,-0.180,0.140
2828,-0.170,0.155
2829,-0.155,0.150
2830,-0.150,0.155
2831,-0.150,0.140
2832,-0.165,0.135
2833,-0.180,0.140
2834,-0.160,0.140
2835,-0.155,0.170
2836,-0.150,0.150
2837,-0.160,0.145
2838,-0.165,0.130
2839,-0.170,0.135
2840,-0.175,0.155
2841,-0.170,0.165
2842,-0.155,0.170
2843,-0.145,0.165
2844,-0.170,0.155
2845,-0.190,0.175
2846,-0.185,0.190
2847,-0.160,0.200
2848,-0.155,0.180
2849,-0.160,0.185
2850,-0.160,0.170
2851,-0.155,0.175
2852,-0.140,0.190
2853,-0.125,0.195
2854,-0.105,0.195
2855,-0.110,0.200
2856,-0.135,0.180
2857,-0.150,0.185
2858,-0.140,0.200
2859,-0.115,0.185
2860,-0.100,0.170
2861,-0.090,0.150
2862,-0.100,0.135
2863,-0.100,0.125
2864,-0.090,0.125
2865,-0.075,0.150
2866,-0.065,0.130
2867,-0.060,0.115
2868,-0.090,0.105
2869,-0.110,0.110
2870,-0.105,0.115
2871,-0.095,0.125
2872,-0.085,0.105
2873,-0.100,0.090
2874,-0.115,0.080
2875,-0.115,0.090
2876,-0.135,0.095
2877,-0.130,0.105
2878,-0.115,0.100
2879,-0.140,0.090
2880,-0.160,0.070
2881,-0.160,0.080
2882,-0.170,0.105
2883,-0.145,0.115
2884,-0.140,0.105
2885,-0.145,0.105
2886,-0.165,0.100
2887,-0.190,0.115
2888,-0.185,0.140
2889,-0.160,0.150
2890,-0.155,0.155
2891,-0.170,0.135
2892,-0.215,0.140
2893,-0.220,0.140
2894,-0.205,0.155
2895,-0.205,0.160
2896,-0.180,0.160
2897,-0.185,0.150
2898,-0.200,0.135
2899,-0.210,0.140
2900,-0.215,0.160
2901,-0.200,0.170
2902,-0.205,0.160
2903,-0.220,0.150
2904,-0.220,0.150
2905,-0.225,0.155
2906,-0.225,0.160
2907,-0.205,0.170
2908,-0.200,0.160
2909,-0.200,0.145
2910,-0.225,0.140
2911,-0.235,0.150
2912,-0.230,0.155
2913,-0.210,0.155
2914,-0.205,0.170
2915,-0.210,0.165
2916,-0.235,0.145
2917,-0.220,0.150
2918,-0.225,0.155
2919,-0.205,0.170
2920,-0.195,0.170
2921,-0.205,0.150
2922,-0.215,0.145
2923,-0.220,0.145
2924,-0.220,0.165
2925,-0.205,0.165
2926,-0.190,0.170
2927,-0.210,0.160
2928,-0.215,0.140
2929,-0.220,0.150
2930,-0.210,0.150
2931,-0.200,0.160
2932,-0.195,0.165
2933,-0.200,0.145
2934,-0.195,0.120
2935,-0.180,0.070
2936,-0.155,0.010
2937,-0.115,-0.065
2938,-0.090,-0.200
2939,-0.065,-0.330
2940,-0.030,-0.475
2941,0.010,-0.575
2942,0.090,-0.680
2943,0.170,-0.740
2944,0.220,-0.780
2945,0.265,-0.805
2946,0.275,-0.805
2947,0.235,-0.800
2948,0.195,-0.800
2949,0.135,-0.795
2950,0.080,-0.775
2951,0.065,-0.760
2952,0.080,-0.720
2953,0.135,-0.680
2954,0.245,-0.635
2955,0.385,-0.600
2956,0.520,-0.585
2957,0.645,-0.580
2958,0.740,-0.565
2959,0.815,-0.545
2960,0.850,-0.505
2961,0.835,-0.460
2962,0.770,-0.425
2963,0.645,-0.390
2964,0.560,-0.345
2965,0.480,-0.280
2966,0.385,-0.225
2967,0.310,-0.160
2968,0.235,-0.130
2969,0.120,-0.080
2970,-0.015,-0.040
2971,-0.130,0.025
2972,-0.250,0.110
2973,-0.330,0.165
2974,-0.390,0.220
2975,-0.430,0.245
2976,-0.470,0.265
2977,-0.485,0.285
2978,-0.465,0.310
2979,-0.405,0.330
2980,-0.370,0.330
2981,-0.345,0.320
2982,-0.305,0.325
2983,-0.300,0.325
2984,-0.295,0.355
2985,-0.285,0.375
2986,-0.280,0.375
2987,-0.275,0.360
2988,-0.285,0.360
2989,-0.290,0.355
2990,-0.285,0.380
2991,-0.270,0.390
2992,-0.260,0.400
2993,-0.260,0.380
2994,-0.260,0.375
2995,-0.285,0.385
2996,-0.280,0.395
2997,-0.265,0.415
2998,-0.250,0.410
2999,-0.250,0.400
3000,-0.260,0.400
3001,-0.265,0.410
3002,-0.260,0.415
3003,-0.245,0.430
3004,-0.240,0.435
3005,-0.230,0.425
3006,-0.250,0.410
3007,-0.250,0.430
3008,-0.245,0.435
3009,-0.235,0.450
3010,-0.225,0.470
3011,-0.230,0.455
3012,-0.245,0.445
3013,-0.235,0.465
3014,-0.225,0.470
3015,-0.210,0.490
3016,-0.195,0.485
3017,-0.200,0.490
3018,-0.205,0.470
3019,-0.205,0.485
3020,-0.215,0.505
3021,-0.195,0.530
3022,-0.160,0.525
3023,-0.160,0.515
3024,-0.175,0.515
3025,-0.175,0.515
3026,-0.175,0.535
3027,-0.150,0.545
3028,-0.135,0.545
3029,-0.145,0.535
3030,-0.135,0.525
3031,-0.135,0.530
3032,-0.110,0.540
3033,-0.095,0.545
3034,-0.095,0.545
3035,-0.085,0.535
3036,-0.095,0.525
3037,-0.090,0.530
3038,-0.070,0.520
3039,-0.030,0.530
3040,-0.005,0.520
3041,-0.010,0.495
3042,-0.005,0.475
3043,-0.005,0.460
3044,0.000,0.455
3045,0.035,0.440
3046,0.055,0.425
3047,0.055,0.385
3048,0.055,0.360
3049,0.050,0.345
3050,0.070,0.330
3051,0.105,0.325
3052,0.105,0.300
3053,0.120,0.275
3054,0.130,0.240
3055,0.125,0.235
3056,0.145,0.230
3057,0.165,0.230
3058,0.185,0.215
3059,0.185,0.195
3060,0.175,0.185
3061,0.160,0.175
3062,0.145,0.175
3063,0.150,0.190
3064,0.135,0.195
3065,0.110,0.170
3066,0.080,0.165
3067,0.035,0.175
3068,0.025,0.165
3069,0.010,0.175
3070,0.015,0.165
3071,-0.010,0.165
3072,-0.040,0.155
3073,-0.065,0.165
3074,-0.095,0.160
3075,-0.095,0.170
3076,-0.080,0.185
3077,-0.105,0.165
3078,-0.115,0.155
3079,-0.135,0.155
3080,-0.150,0.170
3081,-0.140,0.170
3082,-0.140,0.165
3083,-0.145,0.165
3084,-0.155,0.140
3085,-0.170,0.150
3086,-0.170,0.155
3087,-0.150,0.180
3088,-0.155,0.175
3089,-0.170,0.175
3090,-0.185,0.160
3091,-0.185,0.160
3092,-0.185,0.165
3093,-0.170,0.195
3094,-0.160,0.180
3095,-0.165,0.175
3096,-0.175,0.150
3097,-0.185,0.170
3098,-0.185,0.175
3099,-0.175,0.180
3100,-0.165,0.190
3101,-0.175,0.175
3102,-0.195,0.170
3103,-0.195,0.170
3104,-0.210,0.185
3105,-0.185,0.190
3106,-0.180,0.190
3107,-0.190,0.195
3108,-0.190,0.185
3109,-0.195,0.175
3110,-0.205,0.195
3111,-0.185,0.215
3112,-0.175,0.195
3113,-0.180,0.190
3114,-0.190,0.190
3115,-0.215,0.180
3116,-0.200,0.195
3117,-0.190,0.205
3118,-0.180,0.215
3119,-0.185,0.200
3120,-0.185,0.200
3121,-0.200,0.195
3122,-0.200,0.215
3123,-0.180,0.215
3124,-0.175,0.210
3125,-0.185,0.200
3126,-0.190,0.180
3127,-0.210,0.180
3128,-0.200,0.200
3129,-0.190,0.210
3130,-0.175,0.215
3131,-0.190,0.185
3132,-0.195,0.175
3133,-0.210,0.185
3134,-0.200,0.190
3135,-0.190,0.190
3136,-0.180,0.190
3137,-0.190,0.185
3138,-0.220,0.165
3139,-0.235,0.175
3140,-0.210,0.190
3141,-0.205,0.190
3142,-0.195,0.200
3143,-0.205,0.185
3144,-0.205,0.170
3145,-0.220,0.175
3146,-0.210,0.185
3147,-0.200,0.195
3148,-0.195,0.195
3149,-0.200,0.185
3150,-0.205,0.165
3151,-0.220,0.170
3152,-0.215,0.185
3153,-0.200,0.195
3154,-0.195,0.180
3155,-0.205,0.180
3156,-0.210,0.170
3157,-0.215,0.175
3158,-0.230,0.180
3159,-0.200,0.190
3160,-0.205,0.200
3161,-0.210,0.175
3162,-0.220,0.165
3163,-0.240,0.170
3164,-0.220,0.190
3165,-0.215,0.200
3166,-0.195,0.205
3167,-0.200,0.205
3168,-0.220,0.200
3169,-0.210,0.215
3170,-0.215,0.225
3171,-0.205,0.235
3172,-0.190,0.230
3173,-0.195,0.230
3174,-0.190,0.215
3175,-0.200,0.220
3176,-0.180,0.230
3177,-0.170,0.240
3178,-0.145,0.230
3179,-0.155,0.220
3180,-0.155,0.195
3181,-0.160,0.185
3182,-0.155,0.195
3183,-0.125,0.185
3184,-0.120,0.180
3185,-0.115,0.165
3186,-0.130,0.140
3187,-0.140,0.140
3188,-0.130,0.155
3189,-0.125,0.145
3190,-0.120,0.145
3191,-0.115,0.130
3192,-0.150,0.120
3193,-0.170,0.120
3194,-0.160,0.125
3195,-0.150,0.140
3196,-0.150,0.130
3197,-0.160,0.115
3198,-0.180,0.100
3199,-0.195,0.100
3200,-0.200,0.120
3201,-0.190,0.140
3202,-0.190,0.145
3203,-0.190,0.135
3204,-0.200,0.120
3205,-0.220,0.120
3206,-0.220,0.145
3207,-0.210,0.165
3208,-0.195,0.180
3209,-0.200,0.170
3210,-0.225,0.165
3211,-0.245,0.155
3212,-0.250,0.165
3213,-0.235,0.175
3214,-0.230,0.170
3215,-0.225,0.170
3216,-0.245,0.160
3217,-0.260,0.160
3218,-0.250,0.180
3219,-0.250,0.180
3220,-0.240,0.180
3221,-0.250,0.175
3222,-0.270,0.160
3223,-0.275,0.165
3224,-0.285,0.185
3225,-0.270,0.190
3226,-0.250,0.190
3227,-0.255,0.190
3228,-0.270,0.170
3229,-0.280,0.180
3230,-0.295,0.175
3231,-0.270,0.195
3232,-0.265,0.195
3233,-0.270,0.175
3234,-0.285,0.165
3235,-0.290,0.170
3236,-0.280,0.190
3237,-0.270,0.185
3238,-0.255,0.185
3239,-0.260,0.185
3240,-0.280,0.170
3241,-0.290,0.160
3242,-0.295,0.175
3243,-0.280,0.175
3244,-0.265,0.175
3245,-0.260,0.175
3246,-0.275,0.155
3247,-0.285,0.150
3248,-0.285,0.165
3249,-0.270,0.175
3250,-0.245,0.180
3251,-0.245,0.160
3252,-0.250,0.120
3253,-0.240,0.055
3254,-0.220,-0.010
3255,-0.190,-0.090
3256,-0.145,-0.210
3257,-0.115,-0.345
3258,-0.085,-0.465
3259,-0.030,-0.565
3260,0.030,-0.650
3261,0.100,-0.705
3262,0.155,-0.745
3263,0.190,-0.775
3264,0.190,-0.780
3265,0.145,-0.790
3266,0.085,-0.785
3267,0.030,-0.765
3268,-0.025,-0.740
3269,-0.040,-0.720
3270,-0.035,-0.700
3271,0.040,-0.665
3272,0.170,-0.625
3273,0.335,-0.580
3274,0.470,-0.555
3275,0.595,-0.555
3276,0.665,-0.535
3277,0.705,-0.500
3278,0.690,-0.465
3279,0.625,-0.400
3280,0.535,-0.360
3281,0.420,-0.320
3282,0.290,-0.270
3283,0.180,-0.225
3284,0.085,-0.150
3285,-0.035,-0.095
3286,-0.140,-0.035
3287,-0.255,0.020
3288,-0.365,0.080
3289,-0.455,0.135
3290,-0.510,0.200
3291,-0.545,0.250
3292,-0.565,0.290
3293,-0.575,0.295
3294,-0.580,0.300
3295,-0.555,0.305
3296,-0.505,0.340
3297,-0.450,0.350
3298,-0.410,0.350
3299,-0.385,0.345
3300,-0.385,0.350
3301,-0.380,0.345
3302,-0.385,0.370
3303,-0.370,0.390
3304,-0.360,0.400
3305,-0.360,0.390
3306,-0.365,0.380
3307,-0.375,0.385
3308,-0.380,0.410
3309,-0.355,0.420
3310,-0.345,0.410
3311,-0.365,0.405
3312,-0.365,0.405
3313,-0.375,0.415
3314,-0.375,0.425
3315,-0.340,0.445
3316,-0.335,0.430
3317,-0.345,0.440
3318,-0.360,0.425
3319,-0.375,0.435
3320,-0.360,0.445
3321,-0.340,0.450
3322,-0.320,0.450
3323,-0.330,0.450
3324,-0.340,0.455
3325,-0.350,0.455
3326,-0.345,0.465
3327,-0.330,0.480
3328,-0.320,0.480
3329,-0.315,0.485
3330,-0.320,0.480
3331,-0.330,0.480
3332,-0.320,0.495
3333,-0.295,0.510
3334,-0.280,0.510
3335,-0.290,0.510
3336,-0.290,0.495
3337,-0.290,0.515
3338,-0.300,0.535
3339,-0.280,0.550
3340,-0.265,0.545
3341,-0.260,0.535
3342,-0.255,0.540
3343,-0.255,0.545
3344,-0.255,0.560
3345,-0.235,0.585
3346,-0.210,0.570
3347,-0.200,0.560
3348,-0.200,0.550
3349,-0.205,0.570
3350,-0.185,0.565
3351,-0.165,0.570
3352,-0.150,0.570
3353,-0.140,0.565
3354,-0.155,0.550
3355,-0.135,0.540
3356,-0.115,0.540
3357,-0.090,0.545
3358,-0.060,0.540
3359,-0.065,0.515
3360,-0.065,0.485
3361,-0.080,0.480
3362,-0.075,0.465
3363,-0.045,0.455
3364,-0.005,0.440
3365,-0.005,0.410
3366,0.000,0.380
3367,0.000,0.355
3368,0.015,0.330
3369,0.035,0.320
3370,0.055,0.310
3371,0.075,0.275
3372,0.065,0.270
3373,0.065,0.255
3374,0.060,0.250
3375,0.080,0.245
3376,0.090,0.235
3377,0.070,0.225
3378,0.055,0.220
3379,0.030,0.215
3380,0.010,0.215
3381,0.010,0.210
3382,-0.025,0.220
3383,-0.025,0.205
3384,-0.075,0.205
3385,-0.105,0.195
3386,-0.120,0.210
3387,-0.135,0.205
3388,-0.140,0.210
3389,-0.165,0.190
3390,-0.200,0.185
3391,-0.235,0.190
3392,-0.230,0.215
3393,-0.225,0.220
3394,-0.225,0.215
3395,-0.250,0.195
3396,-0.270,0.185
3397,-0.295,0.180
3398,-0.295,0.195
3399,-0.290,0.220
3400,-0.270,0.220
3401,-0.275,0.200
3402,-0.295,0.180
3403,-0.300,0.195
3404,-0.305,0.195
3405,-0.310,0.195
3406,-0.295,0.215
3407,-0.305,0.205
3408,-0.315,0.200
3409,-0.335,0.185
3410,-0.320,0.205
3411,-0.315,0.215
3412,-0.295,0.205
3413,-0.295,0.205
3414,-0.325,0.195
3415,-0.330,0.215
3416,-0.325,0.215
3417,-0.300,0.225
3418,-0.290,0.225
3419,-0.300,0.225
3420,-0.325,0.215
3421,-0.330,0.225
3422,-0.320,0.230
3423,-0.300,0.240
3424,-0.300,0.240
3425,-0.300,0.235
3426,-0.320,0.210
3427,-0.330,0.210
3428,-0.330,0.230
3429,-0.320,0.230
3430,-0.305,0.240
3431,-0.310,0.230
3432,-0.320,0.225
3433,-0.320,0.230
3434,-0.330,0.230
3435,-0.325,0.255
3436,-0.320,0.245
3437,-0.315,0.240
3438,-0.330,0.240
3439,-0.325,0.235
3440,-0.335,0.245
3441,-0.315,0.270
3442,-0.290,0.250
3443,-0.305,0.245
3444,-0.310,0.225
3445,-0.325,0.210
3446,-0.320,0.235
3447,-0.310,0.235
3448,-0.305,0.235
3449,-0.290,0.230
3450,-0.305,0.215
3451,-0.315,0.220
3452,-0.320,0.235
3453,-0.310,0.250
3454,-0.300,0.240
3455,-0.305,0.230
3456,-0.320,0.210
3457,-0.340,0.215
3458,-0.330,0.230
3459,-0.320,0.255
3460,-0.315,0.255
3461,-0.330,0.230
3462,-0.330,0.215
3463,-0.335,0.200
3464,-0.345,0.210
3465,-0.315,0.230
3466,-0.310,0.235
3467,-0.315,0.220
3468,-0.330,0.205
3469,-0.335,0.215
3470,-0.330,0.235
3471,-0.330,0.240
3472,-0.310,0.240
3473,-0.315,0.220
3474,-0.335,0.215
3475,-0.335,0.215
3476,-0.335,0.230
3477,-0.325,0.240
3478,-0.325,0.240
3479,-0.320,0.245
3480,-0.325,0.245
3481,-0.350,0.255
3482,-0.325,0.270
3483,-0.305,0.290
3484,-0.290,0.280
3485,-0.290,0.265
3486,-0.300,0.250
3487,-0.305,0.255
3488,-0.295,0.270
3489,-0.280,0.280
3490,-0.255,0.270
3491,-0.270,0.275
3492,-0.280,0.235
3493,-0.275,0.225
3494,-0.260,0.225
3495,-0.245,0.230
3496,-0.240,0.230
3497,-0.250,0.220
3498,-0.240,0.185
3499,-0.230,0.180
3500,-0.235,0.175
3501,-0.230,0.195
3502,-0.220,0.180
3503,-0.225,0.150
3504,-0.240,0.145
3505,-0.255,0.145
3506,-0.275,0.160
3507,-0.255,0.170
3508,-0.250,0.180
3509,-0.260,0.155
3510,-0.280,0.145
3511,-0.310,0.145
3512,-0.295,0.165
3513,-0.285,0.175
3514,-0.290,0.155
3515,-0.290,0.155
3516,-0.305,0.145
3517,-0.325,0.150
3518,-0.335,0.175
3519,-0.315,0.190
3520,-0.300,0.205
3521,-0.345,0.185
3522,-0.335,0.180
3523,-0.350,0.195
3524,-0.355,0.195
3525,-0.335,0.210
3526,-0.315,0.215
3527,-0.315,0.195
3528,-0.330,0.190
3529,-0.335,0.185
3530,-0.345,0.205
3531,-0.325,0.220
3532,-0.330,0.215
3533,-0.335,0.200
3534,-0.340,0.190
3535,-0.345,0.180
3536,-0.335,0.200
3537,-0.340,0.210
3538,-0.320,0.210
3539,-0.330,0.200
3540,-0.335,0.195
3541,-0.345,0.195
3542,-0.350,0.205
3543,-0.320,0.215
3544,-0.310,0.205
3545,-0.315,0.205
3546,-0.330,0.180
3547,-0.335,0.180
3548,-0.330,0.185
3549,-0.315,0.200
3550,-0.305,0.195
3551,-0.305,0.190
3552,-0.295,0.170
3553,-0.310,0.155
3554,-0.290,0.120
3555,-0.265,0.065
3556,-0.225,-0.030
3557,-0.195,-0.145
3558,-0.170,-0.310
3559,-0.110,-0.425
3560,-0.030,-0.540
3561,0.045,-0.625
3562,0.125,-0.670
3563,0.160,-0.720
3564,0.185,-0.710
3565,0.155,-0.710
3566,0.105,-0.705
3567,0.030,-0.700
3568,-0.035,-0.690
3569,-0.100,-0.655
3570,-0.085,-0.640
3571,-0.020,-0.605
3572,0.085,-0.560
3573,0.210,-0.520
3574,0.350,-0.500
3575,0.445,-0.490
3576,0.520,-0.480
3577,0.570,-0.450
3578,0.615,-0.420
3579,0.580,-0.355
3580,0.535,-0.305
3581,0.425,-0.265
3582,0.320,-0.230
3583,0.240,-0.175
3584,0.125,-0.115
3585,0.050,-0.060
3586,-0.005,0.000
3587,-0.120,0.050
3588,-0.230,0.080
3589,-0.325,0.155
3590,-0.405,0.220
3591,-0.470,0.270
3592,-0.485,0.305
3593,-0.520,0.315
3594,-0.525,0.320
3595,-0.505,0.330
3596,-0.465,0.350
3597,-0.420,0.370
3598,-0.390,0.390
3599,-0.365,0.375
3600,-0.360,0.370
3601,-0.360,0.380
3602,-0.360,0.400
3603,-0.335,0.405
3604,-0.330,0.405
3605,-0.345,0.410
3606,-0.360,0.405
3607,-0.340,0.400
3608,-0.345,0.415
3609,-0.330,0.435
3610,-0.315,0.435
3611,-0.320,0.420
3612,-0.320,0.420
3613,-0.335,0.425
3614,-0.315,0.435
3615,-0.305,0.445
3616,-0.295,0.445
3617,-0.320,0.435
3618,-0.315,0.425
3619,-0.330,0.435
3620,-0.325,0.455
3621,-0.310,0.460
3622,-0.295,0.460
3623,-0.290,0.465
3624,-0.300,0.460
3625,-0.305,0.450
3626,-0.300,0.480
3627,-0.290,0.495
3628,-0.265,0.510
3629,-0.270,0.495
3630,-0.285,0.490
3631,-0.275,0.490
3632,-0.265,0.505
3633,-0.255,0.520
3634,-0.240,0.525
3635,-0.230,0.530
3636,-0.235,0.520
3637,-0.250,0.520
3638,-0.235,0.540
3639,-0.215,0.565
3640,-0.180,0.565
3641,-0.195,0.555
3642,-0.195,0.545
3643,-0.195,0.560
3644,-0.175,0.565
3645,-0.165,0.590
3646,-0.130,0.590
3647,-0.125,0.565
3648,-0.135,0.555
3649,-0.125,0.560
3650,-0.120,0.560
3651,-0.105,0.585
3652,-0.085,0.570
3653,-0.070,0.570
3654,-0.060,0.545
3655,-0.060,0.540
3656,-0.040,0.535
3657,-0.015,0.525
3658,0.005,0.510
3659,0.015,0.485
3660,0.015,0.455
3661,0.020,0.445
3662,0.020,0.430
3663,0.045,0.415
3664,0.075,0.405
3665,0.085,0.360
3666,0.090,0.335
3667,0.085,0.320
3668,0.110,0.320
3669,0.130,0.310
3670,0.160,0.290
3671,0.155,0.270
3672,0.140,0.260
3673,0.140,0.250
3674,0.140,0.260
3675,0.150,0.270
3676,0.125,0.270
3677,0.110,0.245
3678,0.085,0.235
3679,0.055,0.225
3680,0.035,0.225
3681,0.020,0.230
3682,0.015,0.230
3683,-0.005,0.220
3684,-0.030,0.210
3685,-0.065,0.220
3686,-0.075,0.225
3687,-0.095,0.235
3688,-0.085,0.230
3689,-0.105,0.225
3690,-0.130,0.215
3691,-0.155,0.210
3692,-0.160,0.245
3693,-0.145,0.240
3694,-0.155,0.240
3695,-0.150,0.220
3696,-0.180,0.205
3697,-0.200,0.215
3698,-0.200,0.225
3699,-0.190,0.220
3700,-0.195,0.220
3701,-0.175,0.210
3702,-0.190,0.195
3703,-0.200,0.205
3704,-0.190,0.210
3705,-0.200,0.235
3706,-0.175,0.235
3707,-0.170,0.210
3708,-0.190,0.200
3709,-0.200,0.200
3710,-0.200,0.215
3711,-0.195,0.225
3712,-0.190,0.230
3713,-0.200,0.225
3714,-0.200,0.210
3715,-0.205,0.215
3716,-0.200,0.225
3717,-0.190,0.225
3718,-0.165,0.235
3719,-0.185,0.230
3720,-0.195,0.220
3721,-0.200,0.215
3722,-0.215,0.230
3723,-0.190,0.245
3724,-0.165,0.240
3725,-0.175,0.240
3726,-0.185,0.225
3727,-0.195,0.220
3728,-0.190,0.225
3729,-0.180,0.240
3730,-0.165,0.235
3731,-0.180,0.220
3732,-0.185,0.230
3733,-0.185,0.205
3734,-0.195,0.220
3735,-0.175,0.230
3736,-0.165,0.230
3737,-0.180,0.220
3738,-0.185,0.195
3739,-0.190,0.215
3740,-0.205,0.220
3741,-0.190,0.230
3742,-0.175,0.235
3743,-0.180,0.215
3744,-0.195,0.205
3745,-0.205,0.205
3746,-0.215,0.220
3747,-0.200,0.230
3748,-0.180,0.225
3749,-0.195,0.195
3750,-0.200,0.195
3751,-0.200,0.195
3752,-0.220,0.210
3753,-0.200,0.210
3754,-0.180,0.220
3755,-0.200,0.215
3756,-0.195,0.195
3757,-0.215,0.195
3758,-0.225,0.200
3759,-0.195,0.225
3760,-0.185,0.210
3761,-0.190,0.210
3762,-0.205,0.195
3763,-0.210,0.195
3764,-0.225,0.205
3765,-0.215,0.215
3766,-0.200,0.215
3767,-0.195,0.200
3768,-0.195,0.190
3769,-0.215,0.185
3770,-0.215,0.205
3771,-0.200,0.220
3772,-0.195,0.215
3773,-0.215,0.210
3774,-0.235,0.200
3775,-0.235,0.210
3776,-0.225,0.220
3777,-0.215,0.235
3778,-0.200,0.245
3779,-0.200,0.230
3780,-0.205,0.225
3781,-0.220,0.235
3782,-0.215,0.240
3783,-0.205,0.250
3784,-0.185,0.245
3785,-0.185,0.240
3786,-0.185,0.235
3787,-0.180,0.225
3788,-0.185,0.230
3789,-0.170,0.255
3790,-0.150,0.235
3791,-0.150,0.215
3792,-0.160,0.195
3793,-0.155,0.190
3794,-0.155,0.195
3795,-0.135,0.190
3796,-0.110,0.175
3797,-0.105,0.160
3798,-0.115,0.135
3799,-0.150,0.135
3800,-0.135,0.145
3801,-0.140,0.160
3802,-0.140,0.145
3803,-0.135,0.145
3804,-0.150,0.125
3805,-0.165,0.120
3806,-0.175,0.135
3807,-0.175,0.145
3808,-0.165,0.135
3809,-0.175,0.140
3810,-0.180,0.120
3811,-0.195,0.110
3812,-0.200,0.135
3813,-0.190,0.135
3814,-0.190,0.150
3815,-0.200,0.135
3816,-0.200,0.130
3817,-0.215,0.140
3818,-0.205,0.165
3819,-0.195,0.185
3820,-0.200,0.175
3821,-0.200,0.165
3822,-0.235,0.150
3823,-0.265,0.150
3824,-0.270,0.165
3825,-0.250,0.175
3826,-0.230,0.165
3827,-0.240,0.165
3828,-0.235,0.150
3829,-0.260,0.160
3830,-0.250,0.180
3831,-0.255,0.195
3832,-0.245,0.190
3833,-0.265,0.165
3834,-0.270,0.170
3835,-0.300,0.165
3836,-0.295,0.175
3837,-0.265,0.190
3838,-0.245,0.210
3839,-0.250,0.180
3840,-0.265,0.175
3841,-0.285,0.175
3842,-0.280,0.195
3843,-0.270,0.190
3844,-0.260,0.190
3845,-0.255,0.175
3846,-0.280,0.165
3847,-0.275,0.165
3848,-0.275,0.185
3849,-0.260,0.190
3850,-0.250,0.200
3851,-0.245,0.190
3852,-0.260,0.175
3853,-0.270,0.170
3854,-0.265,0.185
3855,-0.255,0.185
3856,-0.250,0.195
3857,-0.250,0.185
3858,-0.270,0.180
3859,-0.260,0.190
3860,-0.250,0.185
3861,-0.225,0.170
3862,-0.200,0.110
3863,-0.175,0.015
3864,-0.160,-0.105
3865,-0.150,-0.215
3866,-0.100,-0.325
3867,-0.040,-0.430
3868,0.045,-0.535
3869,0.090,-0.625
3870,0.155,-0.680
3871,0.185,-0.705
3872,0.180,-0.685
3873,0.170,-0.675
3874,0.130,-0.690
3875,0.040,-0.715
3876,-0.020,-0.695
3877,-0.055,-0.675
3878,-0.030,-0.620
3879,0.045,-0.590
3880,0.180,-0.555
3881,0.290,-0.535
3882,0.420,-0.525
3883,0.530,-0.510
3884,0.655,-0.470
3885,0.735,-0.445
3886,0.775,-0.415
3887,0.700,-0.385
3888,0.585,-0.355
3889,0.460,-0.295
3890,0.365,-0.230
3891,0.285,-0.165
3892,0.210,-0.105
3893,0.090,-0.065
3894,-0.050,-0.010
3895,-0.180,0.035
3896,-0.310,0.130
3897,-0.395,0.195
3898,-0.455,0.250
3899,-0.490,0.260
3900,-0.535,0.270
3901,-0.515,0.285
3902,-0.500,0.300
3903,-0.435,0.330
3904,-0.395,0.340
3905,-0.355,0.340
3906,-0.350,0.340
3907,-0.345,0.360
3908,-0.310,0.375
3909,-0.305,0.385
3910,-0.300,0.400
3911,-0.305,0.395
3912,-0.315,0.375
3913,-0.310,0.360
3914,-0.305,0.375
3915,-0.300,0.395
3916,-0.270,0.405
3917,-0.265,0.390
3918,-0.290,0.390
3919,-0.305,0.390
3920,-0.295,0.410
3921,-0.275,0.410
3922,-0.255,0.420
3923,-0.265,0.425
3924,-0.270,0.400
3925,-0.295,0.415
3926,-0.290,0.430
3927,-0.290,0.435
3928,-0.275,0.445
3929,-0.280,0.445
3930,-0.305,0.425
3931,-0.295,0.435
3932,-0.290,0.445
3933,-0.270,0.460
3934,-0.240,0.470
3935,-0.230,0.455
3936,-0.230,0.455
3937,-0.255,0.465
3938,-0.240,0.465
3939,-0.230,0.485
3940,-0.200,0.485
3941,-0.195,0.495
3942,-0.210,0.490
3943,-0.225,0.485
3944,-0.220,0.500
3945,-0.200,0.515
3946,-0.165,0.525
3947,-0.160,0.520
3948,-0.175,0.505
3949,-0.175,0.505
3950,-0.160,0.525
3951,-0.140,0.540
3952,-0.120,0.545
3953,-0.125,0.535
3954,-0.130,0.525
3955,-0.140,0.515
3956,-0.135,0.525
3957,-0.110,0.530
3958,-0.075,0.530
3959,-0.070,0.520
3960,-0.065,0.505
3961,-0.070,0.495
3962,-0.055,0.495
3963,-0.035,0.510
3964,-0.015,0.480
3965,-0.005,0.465
3966,-0.005,0.435
3967,-0.005,0.410
3968,0.015,0.405
3969,0.030,0.400
3970,0.065,0.360
3971,0.075,0.335
3972,0.070,0.295
3973,0.055,0.275
3974,0.085,0.265
3975,0.110,0.275
3976,0.135,0.255
3977,0.130,0.245
3978,0.145,0.220
3979,0.130,0.215
3980,0.135,0.225
3981,0.165,0.230
3982,0.155,0.225
3983,0.125,0.200
3984,0.095,0.200
3985,0.065,0.200
3986,0.020,0.210
3987,0.020,0.215
3988,0.000,0.215
3989,-0.010,0.200
3990,-0.040,0.175
3991,-0.080,0.185
3992,-0.085,0.190
3993,-0.090,0.205
3994,-0.090,0.200
3995,-0.100,0.175
3996,-0.125,0.165
3997,-0.160,0.175
3998,-0.165,0.180
3999,-0.170,0.190
4000,-0.160,0.195
4001,-0.165,0.190
4002,-0.190,0.160
4003,-0.220,0.170
4004,-0.210,0.195
4005,-0.205,0.200
4006,-0.185,0.200
4007,-0.200,0.185
4008,-0.210,0.170
4009,-0.225,0.190
4010,-0.205,0.180
4011,-0.200,0.190
4012,-0.200,0.200
4013,-0.210,0.190
4014,-0.210,0.175
4015,-0.220,0.185
4016,-0.215,0.195
4017,-0.210,0.205
4018,-0.190,0.210
4019,-0.205,0.190
4020,-0.225,0.180
4021,-0.240,0.185
4022,-0.230,0.195
4023,-0.210,0.205
4024,-0.185,0.210
4025,-0.200,0.210
4026,-0.200,0.195
4027,-0.200,0.190
4028,-0.205,0.200
4029,-0.195,0.215
4030,-0.200,0.215
4031,-0.205,0.205
4032,-0.235,0.195
4033,-0.240,0.200
4034,-0.230,0.200
4035,-0.205,0.215
4036,-0.190,0.215
4037,-0.195,0.195
4038,-0.210,0.195
4039,-0.220,0.195
4040,-0.215,0.210
4041,-0.215,0.220
4042,-0.210,0.225
4043,-0.220,0.215
4044,-0.240,0.195
4045,-0.235,0.205
4046,-0.230,0.200
4047,-0.225,0.220
4048,-0.210,0.220
4049,-0.225,0.205
4050,-0.220,0.195
4051,-0.240,0.190
4052,-0.245,0.200
4053,-0.235,0.200
4054,-0.225,0.195
4055,-0.230,0.185
4056,-0.235,0.190
4057,-0.250,0.175
4058,-0.235,0.195
4059,-0.230,0.200
4060,-0.215,0.195
4061,-0.215,0.185
4062,-0.245,0.165
4063,-0.255,0.180
4064,-0.255,0.185
4065,-0.245,0.190
4066,-0.230,0.195
4067,-0.215,0.180
4068,-0.255,0.170
4069,-0.260,0.175
4070,-0.245,0.170
4071,-0.255,0.185
4072,-0.235,0.175
4073,-0.235,0.175
4074,-0.235,0.155
4075,-0.255,0.160
4076,-0.260,0.170
4077,-0.265,0.175
4078,-0.250,0.175
4079,-0.250,0.170
4080,-0.270,0.165
4081,-0.275,0.170
4082,-0.255,0.175
4083,-0.265,0.200
4084,-0.235,0.190
4085,-0.225,0.195
4086,-0.235,0.185
4087,-0.250,0.195
4088,-0.255,0.205
4089,-0.230,0.225
4090,-0.200,0.220
4091,-0.205,0.205
4092,-0.215,0.190
4093,-0.225,0.200
4094,-0.220,0.200
4095,-0.215,0.220
4096,-0.190,0.235
4097,-0.185,0.205
4098,-0.195,0.185
4099,-0.195,0.170
4100,-0.195,0.170
4101,-0.170,0.175
4102,-0.140,0.175
4103,-0.155,0.160
4104,-0.150,0.130
4105,-0.175,0.125
4106,-0.165,0.135
4107,-0.155,0.140
4108,-0.145,0.120
4109,-0.160,0.115
4110,-0.190,0.095
4111,-0.205,0.095
4112,-0.215,0.110
4113,-0.200,0.115
4114,-0.185,0.110
4115,-0.195,0.110
4116,-0.210,0.095
4117,-0.225,0.080
4118,-0.220,0.100
4119,-0.215,0.105
4120,-0.215,0.110
4121,-0.230,0.095
4122,-0.255,0.085
4123,-0.265,0.095
4124,-0.270,0.115
4125,-0.265,0.130
4126,-0.235,0.140
4127,-0.240,0.140
4128,-0.260,0.130
4129,-0.280,0.125
4130,-0.305,0.140
4131,-0.285,0.155
4132,-0.270,0.150
4133,-0.270,0.145
4134,-0.275,0.135
4135,-0.290,0.135
4136,-0.285,0.155
4137,-0.285,0.165
4138,-0.275,0.160
4139,-0.285,0.160
4140,-0.295,0.135
4141,-0.295,0.145
4142,-0.300,0.165
4143,-0.275,0.165
4144,-0.270,0.160
4145,-0.285,0.155
4146,-0.300,0.135
4147,-0.310,0.140
4148,-0.320,0.145
4149,-0.290,0.155
4150,-0.290,0.170
4151,-0.295,0.150
4152,-0.305,0.130
4153,-0.320,0.140
4154,-0.305,0.145
4155,-0.310,0.155
4156,-0.285,0.145
4157,-0.290,0.145
4158,-0.310,0.125
4159,-0.310,0.125
4160,-0.320,0.135
4161,-0.305,0.145
4162,-0.280,0.140
4163,-0.290,0.130
4164,-0.295,0.105
4165,-0.295,0.115
4166,-0.290,0.130
4167,-0.285,0.135
4168,-0.255,0.135
4169,-0.255,0.105
4170,-0.245,0.045
4171,-0.240,-0.035
4172,-0.220,-0.115
4173,-0.200,-0.235
4174,-0.140,-0.335
4175,-0.090,-0.475
4176,-0.050,-0.580
4177,0.020,-0.655
4178,0.075,-0.705
4179,0.105,-0.720
4180,0.135,-0.720
4181,0.100,-0.740
4182,0.030,-0.765
4183,-0.055,-0.785
4184,-0.110,-0.765
4185,-0.135,-0.715
4186,-0.080,-0.665
4187,-0.005,-0.660
4188,0.095,-0.625
4189,0.230,-0.595
4190,0.360,-0.565
4191,0.500,-0.555
4192,0.625,-0.520
4193,0.695,-0.525
4194,0.690,-0.510
4195,0.630,-0.490
4196,0.530,-0.420
4197,0.435,-0.350
4198,0.345,-0.295
4199,0.260,-0.245
4200,0.135,-0.210
4201,-0.010,-0.150
4202,-0.135,-0.080
4203,-0.255,-0.005
4204,-0.365,0.060
4205,-0.455,0.115
4206,-0.530,0.150
4207,-0.570,0.190
4208,-0.585,0.235
4209,-0.565,0.250
4210,-0.530,0.275
4211,-0.490,0.275
4212,-0.465,0.275
4213,-0.430,0.280
4214,-0.395,0.280
4215,-0.365,0.305
4216,-0.340,0.305
4217,-0.335,0.310
4218,-0.350,0.315
4219,-0.370,0.310
4220,-0.370,0.320
4221,-0.350,0.335
4222,-0.320,0.335
4223,-0.335,0.330
4224,-0.340,0.330
4225,-0.345,0.330
4226,-0.345,0.340
4227,-0.330,0.350
4228,-0.330,0.345
4229,-0.310,0.340
4230,-0.325,0.330
4231,-0.330,0.340
4232,-0.325,0.360
4233,-0.310,0.370
4234,-0.300,0.375
4235,-0.315,0.365
4236,-0.320,0.365
4237,-0.340,0.375
4238,-0.310,0.365
4239,-0.320,0.390
4240,-0.295,0.400
4241,-0.285,0.380
4242,-0.300,0.380
4243,-0.305,0.385
4244,-0.295,0.410
4245,-0.280,0.425
4246,-0.265,0.425
4247,-0.265,0.420
4248,-0.275,0.415
4249,-0.275,0.425
4250,-0.265,0.440
4251,-0.250,0.450
4252,-0.220,0.450
4253,-0.225,0.445
4254,-0.240,0.445
4255,-0.225,0.445
4256,-0.215,0.460
4257,-0.195,0.480
4258,-0.175,0.475
4259,-0.165,0.460
4260,-0.170,0.455
4261,-0.170,0.465
4262,-0.150,0.465
4263,-0.140,0.470
4264,-0.095,0.480
4265,-0.100,0.445
4266,-0.100,0.430
4267,-0.095,0.430
4268,-0.070,0.435
4269,-0.050,0.435
4270,-0.025,0.405
4271,-0.020,0.380
4272,-0.025,0.355
4273,-0.025,0.330
4274,-0.020,0.315
4275,-0.010,0.320
4276,0.020,0.300
4277,0.030,0.265
4278,0.035,0.235
4279,0.045,0.225
4280,0.060,0.210
4281,0.080,0.215
4282,0.100,0.195
4283,0.100,0.170
4284,0.100,0.165
4285,0.080,0.145
4286,0.085,0.160
4287,0.080,0.165
4288,0.070,0.175
4289,0.045,0.140
4290,0.025,0.120
4291,-0.010,0.120
4292,-0.040,0.115
4293,-0.045,0.140
4294,-0.050,0.135
4295,-0.075,0.125
4296,-0.115,0.125
4297,-0.150,0.105
4298,-0.160,0.120
4299,-0.175,0.140
4300,-0.180,0.140
4301,-0.180,0.130
4302,-0.200,0.120
4303,-0.220,0.120
4304,-0.220,0.115
4305,-0.215,0.130
4306,-0.205,0.135
4307,-0.220,0.125
4308,-0.245,0.110
4309,-0.270,0.100
4310,-0.265,0.120
4311,-0.260,0.130
4312,-0.250,0.135
4313,-0.260,0.130
4314,-0.270,0.125
4315,-0.280,0.110
4316,-0.295,0.125
4317,-0.275,0.135
4318,-0.260,0.145
4319,-0.270,0.130
4320,-0.260,0.125
4321,-0.295,0.115
4322,-0.280,0.125
4323,-0.275,0.145
4324,-0.250,0.145
4325,-0.255,0.135
4326,-0.275,0.110
4327,-0.285,0.120
4328,-0.285,0.135
4329,-0.280,0.150
4330,-0.255,0.150
4331,-0.255,0.140
4332,-0.265,0.130
4333,-0.285,0.130
4334,-0.305,0.140
4335,-0.295,0.160
4336,-0.255,0.155
4337,-0.270,0.145
4338,-0.295,0.130
4339,-0.290,0.135
4340,-0.295,0.150
4341,-0.280,0.165
4342,-0.285,0.165
4343,-0.290,0.140
4344,-0.295,0.135
4345,-0.320,0.140
4346,-0.320,0.150
4347,-0.305,0.145
4348,-0.310,0.145
4349,-0.310,0.145
4350,-0.315,0.135
4351,-0.325,0.130
4352,-0.320,0.135
4353,-0.300,0.135
4354,-0.285,0.135
4355,-0.300,0.140
4356,-0.310,0.125
4357,-0.330,0.115
4358,-0.335,0.135
4359,-0.315,0.135
4360,-0.300,0.145
4361,-0.305,0.135
4362,-0.320,0.120
4363,-0.345,0.120
4364,-0.345,0.120
4365,-0.320,0.130
4366,-0.325,0.140
4367,-0.330,0.130
4368,-0.345,0.115
4369,-0.355,0.105
4370,-0.360,0.125
4371,-0.345,0.125
4372,-0.325,0.125
4373,-0.315,0.115
4374,-0.325,0.100
4375,-0.350,0.100
4376,-0.345,0.110
4377,-0.330,0.130
4378,-0.320,0.115
4379,-0.340,0.125
4380,-0.340,0.100
4381,-0.350,0.105
4382,-0.335,0.115
4383,-0.335,0.115
4384,-0.335,0.125
4385,-0.335,0.125
4386,-0.340,0.115
4387,-0.350,0.110
4388,-0.355,0.145
4389,-0.345,0.150
4390,-0.335,0.150
4391,-0.345,0.145
4392,-0.350,0.145
4393,-0.335,0.135
4394,-0.345,0.155
4395,-0.320,0.175
4396,-0.310,0.170
4397,-0.310,0.155
4398,-0.315,0.135
4399,-0.330,0.110
4400,-0.320,0.120
4401,-0.295,0.130
4402,-0.275,0.115
4403,-0.270,0.110
4404,-0.270,0.080
4405,-0.290,0.065
4406,-0.285,0.080
4407,-0.270,0.075
4408,-0.270,0.080
4409,-0.275,0.055
4410,-0.320,0.045
4411,-0.330,0.035
4412,-0.305,0.050
4413,-0.305,0.055
4414,-0.300,0.050
4415,-0.310,0.035
4416,-0.335,0.035
4417,-0.340,0.025
4418,-0.345,0.040
4419,-0.340,0.055
4420,-0.325,0.050
4421,-0.335,0.045
4422,-0.355,0.025
4423,-0.380,0.035
4424,-0.380,0.055
4425,-0.380,0.075
4426,-0.365,0.090
4427,-0.370,0.085
4428,-0.390,0.085
4429,-0.405,0.065
4430,-0.415,0.085
4431,-0.425,0.090
4432,-0.410,0.090
4433,-0.405,0.095
4434,-0.420,0.090
4435,-0.435,0.080
4436,-0.435,0.085
4437,-0.435,0.080
4438,-0.415,0.095
4439,-0.415,0.085
4440,-0.425,0.080
4441,-0.435,0.075
4442,-0.440,0.100
4443,-0.435,0.110
4444,-0.435,0.105
4445,-0.440,0.085
4446,-0.445,0.085
4447,-0.455,0.070
4448,-0.445,0.085
4449,-0.430,0.105
4450,-0.425,0.095
4451,-0.425,0.090
4452,-0.430,0.080
4453,-0.435,0.080
4454,-0.450,0.080
4455,-0.445,0.095
4456,-0.415,0.095
4457,-0.420,0.095
4458,-0.430,0.085
4459,-0.435,0.080
4460,-0.455,0.085
4461,-0.435,0.095
4462,-0.415,0.095
4463,-0.420,0.090
4464,-0.430,0.070
4465,-0.430,0.080
4466,-0.425,0.080
4467,-0.400,0.095
4468,-0.380,0.070
4469,-0.355,0.020
4470,-0.345,-0.065
4471,-0.335,-0.170
4472,-0.310,-0.270
4473,-0.255,-0.375
4474,-0.185,-0.485
4475,-0.110,-0.615
4476,-0.065,-0.710
4477,-0.030,-0.785
4478,-0.010,-0.815
4479,-0.005,-0.815
4480,-0.020,-0.800
4481,-0.105,-0.825
4482,-0.225,-0.865
4483,-0.325,-0.850
4484,-0.370,-0.805
4485,-0.340,-0.750
4486,-0.245,-0.710
4487,-0.130,-0.690
4488,-0.005,-0.675
4489,0.130,-0.655
4490,0.255,-0.615
4491,0.360,-0.590
4492,0.430,-0.560
4493,0.450,-0.550
4494,0.385,-0.540
4495,0.270,-0.485
4496,0.170,-0.415
4497,0.090,-0.345
4498,0.005,-0.290
4499,-0.095,-0.225
4500,-0.195,-0.200
4501,-0.295,-0.140
4502,-0.395,-0.080
4503,-0.470,-0.015
4504,-0.530,0.045
4505,-0.595,0.080
4506,-0.650,0.120
4507,-0.690,0.140
4508,-0.695,0.175
4509,-0.675,0.215
4510,-0.630,0.225
4511,-0.600,0.220
4512,-0.560,0.210
4513,-0.540,0.235
4514,-0.525,0.245
4515,-0.500,0.265
4516,-0.495,0.265
4517,-0.505,0.270
4518,-0.510,0.260
4519,-0.515,0.255
4520,-0.505,0.280
4521,-0.485,0.295
4522,-0.470,0.290
4523,-0.470,0.285
4524,-0.505,0.280
4525,-0.520,0.275
4526,-0.525,0.295
4527,-0.500,0.305
4528,-0.485,0.310
4529,-0.480,0.300
4530,-0.480,0.295
4531,-0.485,0.300
4532,-0.480,0.320
4533,-0.475,0.330
4534,-0.465,0.345
4535,-0.460,0.330
4536,-0.480,0.330
4537,-0.480,0.320
4538,-0.485,0.340
4539,-0.460,0.360
4540,-0.445,0.365
4541,-0.450,0.355
4542,-0.445,0.360
4543,-0.445,0.365
4544,-0.425,0.375
4545,-0.410,0.380
4546,-0.390,0.395
4547,-0.390,0.395
4548,-0.395,0.385
4549,-0.405,0.390
4550,-0.385,0.395
4551,-0.375,0.405
4552,-0.340,0.410
4553,-0.330,0.415
4554,-0.345,0.405
4555,-0.335,0.395
4556,-0.320,0.415
4557,-0.315,0.430
4558,-0.285,0.430
4559,-0.270,0.430
4560,-0.270,0.405
4561,-0.270,0.400
4562,-0.250,0.405
4563,-0.235,0.415
4564,-0.220,0.400
4565,-0.200,0.385
4566,-0.195,0.360
4567,-0.195,0.345
4568,-0.185,0.345
4569,-0.165,0.335
4570,-0.140,0.330
4571,-0.130,0.290
4572,-0.130,0.250
4573,-0.115,0.230
4574,-0.125,0.210
4575,-0.095,0.205
4576,-0.065,0.195
4577,-0.055,0.170
4578,-0.055,0.130
4579,-0.050,0.125
4580,-0.050,0.125
4581,-0.030,0.125
4582,-0.045,0.120
4583,-0.045,0.105
4584,-0.055,0.085
4585,-0.085,0.080
4586,-0.110,0.090
4587,-0.120,0.095
4588,-0.145,0.085
4589,-0.165,0.085
4590,-0.210,0.065
4591,-0.245,0.055
4592,-0.265,0.065
4593,-0.270,0.075
4594,-0.285,0.070
4595,-0.300,0.060
4596,-0.315,0.050
4597,-0.345,0.040
4598,-0.360,0.055
4599,-0.360,0.065
4600,-0.355,0.065
4601,-0.350,0.060
4602,-0.375,0.045
4603,-0.395,0.045
4604,-0.400,0.065
4605,-0.385,0.060
4606,-0.385,0.070
4607,-0.380,0.070
4608,-0.405,0.055
4609,-0.420,0.045
4610,-0.420,0.060
4611,-0.405,0.070
4612,-0.405,0.080
4613,-0.400,0.075
4614,-0.405,0.050
4615,-0.395,0.040
4616,-0.400,0.055
4617,-0.400,0.080
4618,-0.380,0.075
4619,-0.370,0.075
4620,-0.390,0.060
4621,-0.405,0.045
4622,-0.410,0.050
4623,-0.390,0.065
4624,-0.365,0.070
4625,-0.375,0.075
4626,-0.370,0.075
4627,-0.390,0.070
4628,-0.390,0.080
4629,-0.380,0.095
4630,-0.350,0.090
4631,-0.355,0.075
4632,-0.365,0.060
4633,-0.380,0.065
4634,-0.385,0.070
4635,-0.370,0.080
4636,-0.365,0.080
4637,-0.360,0.085
4638,-0.370,0.075
4639,-0.375,0.065
4640,-0.390,0.085
4641,-0.375,0.090
4642,-0.355,0.100
4643,-0.365,0.080
4644,-0.365,0.070
4645,-0.375,0.070
4646,-0.375,0.075
4647,-0.360,0.080
4648,-0.350,0.085
4649,-0.355,0.085
4650,-0.370,0.060
4651,-0.370,0.050
4652,-0.375,0.055
4653,-0.355,0.065
4654,-0.345,0.065
4655,-0.345,0.060
4656,-0.375,0.050
4657,-0.375,0.060
4658,-0.390,0.055
4659,-0.360,0.070
4660,-0.350,0.070
4661,-0.355,0.050
4662,-0.370,0.035
4663,-0.370,0.045
4664,-0.385,0.050
4665,-0.360,0.065
4666,-0.350,0.070
4667,-0.340,0.060
4668,-0.355,0.045
4669,-0.370,0.055
4670,-0.370,0.060
4671,-0.355,0.070
4672,-0.345,0.065
4673,-0.345,0.055
4674,-0.355,0.045
4675,-0.365,0.045
4676,-0.360,0.070
4677,-0.355,0.085
4678,-0.345,0.100
4679,-0.345,0.090
4680,-0.345,0.075
4681,-0.345,0.080
4682,-0.350,0.090
4683,-0.325,0.100
4684,-0.295,0.120
4685,-0.290,0.110
4686,-0.300,0.100
4687,-0.320,0.100
4688,-0.320,0.105
4689,-0.295,0.125
4690,-0.280,0.120
4691,-0.270,0.095
4692,-0.270,0.065
4693,-0.295,0.055
4694,-0.280,0.045
4695,-0.250,0.055
4696,-0.235,0.050
4697,-0.235,0.035
4698,-0.240,0.020
4699,-0.255,-0.005
4700,-0.270,0.010
4701,-0.255,0.020
4702,-0.255,0.015
4703,-0.270,0.005
4704,-0.280,-0.025
4705,-0.300,-0.015
4706,-0.305,-0.005
4707,-0.295,0.000
4708,-0.280,0.010
4709,-0.290,0.000
4710,-0.290,-0.010
4711,-0.330,-0.020
4712,-0.320,0.005
4713,-0.320,0.010
4714,-0.300,0.015
4715,-0.300,0.000
4716,-0.320,-0.005
4717,-0.340,0.000
4718,-0.340,0.030
4719,-0.335,0.045
4720,-0.320,0.060
4721,-0.330,0.040
4722,-0.350,0.025
4723,-0.360,0.015
4724,-0.365,0.025
4725,-0.350,0.050
4726,-0.330,0.045
4727,-0.325,0.045
4728,-0.350,0.040
4729,-0.370,0.020
4730,-0.375,0.035
4731,-0.355,0.040
4732,-0.330,0.045
4733,-0.340,0.045
4734,-0.355,0.035
4735,-0.375,0.020
4736,-0.390,0.030
4737,-0.375,0.040
4738,-0.360,0.045
4739,-0.340,0.045
4740,-0.355,0.030
4741,-0.365,0.030
4742,-0.375,0.035
4743,-0.375,0.045
4744,-0.340,0.055
4745,-0.340,0.045
4746,-0.350,0.040
4747,-0.370,0.025
4748,-0.370,0.030
4749,-0.355,0.050
4750,-0.345,0.055
4751,-0.355,0.050
4752,-0.355,0.025
4753,-0.365,0.030
4754,-0.370,0.030
4755,-0.340,0.035
4756,-0.330,0.045
4757,-0.330,0.040
4758,-0.340,0.015
4759,-0.360,0.020
4760,-0.345,0.005
4761,-0.315,-0.020
4762,-0.275,-0.090
4763,-0.250,-0.195
4764,-0.245,-0.315
4765,-0.220,-0.445
4766,-0.160,-0.575
4767,-0.080,-0.665
4768,-0.005,-0.760
4769,0.065,-0.840
4770,0.110,-0.880
4771,0.135,-0.900
4772,0.130,-0.875
4773,0.115,-0.870
4774,0.075,-0.885
4775,0.005,-0.890
4776,-0.060,-0.865
4777,-0.075,-0.835
4778,-0.025,-0.790
4779,0.085,-0.745
4780,0.220,-0.695
4781,0.345,-0.700
4782,0.475,-0.690
4783,0.555,-0.660
4784,0.635,-0.645
4785,0.680,-0.610
4786,0.655,-0.580
4787,0.565,-0.535
4788,0.435,-0.495
4789,0.330,-0.430
4790,0.255,-0.360
4791,0.175,-0.300
4792,0.095,-0.240
4793,-0.010,-0.195
4794,-0.145,-0.145
4795,-0.270,-0.090
4796,-0.365,-0.035
4797,-0.435,0.035
4798,-0.485,0.090
4799,-0.525,0.130
4800,-0.565,0.135
4801,-0.585,0.160
4802,-0.575,0.190
4803,-0.540,0.200
4804,-0.475,0.215
4805,-0.465,0.205
4806,-0.430,0.210
4807,-0.430,0.215
4808,-0.425,0.225
4809,-0.405,0.245
4810,-0.395,0.265
4811,-0.390,0.255
4812,-0.400,0.245
4813,-0.405,0.260
4814,-0.405,0.260
4815,-0.415,0.265
4816,-0.380,0.265
4817,-0.375,0.270
4818,-0.390,0.260
4819,-0.415,0.260
4820,-0.415,0.265
4821,-0.380,0.285
4822,-0.375,0.285
4823,-0.380,0.285
4824,-0.390,0.280
4825,-0.405,0.275
4826,-0.395,0.285
4827,-0.390,0.300
4828,-0.365,0.310
4829,-0.370,0.305
4830,-0.380,0.295
4831,-0.395,0.305
4832,-0.385,0.310
4833,-0.365,0.315
4834,-0.355,0.340
4835,-0.355,0.320
4836,-0.355,0.325
4837,-0.365,0.320
4838,-0.360,0.350
4839,-0.350,0.360
4840,-0.330,0.365
4841,-0.320,0.375
4842,-0.315,0.360
4843,-0.340,0.365
4844,-0.335,0.375
4845,-0.315,0.385
4846,-0.310,0.400
4847,-0.290,0.415
4848,-0.300,0.390
4849,-0.305,0.395
4850,-0.300,0.400
4851,-0.280,0.415
4852,-0.250,0.425
4853,-0.245,0.415
4854,-0.250,0.415
4855,-0.260,0.415
4856,-0.245,0.415
4857,-0.225,0.435
4858,-0.215,0.430
4859,-0.205,0.415
4860,-0.215,0.400
4861,-0.190,0.390
4862,-0.185,0.405
4863,-0.165,0.395
4864,-0.140,0.390
4865,-0.125,0.370
4866,-0.130,0.330
4867,-0.130,0.325
4868,-0.125,0.310
4869,-0.105,0.305
4870,-0.085,0.300
4871,-0.075,0.260
4872,-0.065,0.240
4873,-0.065,0.210
4874,-0.045,0.195
4875,-0.030,0.195
4876,0.000,0.180
4877,0.015,0.150
4878,0.010,0.130
4879,0.020,0.105
4880,0.015,0.105
4881,0.040,0.105
4882,0.070,0.105
4883,0.055,0.090
4884,0.045,0.075
4885,0.020,0.070
4886,0.000,0.080
4887,-0.005,0.075
4888,-0.005,0.095
4889,-0.030,0.065
4890,-0.060,0.060
4891,-0.095,0.060
4892,-0.105,0.060
4893,-0.125,0.075
4894,-0.120,0.080
4895,-0.145,0.070
4896,-0.170,0.045
4897,-0.190,0.045
4898,-0.200,0.055
4899,-0.210,0.070
4900,-0.210,0.070
4901,-0.235,0.070
4902,-0.240,0.055
4903,-0.250,0.035
4904,-0.260,0.050
4905,-0.255,0.065
4906,-0.245,0.075
4907,-0.245,0.055
4908,-0.270,0.050
4909,-0.275,0.035
4910,-0.275,0.055
4911,-0.280,0.070
4912,-0.255,0.060
4913,-0.260,0.050
4914,-0.270,0.045
4915,-0.290,0.040
4916,-0.285,0.050
4917,-0.280,0.075
4918,-0.285,0.075
4919,-0.275,0.060
4920,-0.265,0.055
4921,-0.285,0.050
4922,-0.270,0.055
4923,-0.265,0.075
4924,-0.250,0.090
4925,-0.255,0.070
4926,-0.270,0.060
4927,-0.280,0.060
4928,-0.280,0.065
4929,-0.275,0.085
4930,-0.245,0.095
4931,-0.250,0.090
4932,-0.265,0.070
4933,-0.280,0.080
4934,-0.270,0.085
4935,-0.255,0.095
4936,-0.255,0.090
4937,-0.245,0.075
4938,-0.260,0.085
4939,-0.280,0.080
4940,-0.270,0.085
4941,-0.260,0.090
4942,-0.240,0.105
4943,-0.255,0.085
4944,-0.260,0.080
4945,-0.280,0.080
4946,-0.280,0.080
4947,-0.280,0.095
4948,-0.250,0.095
4949,-0.250,0.080
4950,-0.275,0.070
4951,-0.290,0.080
4952,-0.270,0.085
4953,-0.265,0.090
4954,-0.250,0.085
4955,-0.260,0.080
4956,-0.270,0.080
4957,-0.285,0.065
4958,-0.290,0.075
4959,-0.265,0.085
4960,-0.265,0.100
4961,-0.265,0.085
4962,-0.270,0.065
4963,-0.280,0.070
4964,-0.285,0.070
4965,-0.290,0.070
4966,-0.265,0.090
4967,-0.255,0.075
4968,-0.270,0.060
4969,-0.280,0.055
4970,-0.290,0.065
4971,-0.285,0.075
4972,-0.270,0.085
4973,-0.275,0.065
4974,-0.275,0.055
4975,-0.285,0.045
4976,-0.285,0.060
4977,-0.285,0.065
4978,-0.260,0.075
4979,-0.265,0.075
4980,-0.270,0.045
4981,-0.285,0.050
4982,-0.290,0.050
4983,-0.280,0.065
4984,-0.275,0.075
4985,-0.280,0.065
4986,-0.290,0.055
4987,-0.290,0.045
4988,-0.290,0.070
4989,-0.295,0.100
4990,-0.260,0.100
4991,-0.270,0.095
4992,-0.280,0.095
4993,-0.295,0.090
4994,-0.285,0.100
4995,-0.265,0.110
4996,-0.230,0.110
4997,-0.240,0.110
4998,-0.260,0.095
4999,-0.260,0.100
5000,-0.230,0.120
5001,-0.235,0.120
5002,-0.205,0.110
5003,-0.205,0.090
5004,-0.210,0.060
5005,-0.230,0.040
5006,-0.225,0.055
5007,-0.195,0.060
5008,-0.175,0.060
5009,-0.170,0.050
5010,-0.190,0.035
5011,-0.205,0.015
5012,-0.215,0.030
5013,-0.195,0.035
5014,-0.190,0.030
5015,-0.200,0.015
5016,-0.215,-0.005
5017,-0.215,-0.005
5018,-0.245,0.005
5019,-0.235,0.020
5020,-0.220,0.020
5021,-0.225,0.010
5022,-0.250,-0.005
5023,-0.255,-0.005
5024,-0.250,0.000
5025,-0.250,0.010
5026,-0.255,0.005
5027,-0.235,-0.005
5028,-0.260,-0.005
5029,-0.280,-0.005
5030,-0.285,0.010
5031,-0.275,0.025
5032,-0.250,0.055
5033,-0.250,0.045
5034,-0.275,0.025
5035,-0.295,0.035
5036,-0.310,0.045
5037,-0.300,0.045
5038,-0.295,0.060
5039,-0.290,0.050
5040,-0.295,0.035
5041,-0.305,0.040
5042,-0.310,0.045
5043,-0.305,0.050
5044,-0.300,0.065
5045,-0.315,0.055
5046,-0.330,0.050
5047,-0.340,0.050
5048,-0.320,0.050
5049,-0.320,0.055
5050,-0.300,0.065
5051,-0.310,0.050
5052,-0.315,0.040
5053,-0.325,0.045
5054,-0.340,0.050
5055,-0.330,0.070
5056,-0.305,0.065
5057,-0.300,0.065
5058,-0.320,0.050
5059,-0.335,0.035
5060,-0.335,0.055
5061,-0.315,0.065
5062,-0.315,0.065
5063,-0.305,0.055
5064,-0.310,0.035
5065,-0.315,0.030
5066,-0.320,0.045
5067,-0.315,0.055
5068,-0.300,0.060
5069,-0.295,0.045
5070,-0.310,0.030
5071,-0.325,0.030
5072,-0.310,0.040
5073,-0.295,0.050
5074,-0.275,0.050
5075,-0.270,0.030
5076,-0.265,-0.025
5077,-0.265,-0.105
5078,-0.250,-0.190
5079,-0.230,-0.305
5080,-0.160,-0.410
5081,-0.120,-0.565
5082,-0.065,-0.690
5083,-0.030,-0.805
5084,0.055,-0.880
5085,0.120,-0.900
5086,0.175,-0.915
5087,0.195,-0.915
5088,0.165,-0.925
5089,0.105,-0.950
5090,0.040,-0.940
5091,-0.005,-0.920
5092,-0.025,-0.865
5093,0.005,-0.820
5094,0.065,-0.795
5095,0.165,-0.775
5096,0.300,-0.730
5097,0.455,-0.690
5098,0.575,-0.665
5099,0.660,-0.665
5100,0.705,-0.640
5101,0.690,-0.605
5102,0.620,-0.565
5103,0.510,-0.485
5104,0.425,-0.420
5105,0.340,-0.370
5106,0.250,-0.335
5107,0.125,-0.280
5108,0.030,-0.210
5109,-0.080,-0.140
5110,-0.195,-0.085
5111,-0.300,-0.020
5112,-0.395,0.020
5113,-0.485,0.075
5114,-0.530,0.125
5115,-0.540,0.165
5116,-0.535,0.195
5117,-0.515,0.200
5118,-0.485,0.190
5119,-0.455,0.195
5120,-0.440,0.220
5121,-0.400,0.225
5122,-0.380,0.240
5123,-0.370,0.245
5124,-0.370,0.235
5125,-0.385,0.230
5126,-0.385,0.250
5127,-0.365,0.270
5128,-0.350,0.280
5129,-0.360,0.275
5130,-0.370,0.270
5131,-0.370,0.255
5132,-0.375,0.275
5133,-0.355,0.285
5134,-0.335,0.300
5135,-0.340,0.290
5136,-0.335,0.280
5137,-0.350,0.280
5138,-0.350,0.295
5139,-0.350,0.300
5140,-0.325,0.320
5141,-0.335,0.320
5142,-0.340,0.300
5143,-0.350,0.305
5144,-0.355,0.320
5145,-0.320,0.330
5146,-0.320,0.340
5147,-0.300,0.335
5148,-0.320,0.335
5149,-0.335,0.330
5150,-0.335,0.345
5151,-0.320,0.365
5152,-0.310,0.375
5153,-0.295,0.375
5154,-0.290,0.365
5155,-0.295,0.360
5156,-0.305,0.385
5157,-0.280,0.395
5158,-0.250,0.405
5159,-0.255,0.400
5160,-0.250,0.395
5161,-0.255,0.400
5162,-0.250,0.410
5163,-0.240,0.400
5164,-0.225,0.420
5165,-0.220,0.420
5166,-0.215,0.420
5167,-0.230,0.420
5168,-0.210,0.435
5169,-0.165,0.460
5170,-0.140,0.470
5171,-0.120,0.460
5172,-0.120,0.440
5173,-0.130,0.445
5174,-0.140,0.450
5175,-0.120,0.445
5176,-0.120,0.445
5177,-0.115,0.430
5178,-0.120,0.410
5179,-0.125,0.400
5180,-0.125,0.390
5181,-0.080,0.380
5182,-0.050,0.370
5183,-0.050,0.355
5184,-0.030,0.320
5185,-0.035,0.300
5186,-0.025,0.280
5187,-0.015,0.275
5188,0.005,0.255
5189,0.025,0.225
5190,0.050,0.195
5191,0.045,0.155
5192,0.040,0.150
5193,0.080,0.165
5194,0.095,0.140
5195,0.100,0.115
5196,0.090,0.105
5197,0.085,0.090
5198,0.085,0.090
5199,0.090,0.100
5200,0.095,0.095
5201,0.085,0.090
5202,0.055,0.065
5203,0.030,0.060
5204,0.000,0.070
5205,-0.010,0.075
5206,-0.015,0.075
5207,-0.025,0.075
5208,-0.075,0.050
5209,-0.095,0.045
5210,-0.115,0.065
5211,-0.120,0.065
5212,-0.115,0.070
5213,-0.135,0.055
5214,-0.155,0.030
5215,-0.170,0.040
5216,-0.180,0.050
5217,-0.185,0.050
5218,-0.200,0.060
5219,-0.195,0.035
5220,-0.200,0.045
5221,-0.220,0.045
5222,-0.230,0.045
5223,-0.235,0.050
5224,-0.210,0.060
5225,-0.220,0.055
5226,-0.230,0.040
5227,-0.245,0.050
5228,-0.270,0.045
5229,-0.240,0.065
5230,-0.225,0.065
5231,-0.240,0.055
5232,-0.245,0.055
5233,-0.255,0.040
5234,-0.260,0.060
5235,-0.265,0.065
5236,-0.230,0.075
5237,-0.230,0.065
5238,-0.245,0.060
5239,-0.255,0.045
5240,-0.245,0.055
5241,-0.245,0.060
5242,-0.220,0.070
5243,-0.235,0.065
5244,-0.250,0.060
5245,-0.260,0.050
5246,-0.280,0.055
5247,-0.240,0.075
5248,-0.230,0.085
5249,-0.235,0.075
5250,-0.255,0.065
5251,-0.260,0.065
5252,-0.265,0.070
5253,-0.260,0.075
5254,-0.240,0.105
5255,-0.240,0.075
5256,-0.245,0.080
5257,-0.260,0.075
5258,-0.265,0.075
5259,-0.260,0.100
5260,-0.250,0.090
5261,-0.240,0.085
5262,-0.240,0.075
5263,-0.265,0.065
5264,-0.265,0.070
5265,-0.265,0.095
5266,-0.245,0.090
5267,-0.260,0.090
5268,-0.260,0.075
5269,-0.260,0.055
5270,-0.280,0.075
5271,-0.275,0.085
5272,-0.250,0.080
5273,-0.250,0.075
5274,-0.250,0.070
5275,-0.270,0.060
5276,-0.270,0.070
5277,-0.250,0.075
5278,-0.245,0.090
5279,-0.250,0.075
5280,-0.260,0.065
5281,-0.255,0.055
5282,-0.270,0.065
5283,-0.255,0.080
5284,-0.240,0.085
5285,-0.245,0.070
5286,-0.265,0.060
5287,-0.270,0.050
5288,-0.280,0.065
5289,-0.270,0.075
5290,-0.255,0.080
5291,-0.250,0.080
5292,-0.255,0.060
5293,-0.265,0.050
5294,-0.275,0.060
5295,-0.265,0.075
5296,-0.260,0.080
5297,-0.265,0.075
5298,-0.265,0.055
5299,-0.270,0.045
5300,-0.275,0.050
5301,-0.260,0.070
5302,-0.250,0.085
5303,-0.250,0.075
5304,-0.270,0.070
5305,-0.285,0.060
5306,-0.290,0.065
5307,-0.275,0.100
5308,-0.265,0.105
5309,-0.255,0.105
5310,-0.275,0.105
5311,-0.295,0.090
5312,-0.295,0.105
5313,-0.265,0.110
5314,-0.245,0.115
5315,-0.225,0.110
5316,-0.230,0.110
5317,-0.240,0.110
5318,-0.245,0.115
5319,-0.235,0.130
5320,-0.210,0.125
5321,-0.210,0.110
5322,-0.225,0.090
5323,-0.235,0.065
5324,-0.225,0.070
5325,-0.200,0.075
5326,-0.190,0.080
5327,-0.185,0.060
5328,-0.185,0.045
5329,-0.195,0.040
5330,-0.195,0.035
5331,-0.200,0.040
5332,-0.195,0.025
5333,-0.200,0.040
5334,-0.210,0.005
5335,-0.230,0.000
5336,-0.225,0.010
5337,-0.215,0.020
5338,-0.230,0.035
5339,-0.225,0.020
5340,-0.245,0.005
5341,-0.260,0.000
5342,-0.275,0.010
5343,-0.260,0.020
5344,-0.255,0.020
5345,-0.270,0.025
5346,-0.275,0.000
5347,-0.295,0.010
5348,-0.295,0.015
5349,-0.285,0.045
5350,-0.280,0.060
5351,-0.280,0.060
5352,-0.285,0.050
5353,-0.305,0.050
5354,-0.325,0.050
5355,-0.305,0.080
5356,-0.290,0.065
5357,-0.300,0.065
5358,-0.300,0.045
5359,-0.325,0.045
5360,-0.335,0.050
5361,-0.320,0.085
5362,-0.305,0.080
5363,-0.290,0.075
5364,-0.310,0.065
5365,-0.325,0.065
5366,-0.335,0.075
5367,-0.300,0.080
5368,-0.305,0.085
5369,-0.310,0.075
5370,-0.320,0.060
5371,-0.325,0.065
5372,-0.325,0.060
5373,-0.325,0.075
5374,-0.310,0.080
5375,-0.315,0.075
5376,-0.310,0.055
5377,-0.335,0.045
5378,-0.335,0.065
5379,-0.310,0.075
5380,-0.300,0.080
5381,-0.310,0.070
5382,-0.320,0.060
5383,-0.330,0.060
5384,-0.345,0.065
5385,-0.315,0.080
5386,-0.295,0.075
5387,-0.300,0.060
5388,-0.310,0.055
5389,-0.315,0.045
5390,-0.315,0.065
5391,-0.305,0.080
5392,-0.270,0.060
5393,-0.250,0.015
5394,-0.245,-0.065
5395,-0.250,-0.170
5396,-0.215,-0.270
5397,-0.185,-0.405
5398,-0.120,-0.525
5399,-0.065,-0.645
5400,0.000,-0.770
5401,0.040,-0.840
5402,0.070,-0.905
5403,0.105,-0.880
5404,0.120,-0.870
5405,0.115,-0.895
5406,0.030,-0.925
5407,-0.045,-0.935
5408,-0.090,-0.880
5409,-0.090,-0.825
5410,-0.015,-0.795
5411,0.070,-0.760
5412,0.180,-0.740
5413,0.285,-0.715
5414,0.410,-0.700
5415,0.515,-0.675
5416,0.605,-0.650
5417,0.660,-0.630
5418,0.640,-0.610
5419,0.590,-0.580
5420,0.470,-0.525
5421,0.380,-0.470
5422,0.305,-0.390
5423,0.230,-0.350
5424,0.125,-0.305
5425,0.015,-0.270
5426,-0.095,-0.205
5427,-0.200,-0.125
5428,-0.305,-0.060
5429,-0.405,-0.005
5430,-0.490,0.045
5431,-0.555,0.100
5432,-0.605,0.150
5433,-0.605,0.185
5434,-0.570,0.205
5435,-0.525,0.215
5436,-0.505,0.210
5437,-0.465,0.215
5438,-0.445,0.215
5439,-0.405,0.250
5440,-0.380,0.260
5441,-0.355,0.265
5442,-0.365,0.255
5443,-0.380,0.245
5444,-0.395,0.265
5445,-0.390,0.265
5446,-0.365,0.295
5447,-0.355,0.290
5448,-0.370,0.270
5449,-0.370,0.270
5450,-0.365,0.285
5451,-0.355,0.300
5452,-0.345,0.325
5453,-0.345,0.310
5454,-0.345,0.300
5455,-0.360,0.285
5456,-0.365,0.295
5457,-0.355,0.315
5458,-0.335,0.325
5459,-0.325,0.320
5460,-0.345,0.315
5461,-0.350,0.315
5462,-0.335,0.325
5463,-0.325,0.340
5464,-0.300,0.360
5465,-0.305,0.345
5466,-0.310,0.335
5467,-0.330,0.345
5468,-0.330,0.345
5469,-0.305,0.380
5470,-0.290,0.390
5471,-0.275,0.375
5472,-0.280,0.375
5473,-0.300,0.380
5474,-0.300,0.385
5475,-0.280,0.410
5476,-0.265,0.420
5477,-0.240,0.415
5478,-0.250,0.415
5479,-0.250,0.405
5480,-0.250,0.425
5481,-0.225,0.430
5482,-0.210,0.455
5483,-0.205,0.435
5484,-0.200,0.440
5485,-0.215,0.430
5486,-0.205,0.425
5487,-0.190,0.450
5488,-0.180,0.470
5489,-0.165,0.460
5490,-0.155,0.440
5491,-0.170,0.440
5492,-0.165,0.440
5493,-0.125,0.435
5494,-0.115,0.440
5495,-0.090,0.415
5496,-0.080,0.395
5497,-0.085,0.385
5498,-0.070,0.380
5499,-0.060,0.375
5500,-0.035,0.365
5501,-0.025,0.345
5502,-0.035,0.310
5503,-0.025,0.285
5504,-0.020,0.280
5505,0.000,0.245
5506,0.025,0.250
5507,0.045,0.205
5508,0.050,0.175
5509,0.055,0.140
5510,0.050,0.140
5511,0.060,0.145
5512,0.105,0.140
5513,0.115,0.135
5514,0.095,0.105
5515,0.080,0.090
5516,0.075,0.095
5517,0.070,0.100
5518,0.065,0.110
5519,0.050,0.090
5520,0.030,0.080
5521,0.000,0.070
5522,-0.035,0.080
5523,-0.035,0.090
5524,-0.040,0.095
5525,-0.070,0.075
5526,-0.090,0.060
5527,-0.125,0.055
5528,-0.135,0.070
5529,-0.145,0.080
5530,-0.145,0.090
5531,-0.165,0.075
5532,-0.200,0.050
5533,-0.220,0.040
5534,-0.215,0.055
5535,-0.220,0.075
5536,-0.210,0.085
5537,-0.210,0.070
5538,-0.230,0.060
5539,-0.235,0.050
5540,-0.250,0.055
5541,-0.240,0.070
5542,-0.235,0.075
5543,-0.240,0.085
5544,-0.245,0.065
5545,-0.255,0.065
5546,-0.265,0.070
5547,-0.265,0.080
5548,-0.245,0.090
5549,-0.235,0.075
5550,-0.260,0.075
5551,-0.260,0.045
5552,-0.265,0.060
5553,-0.280,0.075
5554,-0.255,0.090
5555,-0.245,0.080
5556,-0.255,0.085
5557,-0.260,0.060
5558,-0.265,0.080
5559,-0.260,0.090
5560,-0.260,0.090
5561,-0.255,0.085
5562,-0.250,0.080
5563,-0.270,0.075
5564,-0.280,0.090
5565,-0.260,0.100
5566,-0.260,0.115
5567,-0.245,0.095
5568,-0.255,0.080
5569,-0.270,0.085
5570,-0.270,0.090
5571,-0.265,0.110
5572,-0.250,0.110
5573,-0.240,0.105
5574,-0.255,0.090
5575,-0.265,0.085
5576,-0.270,0.085
5577,-0.270,0.095
5578,-0.260,0.105
5579,-0.255,0.090
5580,-0.265,0.085
5581,-0.265,0.080
5582,-0.275,0.080
5583,-0.260,0.110
5584,-0.255,0.110
5585,-0.255,0.100
5586,-0.260,0.090
5587,-0.290,0.080
5588,-0.280,0.090
5589,-0.265,0.095
5590,-0.255,0.100
5591,-0.270,0.100
5592,-0.285,0.075
5593,-0.285,0.065
5594,-0.285,0.080
5595,-0.285,0.075
5596,-0.260,0.090
5597,-0.265,0.080
5598,-0.275,0.065
5599,-0.295,0.060
5600,-0.300,0.065
5601,-0.290,0.075
5602,-0.280,0.095
5603,-0.280,0.075
5604,-0.285,0.060
5605,-0.300,0.060
5606,-0.300,0.065
5607,-0.285,0.080
5608,-0.275,0.095
5609,-0.275,0.080
5610,-0.280,0.070
5611,-0.290,0.060
5612,-0.300,0.060
5613,-0.285,0.075
5614,-0.260,0.080
5615,-0.265,0.085
5616,-0.280,0.065
5617,-0.300,0.075
5618,-0.310,0.060
5619,-0.305,0.080
5620,-0.285,0.100
5621,-0.265,0.100
5622,-0.280,0.090
5623,-0.305,0.085
5624,-0.295,0.105
5625,-0.295,0.115
5626,-0.270,0.115
5627,-0.255,0.110
5628,-0.255,0.095
5629,-0.265,0.100
5630,-0.245,0.105
5631,-0.245,0.120
5632,-0.240,0.120
5633,-0.235,0.105
5634,-0.240,0.065
5635,-0.235,0.050
5636,-0.230,0.055
5637,-0.210,0.050
5638,-0.190,0.075
5639,-0.190,0.065
5640,-0.185,0.040
5641,-0.190,0.035
5642,-0.195,0.035
5643,-0.185,0.045
5644,-0.195,0.045
5645,-0.200,0.025
5646,-0.220,0.005
5647,-0.230,-0.005
5648,-0.240,0.000
5649,-0.240,0.015
5650,-0.230,0.015
5651,-0.235,0.000
5652,-0.245,-0.005
5653,-0.255,-0.020
5654,-0.270,-0.005
5655,-0.270,0.015
5656,-0.260,0.015
5657,-0.250,0.005
5658,-0.265,-0.005
5659,-0.275,-0.010
5660,-0.280,0.000
5661,-0.285,0.025
5662,-0.265,0.045
5663,-0.265,0.060
5664,-0.290,0.040
5665,-0.310,0.025
5666,-0.325,0.030
5667,-0.315,0.035
5668,-0.315,0.060
5669,-0.295,0.055
5670,-0.300,0.040
5671,-0.300,0.030
5672,-0.315,0.040
5673,-0.310,0.050
5674,-0.320,0.065
5675,-0.325,0.045
5676,-0.315,0.040
5677,-0.320,0.045
5678,-0.330,0.055
5679,-0.330,0.065
5680,-0.315,0.075
5681,-0.310,0.060
5682,-0.320,0.050
5683,-0.330,0.035
5684,-0.325,0.040
5685,-0.320,0.050
5686,-0.305,0.075
5687,-0.305,0.060
5688,-0.320,0.065
5689,-0.340,0.045
5690,-0.330,0.055
5691,-0.325,0.050
5692,-0.315,0.070
5693,-0.310,0.055
5694,-0.325,0.040
5695,-0.325,0.030
5696,-0.325,0.040
5697,-0.325,0.045
5698,-0.295,0.050
5699,-0.285,0.050
5700,-0.290,0.040
5701,-0.305,0.010
5702,-0.300,-0.055
5703,-0.255,-0.140
5704,-0.190,-0.270
5705,-0.150,-0.430
5706,-0.105,-0.585
5707,-0.050,-0.735
5708,0.015,-0.830
5709,0.075,-0.885
5710,0.125,-0.885
5711,0.140,-0.900
5712,0.105,-0.905
5713,0.025,-0.930
5714,-0.050,-0.935
5715,-0.105,-0.900
5716,-0.100,-0.850
5717,-0.050,-0.810
5718,0.025,-0.785
5719,0.125,-0.760
5720,0.255,-0.735
5721,0.410,-0.695
5722,0.515,-0.675
5723,0.600,-0.660
5724,0.645,-0.640
5725,0.630,-0.610
5726,0.540,-0.570
5727,0.455,-0.510
5728,0.365,-0.425
5729,0.255,-0.390
5730,0.165,-0.360
5731,0.040,-0.295
5732,-0.080,-0.240
5733,-0.170,-0.170
5734,-0.275,-0.100
5735,-0.370,-0.035
5736,-0.470,0.010
5737,-0.545,0.065
5738,-0.585,0.110
5739,-0.600,0.145
5740,-0.575,0.185
5741,-0.535,0.185
5742,-0.505,0.190
5743,-0.485,0.185
5744,-0.455,0.205
5745,-0.425,0.220
5746,-0.385,0.235
5747,-0.375,0.240
5748,-0.380,0.245
5749,-0.385,0.215
5750,-0.385,0.225
5751,-0.375,0.250
5752,-0.355,0.265
5753,-0.355,0.275
5754,-0.360,0.255
5755,-0.365,0.260
5756,-0.370,0.265
5757,-0.355,0.270
5758,-0.340,0.285
5759,-0.350,0.275
5760,-0.355,0.275
5761,-0.370,0.275
5762,-0.365,0.280
5763,-0.345,0.290
5764,-0.330,0.295
5765,-0.325,0.290
5766,-0.335,0.300
5767,-0.345,0.295
5768,-0.355,0.290
5769,-0.335,0.300
5770,-0.320,0.330
5771,-0.300,0.330
5772,-0.315,0.315
5773,-0.320,0.310
5774,-0.315,0.335
5775,-0.300,0.345
5776,-0.285,0.355
5777,-0.275,0.350
5778,-0.290,0.350
5779,-0.290,0.340
5780,-0.295,0.360
5781,-0.265,0.370
5782,-0.240,0.385
5783,-0.235,0.380
5784,-0.235,0.375
5785,-0.245,0.365
5786,-0.240,0.385
5787,-0.225,0.405
5788,-0.220,0.410
5789,-0.205,0.395
5790,-0.205,0.405
5791,-0.210,0.390
5792,-0.200,0.395
5793,-0.180,0.420
5794,-0.155,0.430
5795,-0.145,0.430
5796,-0.145,0.410
5797,-0.140,0.400
5798,-0.140,0.415
5799,-0.125,0.420
5800,-0.090,0.420
5801,-0.075,0.410
5802,-0.070,0.380
5803,-0.085,0.375
5804,-0.075,0.360
5805,-0.055,0.360
5806,-0.020,0.365
5807,-0.005,0.330
5808,-0.005,0.295
5809,-0.005,0.265
5810,0.005,0.250
5811,0.015,0.235
5812,0.035,0.225
5813,0.065,0.190
5814,0.065,0.170
5815,0.045,0.145
5816,0.055,0.125
5817,0.085,0.125
5818,0.120,0.120
5819,0.115,0.120
5820,0.100,0.085
5821,0.095,0.070
5822,0.095,0.070
5823,0.080,0.070
5824,0.090,0.065
5825,0.075,0.060
5826,0.035,0.040
5827,0.015,0.030
5828,-0.010,0.040
5829,-0.030,0.050
5830,-0.050,0.065
5831,-0.070,0.050
5832,-0.100,0.040
5833,-0.125,0.035
5834,-0.140,0.025
5835,-0.155,0.055
5836,-0.155,0.065
5837,-0.180,0.055
5838,-0.200,0.040
5839,-0.215,0.030
5840,-0.215,0.035
5841,-0.215,0.055
5842,-0.210,0.065
5843,-0.225,0.065
5844,-0.235,0.045
5845,-0.245,0.045
5846,-0.245,0.045
5847,-0.245,0.045
5848,-0.225,0.055
5849,-0.250,0.045
5850,-0.255,0.030
5851,-0.265,0.025
5852,-0.275,0.035
5853,-0.265,0.050
5854,-0.255,0.050
5855,-0.245,0.065
5856,-0.255,0.050
5857,-0.270,0.035
5858,-0.260,0.050
5859,-0.275,0.060
5860,-0.245,0.065
5861,-0.230,0.060
5862,-0.245,0.040
5863,-0.255,0.030
5864,-0.270,0.045
5865,-0.255,0.060
5866,-0.245,0.060
5867,-0.240,0.065
5868,-0.245,0.055
5869,-0.255,0.040
5870,-0.265,0.055
5871,-0.250,0.075
5872,-0.245,0.085
5873,-0.250,0.070
5874,-0.245,0.055
5875,-0.255,0.070
5876,-0.260,0.070
5877,-0.255,0.080
5878,-0.250,0.090
5879,-0.240,0.080
5880,-0.250,0.070
5881,-0.250,0.050
5882,-0.265,0.060
5883,-0.260,0.075
5884,-0.245,0.085
5885,-0.245,0.070
5886,-0.255,0.055
5887,-0.265,0.055
5888,-0.265,0.055
5889,-0.270,0.065
5890,-0.260,0.070
5891,-0.260,0.075
5892,-0.255,0.065
5893,-0.280,0.055
5894,-0.275,0.060
5895,-0.265,0.070
5896,-0.250,0.080
5897,-0.250,0.060
5898,-0.260,0.055
5899,-0.270,0.040
5900,-0.275,0.055
5901,-0.265,0.065
5902,-0.255,0.060
5903,-0.250,0.060
5904,-0.255,0.045
5905,-0.275,0.040
5906,-0.280,0.055
5907,-0.270,0.065
5908,-0.265,0.060
5909,-0.250,0.050
5910,-0.265,0.045
5911,-0.275,0.040
5912,-0.285,0.040
5913,-0.285,0.055
5914,-0.265,0.065
5915,-0.255,0.050
5916,-0.270,0.025
5917,-0.285,0.030
5918,-0.290,0.035
5919,-0.295,0.040
5920,-0.270,0.055
5921,-0.270,0.055
5922,-0.270,0.035
5923,-0.285,0.025
5924,-0.290,0.035
5925,-0.290,0.055
5926,-0.260,0.065
5927,-0.265,0.065
5928,-0.270,0.060
5929,-0.290,0.050
5930,-0.280,0.065
5931,-0.260,0.090
5932,-0.255,0.105
5933,-0.245,0.095
5934,-0.255,0.075
5935,-0.275,0.065
5936,-0.250,0.060
5937,-0.235,0.090
5938,-0.215,0.105
5939,-0.215,0.100
5940,-0.225,0.090
5941,-0.230,0.065
5942,-0.240,0.080
5943,-0.240,0.070
5944,-0.210,0.070
5945,-0.190,0.050
5946,-0.195,0.020
5947,-0.195,0.015
5948,-0.200,0.020
5949,-0.185,0.015
5950,-0.170,0.035
5951,-0.170,0.010
5952,-0.170,-0.010
5953,-0.200,-0.030
5954,-0.205,-0.015
5955,-0.195,-0.010
5956,-0.190,0.000
5957,-0.185,-0.030
5958,-0.200,-0.030
5959,-0.215,-0.040
5960,-0.240,-0.030
5961,-0.230,-0.025
5962,-0.215,-0.005
5963,-0.215,-0.005
5964,-0.240,-0.020
5965,-0.255,-0.040
5966,-0.270,-0.035
5967,-0.260,-0.030
5968,-0.255,-0.020
5969,-0.245,-0.010
5970,-0.245,-0.020
5971,-0.275,-0.020
5972,-0.280,-0.010
5973,-0.285,0.020
5974,-0.265,0.025
5975,-0.265,0.020
5976,-0.280,0.020
5977,-0.315,0.010
5978,-0.310,0.015
5979,-0.305,0.020
5980,-0.285,0.040
5981,-0.270,0.030
5982,-0.290,0.020
5983,-0.315,0.005
5984,-0.330,0.010
5985,-0.315,0.030
5986,-0.315,0.030
5987,-0.310,0.030
5988,-0.305,0.025
5989,-0.345,0.010
5990,-0.335,0.015
5991,-0.335,0.050
5992,-0.305,0.035
5993,-0.305,0.035
5994,-0.320,0.025
5995,-0.325,0.010
5996,-0.335,0.025
5997,-0.330,0.035
5998,-0.310,0.040
5999,-0.310,0.035
6000,-0.320,0.015
6001,-0.335,0.005
6002,-0.335,0.015
6003,-0.325,0.035
6004,-0.330,0.050
6005,-0.305,0.020
6006,-0.315,0.010
6007,-0.325,0.015
6008,-0.320,0.010
6009,-0.315,0.025
6010,-0.310,0.045
6011,-0.310,0.025
6012,-0.320,0.015
6013,-0.320,0.000
6014,-0.340,0.015
6015,-0.320,0.020
6016,-0.305,0.035
6017,-0.285,0.015
6018,-0.285,-0.010
6019,-0.285,-0.075
6020,-0.280,-0.140
6021,-0.235,-0.230
6022,-0.205,-0.330
6023,-0.160,-0.465
6024,-0.115,-0.610
6025,-0.065,-0.725
6026,-0.010,-0.805
6027,0.055,-0.880
6028,0.095,-0.890
6029,0.095,-0.915
6030,0.080,-0.920
6031,0.030,-0.950
6032,-0.050,-0.965
6033,-0.115,-0.955
6034,-0.150,-0.910
6035,-0.150,-0.890
6036,-0.100,-0.850
6037,-0.010,-0.835
6038,0.105,-0.795
6039,0.245,-0.760
6040,0.380,-0.735
6041,0.485,-0.705
6042,0.555,-0.715
6043,0.605,-0.695
6044,0.605,-0.665
6045,0.550,-0.615
6046,0.460,-0.545
6047,0.365,-0.495
6048,0.250,-0.455
6049,0.130,-0.405
6050,0.010,-0.335
6051,-0.070,-0.270
6052,-0.185,-0.195
6053,-0.320,-0.140
6054,-0.435,-0.080
6055,-0.545,-0.030
6056,-0.600,0.030
6057,-0.625,0.095
6058,-0.610,0.140
6059,-0.600,0.155
6060,-0.565,0.165
6061,-0.525,0.165
6062,-0.500,0.180
6063,-0.460,0.190
6064,-0.410,0.200
6065,-0.380,0.200
6066,-0.385,0.195
6067,-0.395,0.190
6068,-0.400,0.205
6069,-0.400,0.230
6070,-0.380,0.240
6071,-0.370,0.245
6072,-0.380,0.235
6073,-0.385,0.225
6074,-0.395,0.240
6075,-0.385,0.245
6076,-0.375,0.260
6077,-0.355,0.245
6078,-0.375,0.230
6079,-0.380,0.240
6080,-0.385,0.245
6081,-0.370,0.265
6082,-0.355,0.280
6083,-0.350,0.270
6084,-0.345,0.270
6085,-0.355,0.270
6086,-0.355,0.275
6087,-0.345,0.285
6088,-0.325,0.300
6089,-0.320,0.300
6090,-0.320,0.300
6091,-0.325,0.290
6092,-0.340,0.305
6093,-0.320,0.315
6094,-0.300,0.345
6095,-0.290,0.335
6096,-0.290,0.330
6097,-0.305,0.330
6098,-0.305,0.330
6099,-0.280,0.355
6100,-0.260,0.365
6101,-0.255,0.370
6102,-0.255,0.365
6103,-0.250,0.355
6104,-0.260,0.375
6105,-0.240,0.390
6106,-0.220,0.405
6107,-0.195,0.405
6108,-0.200,0.385
6109,-0.200,0.375
6110,-0.200,0.375
6111,-0.180,0.385
6112,-0.160,0.400
6113,-0.145,0.400
6114,-0.135,0.390
6115,-0.135,0.380
6116,-0.120,0.375
6117,-0.105,0.370
6118,-0.075,0.365
6119,-0.060,0.345
6120,-0.055,0.350
6121,-0.055,0.315
6122,-0.050,0.310
6123,-0.020,0.300
6124,0.000,0.285
6125,0.025,0.260
6126,0.025,0.225
6127,0.025,0.180
6128,0.035,0.165
6129,0.040,0.170
6130,0.080,0.150
6131,0.095,0.125
6132,0.085,0.110
6133,0.085,0.080
6134,0.080,0.070
6135,0.085,0.070
6136,0.100,0.085
6137,0.090,0.070
6138,0.075,0.045
6139,0.045,0.025
6140,0.020,0.025
6141,0.005,0.040
6142,-0.005,0.050
6143,-0.030,0.040
6144,-0.050,0.035
6145,-0.085,0.030
6146,-0.110,0.020
6147,-0.110,0.050
6148,-0.145,0.035
6149,-0.155,0.035
6150,-0.175,0.025
6151,-0.205,0.010
6152,-0.225,0.020
6153,-0.225,0.035
6154,-0.225,0.030
6155,-0.225,0.040
6156,-0.230,0.030
6157,-0.260,0.025
6158,-0.280,0.030
6159,-0.260,0.030
6160,-0.245,0.040
6161,-0.250,0.030
6162,-0.265,0.020
6163,-0.275,0.025
6164,-0.290,0.025
6165,-0.295,0.035
6166,-0.280,0.045
6167,-0.270,0.040
6168,-0.285,0.030
6169,-0.285,0.020
6170,-0.285,0.040
6171,-0.280,0.050
6172,-0.270,0.060
6173,-0.265,0.060
6174,-0.290,0.035
6175,-0.290,0.015
6176,-0.290,0.030
6177,-0.295,0.050
6178,-0.290,0.065
6179,-0.280,0.060
6180,-0.285,0.055
6181,-0.300,0.045
6182,-0.310,0.050
6183,-0.290,0.065
6184,-0.290,0.080
6185,-0.280,0.060
6186,-0.295,0.055
6187,-0.300,0.045
6188,-0.295,0.065
6189,-0.290,0.075
6190,-0.270,0.085
6191,-0.275,0.060
6192,-0.280,0.045
6193,-0.300,0.035
6194,-0.300,0.050
6195,-0.290,0.075
6196,-0.275,0.080
6197,-0.265,0.070
6198,-0.280,0.065
6199,-0.295,0.045
6200,-0.315,0.065
6201,-0.290,0.075
6202,-0.290,0.080
6203,-0.275,0.075
6204,-0.285,0.045
6205,-0.300,0.045
6206,-0.310,0.050
6207,-0.305,0.065
6208,-0.280,0.060
6209,-0.285,0.065
6210,-0.285,0.050
6211,-0.300,0.025
6212,-0.300,0.035
6213,-0.295,0.055
6214,-0.285,0.070
6215,-0.285,0.065
6216,-0.290,0.050
6217,-0.320,0.040
6218,-0.300,0.045
6219,-0.300,0.050
6220,-0.285,0.055
6221,-0.295,0.070
6222,-0.305,0.045
6223,-0.320,0.035
6224,-0.330,0.030
6225,-0.320,0.040
6226,-0.300,0.060
6227,-0.300,0.050
6228,-0.300,0.040
6229,-0.320,0.015
6230,-0.325,0.040
6231,-0.320,0.050
6232,-0.295,0.065
6233,-0.290,0.070
6234,-0.285,0.070
6235,-0.315,0.070
6236,-0.315,0.075
6237,-0.330,0.100
6238,-0.315,0.110
6239,-0.285,0.100
6240,-0.285,0.090
6241,-0.285,0.070
6242,-0.280,0.075
6243,-0.280,0.090
6244,-0.260,0.100
6245,-0.260,0.090
6246,-0.260,0.070
6247,-0.265,0.045
6248,-0.265,0.040
6249,-0.250,0.050
6250,-0.230,0.060
6251,-0.210,0.040
6252,-0.220,0.025
6253,-0.215,0.000
6254,-0.230,0.000
6255,-0.235,0.010
6256,-0.220,0.015
6257,-0.225,0.000
6258,-0.230,-0.015
6259,-0.250,-0.030
6260,-0.260,-0.020
6261,-0.255,-0.010
6262,-0.250,0.000
6263,-0.250,-0.010
6264,-0.265,-0.025
6265,-0.275,-0.030
6266,-0.285,-0.020
6267,-0.300,-0.015
6268,-0.295,-0.005
6269,-0.305,-0.005
6270,-0.295,-0.015
6271,-0.315,-0.015
6272,-0.325,0.010
6273,-0.330,0.025
6274,-0.335,0.055
6275,-0.335,0.045
6276,-0.330,0.030
6277,-0.360,0.035
6278,-0.350,0.030
6279,-0.340,0.045
6280,-0.325,0.055
6281,-0.305,0.040
6282,-0.315,0.030
6283,-0.325,0.025
6284,-0.340,0.025
6285,-0.350,0.035
6286,-0.335,0.065
6287,-0.335,0.055
6288,-0.340,0.040
6289,-0.355,0.025
6290,-0.360,0.040
6291,-0.355,0.050
6292,-0.350,0.055
6293,-0.330,0.050
6294,-0.340,0.035
6295,-0.355,0.035
6296,-0.360,0.040
6297,-0.350,0.050
6298,-0.330,0.055
6299,-0.330,0.050
6300,-0.340,0.040
6301,-0.360,0.020
6302,-0.355,0.030
6303,-0.335,0.045
6304,-0.315,0.065
6305,-0.330,0.055
6306,-0.340,0.030
6307,-0.345,0.020
6308,-0.340,0.035
6309,-0.320,0.030
6310,-0.310,0.045
6311,-0.315,0.025
6312,-0.320,0.015
6313,-0.325,0.015
6314,-0.330,0.025
6315,-0.325,0.040
6316,-0.315,0.050
6317,-0.290,0.010
6318,-0.260,-0.045
6319,-0.255,-0.135
6320,-0.230,-0.215
6321,-0.170,-0.340
6322,-0.110,-0.435
6323,-0.040,-0.560
6324,0.055,-0.695
6325,0.120,-0.800
6326,0.160,-0.885
6327,0.195,-0.900
6328,0.210,-0.865
6329,0.165,-0.875
6330,0.085,-0.925
6331,-0.025,-0.935
6332,-0.110,-0.915
6333,-0.130,-0.870
6334,-0.105,-0.805
6335,-0.015,-0.780
6336,0.085,-0.755
6337,0.195,-0.745
6338,0.345,-0.705
6339,0.475,-0.665
6340,0.580,-0.620
6341,0.655,-0.590
6342,0.640,-0.575
6343,0.590,-0.545
6344,0.475,-0.485
6345,0.375,-0.405
6346,0.290,-0.340
6347,0.195,-0.295
6348,0.080,-0.240
6349,-0.025,-0.200
6350,-0.110,-0.125
6351,-0.205,-0.045
6352,-0.285,0.015
6353,-0.375,0.060
6354,-0.445,0.095
6355,-0.500,0.115
6356,-0.530,0.150
6357,-0.515,0.165
6358,-0.485,0.185
6359,-0.445,0.180
6360,-0.435,0.190
6361,-0.425,0.195
6362,-0.400,0.210
6363,-0.405,0.230
6364,-0.370,0.240
6365,-0.375,0.240
6366,-0.385,0.225
6367,-0.400,0.210
6368,-0.405,0.225
6369,-0.385,0.260
6370,-0.375,0.260
6371,-0.365,0.250
6372,-0.365,0.245
6373,-0.380,0.240
6374,-0.385,0.240
6375,-0.375,0.270
6376,-0.355,0.285
6377,-0.350,0.280
6378,-0.360,0.270
6379,-0.370,0.255
6380,-0.385,0.255
6381,-0.380,0.275
6382,-0.360,0.305
6383,-0.340,0.285
6384,-0.350,0.280
6385,-0.355,0.275
6386,-0.350,0.290
6387,-0.340,0.300
6388,-0.320,0.335
6389,-0.325,0.325
6390,-0.330,0.315
6391,-0.330,0.320
6392,-0.330,0.325
6393,-0.305,0.345
6394,-0.295,0.365
6395,-0.275,0.355
6396,-0.265,0.355
6397,-0.280,0.350
6398,-0.275,0.365
6399,-0.255,0.375
6400,-0.235,0.390
6401,-0.220,0.395
6402,-0.215,0.385
6403,-0.220,0.375
6404,-0.215,0.370
6405,-0.205,0.385
6406,-0.160,0.390
6407,-0.145,0.395
6408,-0.145,0.375
6409,-0.140,0.360
6410,-0.125,0.370
6411,-0.110,0.370
6412,-0.070,0.390
6413,-0.055,0.385
6414,-0.060,0.355
6415,-0.045,0.340
6416,-0.045,0.310
6417,-0.025,0.315
6418,0.000,0.305
6419,0.020,0.285
6420,0.015,0.250
6421,0.025,0.215
6422,0.030,0.205
6423,0.055,0.175
6424,0.070,0.180
6425,0.105,0.150
6426,0.110,0.110
6427,0.105,0.100
6428,0.105,0.080
6429,0.110,0.090
6430,0.125,0.090
6431,0.130,0.080
6432,0.105,0.055
6433,0.080,0.045
6434,0.065,0.030
6435,0.060,0.050
6436,0.045,0.065
6437,0.030,0.050
6438,-0.005,0.035
6439,-0.045,0.025
6440,-0.075,0.035
6441,-0.095,0.045
6442,-0.095,0.050
6443,-0.100,0.050
6444,-0.135,0.035
6445,-0.150,0.025
6446,-0.170,0.025
6447,-0.175,0.035
6448,-0.170,0.040
6449,-0.180,0.050
6450,-0.190,0.035
6451,-0.215,0.020
6452,-0.225,0.025
6453,-0.220,0.035
6454,-0.205,0.045
6455,-0.200,0.040
6456,-0.220,0.020
6457,-0.230,0.025
6458,-0.240,0.020
6459,-0.230,0.045
6460,-0.220,0.055
6461,-0.215,0.040
6462,-0.230,0.030
6463,-0.245,0.020
6464,-0.245,0.030
6465,-0.235,0.050
6466,-0.225,0.050
6467,-0.210,0.045
6468,-0.220,0.035
6469,-0.235,0.020
6470,-0.255,0.035
6471,-0.230,0.045
6472,-0.230,0.055
6473,-0.215,0.045
6474,-0.235,0.040
6475,-0.245,0.030
6476,-0.235,0.045
6477,-0.240,0.050
6478,-0.215,0.065
6479,-0.205,0.065
6480,-0.205,0.045
6481,-0.220,0.040
6482,-0.225,0.045
6483,-0.215,0.060
6484,-0.205,0.075
6485,-0.200,0.065
6486,-0.205,0.060
6487,-0.215,0.025
6488,-0.220,0.045
6489,-0.210,0.070
6490,-0.200,0.075
6491,-0.190,0.060
6492,-0.210,0.050
6493,-0.220,0.040
6494,-0.220,0.045
6495,-0.215,0.065
6496,-0.195,0.070
6497,-0.195,0.060
6498,-0.205,0.035
6499,-0.225,0.050
6500,-0.230,0.040
6501,-0.210,0.055
6502,-0.205,0.070
6503,-0.195,0.065
6504,-0.200,0.050
6505,-0.230,0.050
6506,-0.230,0.040
6507,-0.215,0.050
6508,-0.205,0.070
6509,-0.200,0.060
6510,-0.205,0.050
6511,-0.225,0.040
6512,-0.230,0.035
6513,-0.220,0.055
6514,-0.200,0.065
6515,-0.210,0.055
6516,-0.220,0.050
6517,-0.235,0.030
6518,-0.225,0.035
6519,-0.235,0.040
6520,-0.215,0.055
6521,-0.215,0.050
6522,-0.220,0.050
6523,-0.225,0.030
6524,-0.235,0.035
6525,-0.240,0.040
6526,-0.220,0.065
6527,-0.225,0.050
6528,-0.210,0.040
6529,-0.220,0.050
6530,-0.235,0.060
6531,-0.235,0.065
6532,-0.210,0.090
6533,-0.210,0.090
6534,-0.215,0.100
6535,-0.220,0.075
6536,-0.225,0.080
6537,-0.220,0.095
6538,-0.180,0.105
6539,-0.165,0.115
6540,-0.175,0.100
6541,-0.180,0.095
6542,-0.185,0.095
6543,-0.190,0.105
6544,-0.185,0.085
6545,-0.155,0.065
6546,-0.160,0.050
6547,-0.165,0.030
6548,-0.160,0.040
6549,-0.150,0.050
6550,-0.120,0.045
6551,-0.120,0.025
6552,-0.125,0.005
6553,-0.165,-0.010
6554,-0.165,-0.005
6555,-0.155,0.005
6556,-0.150,0.010
6557,-0.150,0.005
6558,-0.170,-0.015
6559,-0.185,-0.015
6560,-0.200,-0.010
6561,-0.190,-0.010
6562,-0.185,0.000
6563,-0.185,-0.025
6564,-0.195,-0.020
6565,-0.215,-0.025
6566,-0.235,-0.030
6567,-0.220,-0.010
6568,-0.210,0.010
6569,-0.205,0.010
6570,-0.225,0.015
6571,-0.225,0.020
6572,-0.250,0.030
6573,-0.250,0.035
6574,-0.235,0.050
6575,-0.250,0.045
6576,-0.240,0.015
6577,-0.260,0.025
6578,-0.270,0.020
6579,-0.255,0.050
6580,-0.245,0.055
6581,-0.245,0.055
6582,-0.260,0.040
6583,-0.270,0.035
6584,-0.275,0.030
6585,-0.265,0.040
6586,-0.245,0.050
6587,-0.245,0.040
6588,-0.255,0.040
6589,-0.270,0.020
6590,-0.275,0.035
6591,-0.270,0.050
6592,-0.250,0.060
6593,-0.240,0.050
6594,-0.255,0.035
6595,-0.270,0.020
6596,-0.285,0.020
6597,-0.265,0.035
6598,-0.245,0.045
6599,-0.255,0.045
6600,-0.250,0.020
6601,-0.275,0.025
6602,-0.270,0.020
6603,-0.260,0.035
6604,-0.250,0.050
6605,-0.245,0.050
6606,-0.245,0.020
6607,-0.265,0.010
6608,-0.270,0.015
6609,-0.255,0.030
6610,-0.230,0.035
6611,-0.225,0.030
6612,-0.230,0.015
6613,-0.225,-0.035
6614,-0.210,-0.095
6615,-0.180,-0.195
6616,-0.135,-0.320
6617,-0.100,-0.465
6618,-0.050,-0.610
6619,0.005,-0.750
6620,0.060,-0.830
6621,0.145,-0.875
6622,0.200,-0.880
6623,0.230,-0.880
6624,0.200,-0.870
6625,0.140,-0.910
6626,0.070,-0.925
6627,0.005,-0.905
6628,0.005,-0.850
6629,0.025,-0.815
6630,0.095,-0.795
6631,0.185,-0.765
6632,0.325,-0.730
6633,0.470,-0.700
6634,0.605,-0.670
6635,0.720,-0.660
6636,0.770,-0.650
6637,0.765,-0.635
6638,0.695,-0.600
6639,0.585,-0.515
6640,0.495,-0.445
6641,0.415,-0.390
6642,0.320,-0.345
6643,0.205,-0.295
6644,0.075,-0.245
6645,-0.035,-0.165
6646,-0.150,-0.085
6647,-0.265,-0.025
6648,-0.360,0.040
6649,-0.445,0.065
6650,-0.495,0.115
6651,-0.515,0.160
6652,-0.480,0.185
6653,-0.445,0.190
6654,-0.410,0.175
6655,-0.380,0.180
6656,-0.355,0.200
6657,-0.340,0.215
6658,-0.310,0.240
6659,-0.310,0.235
6660,-0.310,0.225
6661,-0.330,0.215
6662,-0.325,0.225
6663,-0.320,0.245
6664,-0.310,0.250
6665,-0.295,0.255
6666,-0.305,0.250
6667,-0.315,0.235
6668,-0.315,0.250
6669,-0.310,0.260
6670,-0.305,0.270
6671,-0.295,0.275
6672,-0.285,0.270
6673,-0.310,0.260
6674,-0.305,0.270
6675,-0.290,0.285
6676,-0.295,0.305
6677,-0.275,0.300
6678,-0.275,0.290
6679,-0.285,0.290
6680,-0.295,0.315
6681,-0.275,0.325
6682,-0.280,0.345
6683,-0.260,0.340
6684,-0.275,0.335
6685,-0.260,0.330
6686,-0.260,0.340
6687,-0.255,0.355
6688,-0.225,0.375
6689,-0.220,0.375
6690,-0.220,0.360
6691,-0.220,0.365
6692,-0.220,0.385
6693,-0.205,0.395
6694,-0.190,0.415
6695,-0.175,0.410
6696,-0.170,0.395
6697,-0.180,0.395
6698,-0.185,0.395
6699,-0.165,0.415
6700,-0.135,0.435
6701,-0.110,0.415
6702,-0.110,0.410
6703,-0.115,0.400
6704,-0.100,0.405
6705,-0.085,0.420
6706,-0.075,0.415
6707,-0.050,0.385
6708,-0.040,0.355
6709,-0.030,0.345
6710,-0.025,0.325
6711,-0.015,0.325
6712,0.005,0.320
6713,0.025,0.265
6714,0.040,0.240
6715,0.035,0.210
6716,0.050,0.190
6717,0.060,0.175
6718,0.085,0.170
6719,0.110,0.140
6720,0.115,0.110
6721,0.120,0.085
6722,0.125,0.080
6723,0.145,0.090
6724,0.145,0.090
6725,0.140,0.080
6726,0.115,0.070
6727,0.100,0.050
6728,0.070,0.050
