'sample interval','MLII','V5'
'0.00277778 sec','mV','mV'
0,-0.145,-0.065
1,-0.145,-0.065
2,-0.145,-0.065
3,-0.145,-0.065
4,-0.145,-0.065
5,-0.145,-0.065
6,-0.145,-0.065
7,-0.145,-0.065
8,-0.120,-0.080
9,-0.135,-0.080
10,-0.145,-0.085
11,-0.150,-0.085
12,-0.160,-0.075
13,-0.155,-0.070
14,-0.160,-0.070
15,-0.175,-0.065
16,-0.180,-0.055
17,-0.185,-0.050
18,-0.170,-0.050
19,-0.155,-0.040
20,-0.175,-0.040
21,-0.180,-0.055
22,-0.190,-0.075
23,-0.180,-0.080
24,-0.155,-0.085
25,-0.135,-0.070
26,-0.155,-0.080
27,-0.190,-0.080
28,-0.205,-0.090
29,-0.235,-0.095
30,-0.225,-0.090
31,-0.245,-0.095
32,-0.250,-0.110
33,-0.260,-0.120
34,-0.275,-0.145
35,-0.275,-0.135
36,-0.275,-0.105
37,-0.265,-0.095
38,-0.255,-0.105
39,-0.265,-0.120
40,-0.275,-0.135
41,-0.290,-0.125
42,-0.290,-0.125
43,-0.290,-0.115
44,-0.290,-0.115
45,-0.285,-0.125
46,-0.295,-0.140
47,-0.305,-0.140
48,-0.285,-0.130
49,-0.275,-0.125
50,-0.275,-0.140
51,-0.280,-0.145
52,-0.285,-0.150
53,-0.305,-0.150
54,-0.290,-0.130
55,-0.300,-0.115
56,-0.280,-0.125
57,-0.290,-0.135
58,-0.300,-0.160
59,-0.315,-0.195
60,-0.320,-0.200
61,-0.335,-0.205
62,-0.360,-0.225
63,-0.385,-0.255
64,-0.385,-0.300
65,-0.405,-0.290
66,-0.455,-0.235
67,-0.485,-0.130
68,-0.485,-0.035
69,-0.425,0.050
70,-0.330,0.120
71,-0.220,0.200
72,-0.070,0.310
73,0.120,0.435
74,0.375,0.535
75,0.620,0.580
76,0.780,0.475
77,0.840,0.210
78,0.765,-0.085
79,0.520,-0.230
80,0.170,-0.250
81,-0.165,-0.215
82,-0.365,-0.180
83,-0.435,-0.185
84,-0.425,-0.160
85,-0.370,-0.150
86,-0.330,-0.150
87,-0.325,-0.180
88,-0.335,-0.180
89,-0.345,-0.160
90,-0.330,-0.165
91,-0.325,-0.170
92,-0.315,-0.165
93,-0.310,-0.185
94,-0.320,-0.185
95,-0.335,-0.185
96,-0.340,-0.170
97,-0.325,-0.160
98,-0.345,-0.155
99,-0.335,-0.175
100,-0.330,-0.195
101,-0.335,-0.185
102,-0.330,-0.185
103,-0.325,-0.175
104,-0.330,-0.175
105,-0.330,-0.195
106,-0.345,-0.190
107,-0.355,-0.180
108,-0.335,-0.165
109,-0.325,-0.170
110,-0.305,-0.170
111,-0.320,-0.170
112,-0.320,-0.190
113,-0.330,-0.185
114,-0.340,-0.180
115,-0.335,-0.170
116,-0.340,-0.175
117,-0.345,-0.190
118,-0.355,-0.200
119,-0.355,-0.195
120,-0.340,-0.185
121,-0.330,-0.170
122,-0.330,-0.170
123,-0.330,-0.185
124,-0.340,-0.195
125,-0.350,-0.175
126,-0.325,-0.200
127,-0.325,-0.185
128,-0.330,-0.180
129,-0.330,-0.185
130,-0.335,-0.205
131,-0.335,-0.190
132,-0.340,-0.180
133,-0.330,-0.185
134,-0.340,-0.200
135,-0.350,-0.215
136,-0.355,-0.205
137,-0.350,-0.210
138,-0.345,-0.200
139,-0.330,-0.185
140,-0.320,-0.205
141,-0.335,-0.200
142,-0.330,-0.210
143,-0.345,-0.205
144,-0.330,-0.185
145,-0.335,-0.185
146,-0.335,-0.200
147,-0.345,-0.215
148,-0.345,-0.225
149,-0.355,-0.220
150,-0.340,-0.200
151,-0.340,-0.200
152,-0.335,-0.215
153,-0.330,-0.225
154,-0.350,-0.235
155,-0.350,-0.245
156,-0.345,-0.240
157,-0.335,-0.240
158,-0.335,-0.240
159,-0.335,-0.245
160,-0.350,-0.260
161,-0.355,-0.260
162,-0.355,-0.265
163,-0.345,-0.265
164,-0.345,-0.280
165,-0.335,-0.285
166,-0.350,-0.295
167,-0.360,-0.295
168,-0.360,-0.300
169,-0.360,-0.290
170,-0.365,-0.300
171,-0.360,-0.315
172,-0.370,-0.315
173,-0.385,-0.315
174,-0.370,-0.315
175,-0.360,-0.310
176,-0.355,-0.310
177,-0.360,-0.325
178,-0.375,-0.330
179,-0.375,-0.325
180,-0.365,-0.315
181,-0.365,-0.305
182,-0.360,-0.305
183,-0.360,-0.290
184,-0.365,-0.290
185,-0.370,-0.275
186,-0.355,-0.270
187,-0.330,-0.245
188,-0.325,-0.240
189,-0.325,-0.250
190,-0.335,-0.250
191,-0.340,-0.235
192,-0.315,-0.220
193,-0.300,-0.195
194,-0.300,-0.190
195,-0.290,-0.190
196,-0.295,-0.190
197,-0.290,-0.180
198,-0.285,-0.160
199,-0.275,-0.145
200,-0.255,-0.150
201,-0.250,-0.160
202,-0.250,-0.160
203,-0.265,-0.155
204,-0.255,-0.145
205,-0.245,-0.140
206,-0.230,-0.160
207,-0.245,-0.150
208,-0.245,-0.175
209,-0.255,-0.170
210,-0.255,-0.160
211,-0.240,-0.160
212,-0.250,-0.150
213,-0.255,-0.155
214,-0.245,-0.160
215,-0.255,-0.170
216,-0.250,-0.155
217,-0.250,-0.155
218,-0.265,-0.150
219,-0.260,-0.165
220,-0.260,-0.175
221,-0.265,-0.165
222,-0.270,-0.165
223,-0.265,-0.160
224,-0.260,-0.160
225,-0.275,-0.180
226,-0.280,-0.175
227,-0.290,-0.185
228,-0.275,-0.165
229,-0.270,-0.150
230,-0.260,-0.150
231,-0.280,-0.170
232,-0.280,-0.185
233,-0.285,-0.195
234,-0.275,-0.190
235,-0.275,-0.190
236,-0.265,-0.185
237,-0.270,-0.190
238,-0.285,-0.210
239,-0.290,-0.195
240,-0.280,-0.190
241,-0.275,-0.180
242,-0.285,-0.205
243,-0.280,-0.215
244,-0.300,-0.225
245,-0.300,-0.210
246,-0.305,-0.205
247,-0.295,-0.195
248,-0.300,-0.200
249,-0.310,-0.195
250,-0.310,-0.210
251,-0.305,-0.215
252,-0.295,-0.205
253,-0.285,-0.185
254,-0.285,-0.195
255,-0.290,-0.195
256,-0.295,-0.220
257,-0.310,-0.220
258,-0.290,-0.210
259,-0.295,-0.215
260,-0.300,-0.220
261,-0.305,-0.220
262,-0.310,-0.225
263,-0.325,-0.210
264,-0.310,-0.200
265,-0.300,-0.210
266,-0.290,-0.225
267,-0.310,-0.230
268,-0.325,-0.225
269,-0.330,-0.220
270,-0.315,-0.230
271,-0.300,-0.210
272,-0.305,-0.215
273,-0.310,-0.215
274,-0.320,-0.230
275,-0.330,-0.215
276,-0.325,-0.220
277,-0.315,-0.205
278,-0.310,-0.205
279,-0.305,-0.210
280,-0.305,-0.215
281,-0.310,-0.225
282,-0.300,-0.215
283,-0.305,-0.215
284,-0.290,-0.215
285,-0.300,-0.225
286,-0.300,-0.225
287,-0.305,-0.225
288,-0.305,-0.205
289,-0.290,-0.195
290,-0.280,-0.210
291,-0.295,-0.210
292,-0.305,-0.215
293,-0.315,-0.235
294,-0.305,-0.230
295,-0.295,-0.220
296,-0.290,-0.220
297,-0.280,-0.230
298,-0.270,-0.225
299,-0.275,-0.230
300,-0.275,-0.215
301,-0.270,-0.195
302,-0.250,-0.195
303,-0.250,-0.190
304,-0.255,-0.200
305,-0.225,-0.195
306,-0.220,-0.180
307,-0.205,-0.170
308,-0.200,-0.180
309,-0.205,-0.175
310,-0.215,-0.195
311,-0.230,-0.195
312,-0.220,-0.170
313,-0.225,-0.175
314,-0.225,-0.175
315,-0.225,-0.180
316,-0.230,-0.185
317,-0.235,-0.185
318,-0.240,-0.175
319,-0.235,-0.175
320,-0.220,-0.175
321,-0.210,-0.190
322,-0.205,-0.205
323,-0.245,-0.200
324,-0.285,-0.205
325,-0.285,-0.205
326,-0.300,-0.215
327,-0.310,-0.215
328,-0.330,-0.225
329,-0.330,-0.215
330,-0.325,-0.210
331,-0.315,-0.200
332,-0.320,-0.215
333,-0.315,-0.225
334,-0.325,-0.245
335,-0.340,-0.245
336,-0.345,-0.250
337,-0.340,-0.225
338,-0.340,-0.230
339,-0.350,-0.235
340,-0.345,-0.240
341,-0.355,-0.235
342,-0.330,-0.235
343,-0.335,-0.220
344,-0.330,-0.230
345,-0.320,-0.240
346,-0.345,-0.240
347,-0.355,-0.245
348,-0.340,-0.225
349,-0.330,-0.225
350,-0.325,-0.235
351,-0.330,-0.250
352,-0.350,-0.270
353,-0.365,-0.280
354,-0.360,-0.290
355,-0.380,-0.300
356,-0.425,-0.330
357,-0.445,-0.360
358,-0.475,-0.355
359,-0.510,-0.305
360,-0.535,-0.205
361,-0.505,-0.080
362,-0.415,0.015
363,-0.300,0.065
364,-0.160,0.115
365,-0.015,0.190
366,0.235,0.300
367,0.490,0.410
368,0.720,0.495
369,0.875,0.485
370,0.940,0.360
371,0.905,0.105
372,0.755,-0.165
373,0.490,-0.350
374,0.165,-0.450
375,-0.110,-0.470
376,-0.270,-0.450
377,-0.390,-0.395
378,-0.450,-0.345
379,-0.475,-0.310
380,-0.455,-0.295
381,-0.425,-0.285
382,-0.390,-0.295
383,-0.390,-0.295
384,-0.385,-0.280
385,-0.390,-0.285
386,-0.380,-0.285
387,-0.380,-0.285
388,-0.380,-0.290
389,-0.395,-0.275
390,-0.385,-0.275
391,-0.385,-0.275
392,-0.385,-0.270
393,-0.375,-0.285
394,-0.395,-0.295
395,-0.410,-0.290
396,-0.410,-0.275
397,-0.400,-0.265
398,-0.395,-0.265
399,-0.390,-0.275
400,-0.405,-0.295
401,-0.395,-0.290
402,-0.385,-0.285
403,-0.375,-0.270
404,-0.390,-0.265
405,-0.390,-0.275
406,-0.405,-0.280
407,-0.410,-0.280
408,-0.410,-0.270
409,-0.390,-0.265
410,-0.390,-0.270
411,-0.395,-0.270
412,-0.405,-0.280
413,-0.415,-0.270
414,-0.400,-0.265
415,-0.410,-0.265
416,-0.405,-0.265
417,-0.410,-0.270
418,-0.415,-0.285
419,-0.410,-0.285
420,-0.400,-0.265
421,-0.400,-0.265
422,-0.395,-0.255
423,-0.390,-0.275
424,-0.405,-0.275
425,-0.410,-0.280
426,-0.390,-0.270
427,-0.390,-0.265
428,-0.385,-0.275
429,-0.385,-0.285
430,-0.410,-0.280
431,-0.405,-0.280
432,-0.395,-0.275
433,-0.390,-0.275
434,-0.375,-0.275
435,-0.390,-0.285
436,-0.395,-0.295
437,-0.410,-0.295
438,-0.400,-0.275
439,-0.390,-0.275
440,-0.390,-0.285
441,-0.385,-0.290
442,-0.405,-0.315
443,-0.415,-0.315
444,-0.415,-0.305
445,-0.400,-0.290
446,-0.395,-0.310
447,-0.405,-0.320
448,-0.415,-0.320
449,-0.420,-0.335
450,-0.420,-0.330
451,-0.410,-0.325
452,-0.415,-0.345
453,-0.425,-0.350
454,-0.420,-0.365
455,-0.435,-0.370
456,-0.430,-0.355
457,-0.430,-0.360
458,-0.420,-0.370
459,-0.430,-0.390
460,-0.450,-0.395
461,-0.455,-0.400
462,-0.450,-0.390
463,-0.435,-0.385
464,-0.445,-0.390
465,-0.450,-0.400
466,-0.455,-0.410
467,-0.470,-0.420
468,-0.460,-0.405
469,-0.455,-0.410
470,-0.450,-0.410
471,-0.455,-0.400
472,-0.470,-0.405
473,-0.475,-0.390
474,-0.460,-0.385
475,-0.450,-0.365
476,-0.445,-0.355
477,-0.440,-0.345
478,-0.435,-0.355
479,-0.440,-0.330
480,-0.410,-0.295
481,-0.395,-0.275
482,-0.370,-0.270
483,-0.365,-0.260
484,-0.360,-0.265
485,-0.365,-0.265
486,-0.340,-0.245
487,-0.325,-0.225
488,-0.315,-0.210
489,-0.320,-0.215
490,-0.330,-0.215
491,-0.330,-0.205
492,-0.320,-0.195
493,-0.310,-0.185
494,-0.300,-0.185
495,-0.300,-0.195
496,-0.320,-0.195
497,-0.320,-0.195
498,-0.315,-0.185
499,-0.305,-0.170
500,-0.305,-0.185
501,-0.295,-0.195
502,-0.320,-0.195
503,-0.330,-0.195
504,-0.305,-0.185
505,-0.310,-0.175
506,-0.300,-0.175
507,-0.300,-0.185
508,-0.320,-0.195
509,-0.325,-0.195
510,-0.310,-0.195
511,-0.305,-0.180
512,-0.315,-0.185
513,-0.305,-0.190
514,-0.315,-0.195
515,-0.315,-0.195
516,-0.310,-0.190
517,-0.295,-0.185
518,-0.290,-0.185
519,-0.305,-0.190
520,-0.310,-0.200
521,-0.320,-0.215
522,-0.315,-0.195
523,-0.300,-0.185
524,-0.315,-0.185
525,-0.315,-0.185
526,-0.315,-0.200
527,-0.330,-0.205
528,-0.315,-0.190
529,-0.320,-0.190
530,-0.315,-0.200
531,-0.325,-0.200
532,-0.335,-0.195
533,-0.340,-0.220
534,-0.335,-0.205
535,-0.335,-0.190
536,-0.330,-0.200
537,-0.325,-0.220
538,-0.345,-0.230
539,-0.350,-0.210
540,-0.345,-0.205
541,-0.335,-0.200
542,-0.330,-0.195
543,-0.330,-0.220
544,-0.345,-0.225
545,-0.345,-0.225
546,-0.345,-0.215
547,-0.320,-0.205
548,-0.330,-0.205
549,-0.335,-0.215
550,-0.340,-0.225
551,-0.355,-0.220
552,-0.335,-0.225
553,-0.330,-0.195
554,-0.330,-0.215
555,-0.335,-0.220
556,-0.355,-0.215
557,-0.360,-0.225
558,-0.355,-0.215
559,-0.350,-0.210
560,-0.340,-0.210
561,-0.345,-0.225
562,-0.345,-0.230
563,-0.345,-0.220
564,-0.345,-0.210
565,-0.330,-0.205
566,-0.330,-0.200
567,-0.335,-0.205
568,-0.345,-0.220
569,-0.350,-0.230
570,-0.350,-0.215
571,-0.340,-0.205
572,-0.330,-0.200
573,-0.345,-0.230
574,-0.345,-0.220
575,-0.355,-0.215
576,-0.350,-0.205
577,-0.340,-0.200
578,-0.330,-0.205
579,-0.340,-0.220
580,-0.340,-0.220
581,-0.340,-0.225
582,-0.330,-0.205
583,-0.335,-0.200
584,-0.330,-0.200
585,-0.335,-0.210
586,-0.345,-0.230
587,-0.345,-0.215
588,-0.340,-0.200
589,-0.330,-0.200
590,-0.315,-0.205
591,-0.295,-0.210
592,-0.300,-0.215
593,-0.295,-0.220
594,-0.285,-0.205
595,-0.275,-0.200
596,-0.265,-0.195
597,-0.265,-0.205
598,-0.265,-0.205
599,-0.255,-0.205
600,-0.250,-0.180
601,-0.240,-0.170
602,-0.225,-0.190
603,-0.215,-0.190
604,-0.240,-0.200
605,-0.245,-0.185
606,-0.240,-0.165
607,-0.245,-0.145
608,-0.235,-0.145
609,-0.245,-0.170
610,-0.250,-0.175
611,-0.275,-0.170
612,-0.275,-0.165
613,-0.265,-0.150
614,-0.250,-0.160
615,-0.225,-0.175
616,-0.220,-0.190
617,-0.230,-0.190
618,-0.265,-0.185
619,-0.270,-0.185
620,-0.280,-0.175
621,-0.285,-0.195
622,-0.305,-0.215
623,-0.320,-0.205
624,-0.340,-0.200
625,-0.330,-0.195
626,-0.335,-0.205
627,-0.335,-0.210
628,-0.355,-0.220
629,-0.370,-0.215
630,-0.360,-0.210
631,-0.345,-0.205
632,-0.350,-0.200
633,-0.355,-0.210
634,-0.365,-0.220
635,-0.375,-0.220
636,-0.380,-0.220
637,-0.370,-0.200
638,-0.365,-0.205
639,-0.365,-0.215
640,-0.380,-0.225
641,-0.385,-0.220
642,-0.380,-0.215
643,-0.375,-0.205
644,-0.355,-0.220
645,-0.370,-0.225
646,-0.390,-0.240
647,-0.405,-0.260
648,-0.410,-0.280
649,-0.435,-0.300
650,-0.465,-0.345
651,-0.490,-0.375
652,-0.520,-0.345
653,-0.555,-0.260
654,-0.570,-0.125
655,-0.525,0.025
656,-0.405,0.145
657,-0.250,0.260
658,-0.090,0.375
659,0.120,0.505
660,0.410,0.635
661,0.690,0.705
662,0.885,0.610
663,0.960,0.320
664,0.850,-0.045
665,0.520,-0.250
666,0.050,-0.270
667,-0.320,-0.240
668,-0.500,-0.240
669,-0.505,-0.250
670,-0.445,-0.255
671,-0.415,-0.245
672,-0.395,-0.245
673,-0.390,-0.245
674,-0.395,-0.255
675,-0.390,-0.260
676,-0.395,-0.260
677,-0.405,-0.270
678,-0.395,-0.245
679,-0.405,-0.245
680,-0.390,-0.250
681,-0.395,-0.265
682,-0.395,-0.270
683,-0.410,-0.270
684,-0.405,-0.265
685,-0.400,-0.260
686,-0.400,-0.260
687,-0.415,-0.270
688,-0.405,-0.280
689,-0.420,-0.280
690,-0.415,-0.270
691,-0.405,-0.255
692,-0.405,-0.265
693,-0.420,-0.280
694,-0.420,-0.290
695,-0.435,-0.275
696,-0.420,-0.265
697,-0.410,-0.255
698,-0.410,-0.260
699,-0.405,-0.260
700,-0.425,-0.280
701,-0.430,-0.280
702,-0.420,-0.265
703,-0.415,-0.260
704,-0.410,-0.255
705,-0.410,-0.260
706,-0.425,-0.275
707,-0.420,-0.270
708,-0.400,-0.275
709,-0.395,-0.265
710,-0.400,-0.265
711,-0.400,-0.270
712,-0.395,-0.280
713,-0.415,-0.285
714,-0.405,-0.280
715,-0.390,-0.255
716,-0.400,-0.270
717,-0.400,-0.280
718,-0.415,-0.290
719,-0.425,-0.290
720,-0.425,-0.270
721,-0.415,-0.270
722,-0.415,-0.285
723,-0.410,-0.300
724,-0.425,-0.300
725,-0.425,-0.300
726,-0.420,-0.295
727,-0.415,-0.275
728,-0.400,-0.295
729,-0.400,-0.300
730,-0.410,-0.310
731,-0.425,-0.310
732,-0.410,-0.315
733,-0.405,-0.310
734,-0.395,-0.310
735,-0.400,-0.335
736,-0.400,-0.345
737,-0.405,-0.355
738,-0.385,-0.350
739,-0.400,-0.345
740,-0.390,-0.360
741,-0.390,-0.370
742,-0.400,-0.375
743,-0.415,-0.385
744,-0.405,-0.370
745,-0.405,-0.370
746,-0.410,-0.385
747,-0.415,-0.400
748,-0.420,-0.415
749,-0.420,-0.405
750,-0.425,-0.410
751,-0.415,-0.390
752,-0.415,-0.405
753,-0.410,-0.410
754,-0.435,-0.425
755,-0.430,-0.420
756,-0.435,-0.410
757,-0.420,-0.405
758,-0.420,-0.400
759,-0.420,-0.400
760,-0.420,-0.405
761,-0.425,-0.385
762,-0.425,-0.365
763,-0.415,-0.345
764,-0.395,-0.335
765,-0.395,-0.325
766,-0.390,-0.310
767,-0.375,-0.295
768,-0.360,-0.275
769,-0.340,-0.255
770,-0.335,-0.250
771,-0.330,-0.240
772,-0.335,-0.245
773,-0.335,-0.230
774,-0.325,-0.205
775,-0.320,-0.200
776,-0.305,-0.200
777,-0.305,-0.205
778,-0.315,-0.210
779,-0.310,-0.220
780,-0.305,-0.195
781,-0.300,-0.190
782,-0.300,-0.200
783,-0.300,-0.200
784,-0.310,-0.210
785,-0.310,-0.200
786,-0.310,-0.190
787,-0.315,-0.175
788,-0.300,-0.200
789,-0.305,-0.205
790,-0.315,-0.210
791,-0.320,-0.200
792,-0.325,-0.200
793,-0.310,-0.180
794,-0.305,-0.190
795,-0.305,-0.190
796,-0.320,-0.205
797,-0.325,-0.205
798,-0.305,-0.195
799,-0.310,-0.185
800,-0.295,-0.190
801,-0.310,-0.190
802,-0.325,-0.210
803,-0.330,-0.210
804,-0.320,-0.205
805,-0.320,-0.205
806,-0.320,-0.200
807,-0.325,-0.215
808,-0.350,-0.225
809,-0.350,-0.210
810,-0.340,-0.210
811,-0.335,-0.210
812,-0.330,-0.215
813,-0.335,-0.225
814,-0.340,-0.225
815,-0.360,-0.230
816,-0.350,-0.210
817,-0.350,-0.210
818,-0.355,-0.230
819,-0.360,-0.250
820,-0.355,-0.250
821,-0.365,-0.245
822,-0.355,-0.230
823,-0.350,-0.215
824,-0.340,-0.230
825,-0.355,-0.240
826,-0.350,-0.245
827,-0.365,-0.245
828,-0.365,-0.240
829,-0.350,-0.215
830,-0.355,-0.225
831,-0.350,-0.240
832,-0.370,-0.240
833,-0.380,-0.245
834,-0.370,-0.240
835,-0.360,-0.230
836,-0.365,-0.235
837,-0.360,-0.240
838,-0.365,-0.230
839,-0.380,-0.250
840,-0.370,-0.225
841,-0.365,-0.215
842,-0.350,-0.230
843,-0.350,-0.240
844,-0.350,-0.250
845,-0.370,-0.265
846,-0.365,-0.230
847,-0.345,-0.220
848,-0.345,-0.235
849,-0.340,-0.225
850,-0.355,-0.235
851,-0.365,-0.235
852,-0.360,-0.225
853,-0.355,-0.225
854,-0.355,-0.215
855,-0.355,-0.225
856,-0.375,-0.235
857,-0.385,-0.230
858,-0.355,-0.225
859,-0.360,-0.225
860,-0.355,-0.225
861,-0.360,-0.225
862,-0.360,-0.230
863,-0.370,-0.230
864,-0.360,-0.215
865,-0.345,-0.210
866,-0.355,-0.225
867,-0.345,-0.240
868,-0.345,-0.235
869,-0.345,-0.240
870,-0.340,-0.225
871,-0.310,-0.215
872,-0.305,-0.220
873,-0.305,-0.220
874,-0.310,-0.230
875,-0.305,-0.230
876,-0.290,-0.205
877,-0.285,-0.200
878,-0.275,-0.205
879,-0.280,-0.195
880,-0.280,-0.210
881,-0.275,-0.205
882,-0.265,-0.190
883,-0.255,-0.185
884,-0.245,-0.200
885,-0.260,-0.195
886,-0.265,-0.200
887,-0.275,-0.190
888,-0.280,-0.170
889,-0.265,-0.140
890,-0.270,-0.165
891,-0.275,-0.165
892,-0.280,-0.185
893,-0.275,-0.180
894,-0.280,-0.170
895,-0.275,-0.150
896,-0.265,-0.165
897,-0.255,-0.180
898,-0.240,-0.200
899,-0.260,-0.210
900,-0.280,-0.210
901,-0.310,-0.185
902,-0.310,-0.190
903,-0.345,-0.200
904,-0.360,-0.215
905,-0.380,-0.220
906,-0.385,-0.210
907,-0.380,-0.195
908,-0.370,-0.205
909,-0.375,-0.220
910,-0.385,-0.225
911,-0.390,-0.230
912,-0.395,-0.220
913,-0.385,-0.210
914,-0.385,-0.210
915,-0.385,-0.230
916,-0.395,-0.235
917,-0.405,-0.230
918,-0.400,-0.225
919,-0.375,-0.215
920,-0.375,-0.220
921,-0.390,-0.220
922,-0.395,-0.230
923,-0.415,-0.240
924,-0.405,-0.220
925,-0.400,-0.225
926,-0.390,-0.235
927,-0.405,-0.250
928,-0.425,-0.280
929,-0.460,-0.305
930,-0.475,-0.325
931,-0.505,-0.345
932,-0.510,-0.375
933,-0.525,-0.415
934,-0.540,-0.425
935,-0.600,-0.385
936,-0.645,-0.295
937,-0.630,-0.180
938,-0.575,-0.065
939,-0.495,0.035
940,-0.385,0.130
941,-0.270,0.240
942,-0.115,0.370
943,0.090,0.495
944,0.370,0.610
945,0.635,0.655
946,0.810,0.545
947,0.860,0.230
948,0.770,-0.105
949,0.475,-0.280
950,0.065,-0.285
951,-0.305,-0.255
952,-0.500,-0.255
953,-0.520,-0.260
954,-0.475,-0.230
955,-0.410,-0.220
956,-0.390,-0.245
957,-0.390,-0.255
958,-0.400,-0.260
959,-0.410,-0.250
960,-0.405,-0.235
961,-0.385,-0.245
962,-0.390,-0.245
963,-0.395,-0.260
964,-0.405,-0.265
965,-0.410,-0.265
966,-0.405,-0.260
967,-0.400,-0.240
968,-0.390,-0.245
969,-0.395,-0.260
970,-0.410,-0.270
971,-0.415,-0.270
972,-0.410,-0.255
973,-0.395,-0.255
974,-0.405,-0.250
975,-0.410,-0.265
976,-0.405,-0.270
977,-0.405,-0.270
978,-0.410,-0.265
979,-0.390,-0.250
980,-0.385,-0.245
981,-0.390,-0.265
982,-0.395,-0.270
983,-0.400,-0.260
984,-0.400,-0.255
985,-0.400,-0.245
986,-0.395,-0.250
987,-0.395,-0.260
988,-0.405,-0.270
989,-0.405,-0.260
990,-0.400,-0.255
991,-0.395,-0.250
992,-0.385,-0.255
993,-0.375,-0.255
994,-0.385,-0.275
995,-0.395,-0.270
996,-0.390,-0.265
997,-0.385,-0.260
998,-0.375,-0.260
999,-0.385,-0.275
1000,-0.395,-0.270
1001,-0.395,-0.260
1002,-0.385,-0.245
1003,-0.375,-0.255
1004,-0.375,-0.265
1005,-0.385,-0.265
1006,-0.395,-0.270
1007,-0.390,-0.265
1008,-0.390,-0.260
1009,-0.365,-0.270
1010,-0.375,-0.265
1011,-0.385,-0.270
1012,-0.395,-0.280
1013,-0.380,-0.285
1014,-0.385,-0.280
1015,-0.375,-0.285
1016,-0.380,-0.290
1017,-0.390,-0.310
1018,-0.380,-0.305
1019,-0.375,-0.300
1020,-0.375,-0.300
1021,-0.375,-0.310
1022,-0.375,-0.325
1023,-0.380,-0.340
1024,-0.390,-0.340
1025,-0.390,-0.325
1026,-0.365,-0.320
1027,-0.370,-0.355
1028,-0.375,-0.360
1029,-0.385,-0.380
1030,-0.390,-0.385
1031,-0.390,-0.375
1032,-0.375,-0.365
1033,-0.365,-0.375
1034,-0.385,-0.385
1035,-0.380,-0.390
1036,-0.390,-0.395
1037,-0.375,-0.385
1038,-0.375,-0.375
1039,-0.365,-0.375
1040,-0.370,-0.375
1041,-0.385,-0.380
1042,-0.395,-0.365
1043,-0.385,-0.345
1044,-0.385,-0.335
1045,-0.370,-0.315
1046,-0.365,-0.310
1047,-0.370,-0.305
1048,-0.375,-0.290
1049,-0.350,-0.270
1050,-0.335,-0.255
1051,-0.320,-0.250
1052,-0.315,-0.245
1053,-0.320,-0.235
1054,-0.325,-0.235
1055,-0.315,-0.225
1056,-0.295,-0.220
1057,-0.285,-0.195
1058,-0.300,-0.215
1059,-0.295,-0.230
1060,-0.285,-0.215
1061,-0.285,-0.205
1062,-0.280,-0.195
1063,-0.270,-0.200
1064,-0.280,-0.195
1065,-0.290,-0.195
1066,-0.295,-0.205
1067,-0.295,-0.195
1068,-0.290,-0.180
1069,-0.280,-0.190
1070,-0.290,-0.205
1071,-0.295,-0.210
1072,-0.310,-0.205
1073,-0.295,-0.180
1074,-0.285,-0.185
1075,-0.280,-0.190
1076,-0.275,-0.205
1077,-0.295,-0.215
1078,-0.305,-0.215
1079,-0.300,-0.215
1080,-0.295,-0.190
1081,-0.295,-0.210
1082,-0.285,-0.200
1083,-0.300,-0.215
1084,-0.305,-0.220
1085,-0.300,-0.225
1086,-0.295,-0.215
1087,-0.300,-0.215
1088,-0.305,-0.230
1089,-0.315,-0.225
1090,-0.310,-0.225
1091,-0.315,-0.210
1092,-0.295,-0.210
1093,-0.300,-0.215
1094,-0.310,-0.230
1095,-0.330,-0.235
1096,-0.340,-0.230
1097,-0.330,-0.220
1098,-0.320,-0.215
1099,-0.320,-0.230
1100,-0.315,-0.235
1101,-0.325,-0.250
1102,-0.335,-0.245
1103,-0.330,-0.240
1104,-0.315,-0.220
1105,-0.320,-0.230
1106,-0.320,-0.230
1107,-0.330,-0.235
1108,-0.345,-0.240
1109,-0.340,-0.235
1110,-0.335,-0.220
1111,-0.330,-0.230
1112,-0.335,-0.240
1113,-0.345,-0.255
1114,-0.350,-0.245
1115,-0.345,-0.235
1116,-0.340,-0.220
1117,-0.335,-0.230
1118,-0.335,-0.240
1119,-0.330,-0.250
1120,-0.335,-0.255
1121,-0.340,-0.240
1122,-0.335,-0.225
1123,-0.320,-0.230
1124,-0.340,-0.235
1125,-0.340,-0.240
1126,-0.350,-0.245
1127,-0.365,-0.235
1128,-0.360,-0.230
1129,-0.345,-0.235
1130,-0.345,-0.240
1131,-0.350,-0.245
1132,-0.350,-0.235
1133,-0.350,-0.235
1134,-0.340,-0.230
1135,-0.340,-0.240
1136,-0.345,-0.235
1137,-0.345,-0.245
1138,-0.380,-0.250
1139,-0.360,-0.230
1140,-0.360,-0.210
1141,-0.345,-0.230
1142,-0.345,-0.235
1143,-0.350,-0.245
1144,-0.355,-0.250
1145,-0.345,-0.245
1146,-0.330,-0.230
1147,-0.330,-0.230
1148,-0.335,-0.235
1149,-0.335,-0.250
1150,-0.340,-0.250
1151,-0.330,-0.240
1152,-0.320,-0.225
1153,-0.290,-0.230
1154,-0.290,-0.235
1155,-0.300,-0.240
1156,-0.305,-0.245
1157,-0.285,-0.240
1158,-0.280,-0.225
1159,-0.275,-0.225
1160,-0.280,-0.230
1161,-0.275,-0.230
1162,-0.270,-0.225
1163,-0.265,-0.205
1164,-0.250,-0.210
1165,-0.230,-0.220
1166,-0.245,-0.205
1167,-0.240,-0.220
1168,-0.255,-0.220
1169,-0.255,-0.210
1170,-0.245,-0.190
1171,-0.235,-0.180
1172,-0.255,-0.180
1173,-0.265,-0.185
1174,-0.260,-0.190
1175,-0.255,-0.190
1176,-0.270,-0.185
1177,-0.265,-0.205
1178,-0.280,-0.200
1179,-0.255,-0.220
1180,-0.250,-0.220
1181,-0.245,-0.220
1182,-0.265,-0.210
1183,-0.280,-0.225
1184,-0.300,-0.220
1185,-0.315,-0.240
1186,-0.325,-0.245
1187,-0.335,-0.235
1188,-0.345,-0.230
1189,-0.330,-0.245
1190,-0.335,-0.245
1191,-0.345,-0.250
1192,-0.360,-0.255
1193,-0.350,-0.230
1194,-0.340,-0.225
1195,-0.335,-0.230
1196,-0.345,-0.245
1197,-0.360,-0.255
1198,-0.365,-0.265
1199,-0.375,-0.255
1200,-0.370,-0.245
1201,-0.365,-0.260
1202,-0.365,-0.250
1203,-0.380,-0.260
1204,-0.375,-0.270
1205,-0.375,-0.240
1206,-0.365,-0.245
1207,-0.370,-0.250
1208,-0.360,-0.250
1209,-0.370,-0.250
1210,-0.380,-0.265
1211,-0.365,-0.255
1212,-0.360,-0.245
1213,-0.350,-0.255
1214,-0.355,-0.265
1215,-0.370,-0.280
1216,-0.385,-0.305
1217,-0.395,-0.320
1218,-0.430,-0.350
1219,-0.445,-0.380
1220,-0.485,-0.390
1221,-0.515,-0.345
1222,-0.565,-0.240
1223,-0.555,-0.110
1224,-0.475,-0.020
1225,-0.355,0.040
1226,-0.220,0.110
1227,-0.055,0.220
1228,0.185,0.350
1229,0.475,0.440
1230,0.705,0.395
1231,0.820,0.155
1232,0.780,-0.170
1233,0.535,-0.380
1234,0.145,-0.410
1235,-0.200,-0.355
1236,-0.420,-0.320
1237,-0.500,-0.305
1238,-0.480,-0.300
1239,-0.450,-0.295
1240,-0.410,-0.295
1241,-0.400,-0.285
1242,-0.390,-0.300
1243,-0.390,-0.310
1244,-0.400,-0.305
1245,-0.405,-0.305
1246,-0.425,-0.295
1247,-0.425,-0.270
1248,-0.405,-0.270
1249,-0.395,-0.285
1250,-0.405,-0.305
1251,-0.405,-0.310
1252,-0.415,-0.300
1253,-0.405,-0.290
1254,-0.385,-0.275
1255,-0.390,-0.285
1256,-0.395,-0.285
1257,-0.395,-0.305
1258,-0.395,-0.290
1259,-0.395,-0.290
1260,-0.385,-0.285
1261,-0.390,-0.285
1262,-0.390,-0.290
1263,-0.400,-0.300
1264,-0.425,-0.295
1265,-0.410,-0.285
1266,-0.400,-0.275
1267,-0.395,-0.290
1268,-0.400,-0.295
1269,-0.405,-0.275
1270,-0.425,-0.285
1271,-0.415,-0.285
1272,-0.405,-0.260
1273,-0.405,-0.270
1274,-0.405,-0.265
1275,-0.410,-0.285
1276,-0.415,-0.290
1277,-0.405,-0.295
1278,-0.420,-0.280
1279,-0.405,-0.290
1280,-0.410,-0.295
1281,-0.410,-0.300
1282,-0.420,-0.310
1283,-0.415,-0.305
1284,-0.405,-0.295
1285,-0.395,-0.300
1286,-0.395,-0.280
1287,-0.395,-0.290
1288,-0.400,-0.305
1289,-0.395,-0.290
1290,-0.395,-0.285
1291,-0.405,-0.305
1292,-0.405,-0.310
1293,-0.420,-0.315
1294,-0.435,-0.305
1295,-0.415,-0.295
1296,-0.405,-0.290
1297,-0.395,-0.295
1298,-0.390,-0.300
1299,-0.415,-0.305
1300,-0.405,-0.325
1301,-0.405,-0.310
1302,-0.400,-0.300
1303,-0.395,-0.310
1304,-0.395,-0.335
1305,-0.405,-0.340
1306,-0.420,-0.350
1307,-0.415,-0.355
1308,-0.400,-0.340
1309,-0.395,-0.350
1310,-0.400,-0.365
1311,-0.405,-0.380
1312,-0.425,-0.400
1313,-0.425,-0.385
1314,-0.425,-0.380
1315,-0.420,-0.390
1316,-0.425,-0.400
1317,-0.450,-0.405
1318,-0.445,-0.405
1319,-0.450,-0.405
1320,-0.435,-0.415
1321,-0.445,-0.415
1322,-0.470,-0.420
1323,-0.455,-0.415
1324,-0.460,-0.425
1325,-0.440,-0.410
1326,-0.435,-0.395
1327,-0.425,-0.385
1328,-0.430,-0.405
1329,-0.445,-0.395
1330,-0.450,-0.395
1331,-0.445,-0.375
1332,-0.430,-0.370
1333,-0.420,-0.375
1334,-0.410,-0.375
1335,-0.425,-0.370
1336,-0.420,-0.360
1337,-0.405,-0.345
1338,-0.380,-0.320
1339,-0.370,-0.305
1340,-0.365,-0.305
1341,-0.365,-0.300
1342,-0.365,-0.285
1343,-0.345,-0.275
1344,-0.330,-0.260
1345,-0.315,-0.245
1346,-0.305,-0.245
1347,-0.305,-0.250
1348,-0.320,-0.255
1349,-0.310,-0.245
1350,-0.310,-0.230
1351,-0.305,-0.235
1352,-0.310,-0.245
1353,-0.315,-0.255
1354,-0.320,-0.255
1355,-0.315,-0.225
1356,-0.305,-0.230
1357,-0.305,-0.235
1358,-0.295,-0.240
1359,-0.310,-0.250
1360,-0.320,-0.245
1361,-0.310,-0.225
1362,-0.315,-0.215
1363,-0.295,-0.220
1364,-0.300,-0.240
1365,-0.305,-0.250
1366,-0.300,-0.255
1367,-0.285,-0.245
1368,-0.280,-0.240
1369,-0.290,-0.235
1370,-0.295,-0.245
1371,-0.305,-0.255
1372,-0.325,-0.250
1373,-0.305,-0.235
1374,-0.300,-0.230
1375,-0.300,-0.250
1376,-0.315,-0.260
1377,-0.325,-0.275
1378,-0.335,-0.280
1379,-0.325,-0.275
1380,-0.315,-0.260
1381,-0.320,-0.270
1382,-0.335,-0.255
1383,-0.330,-0.265
1384,-0.340,-0.255
1385,-0.325,-0.265
1386,-0.325,-0.260
1387,-0.320,-0.265
1388,-0.315,-0.265
1389,-0.335,-0.275
1390,-0.335,-0.270
1391,-0.345,-0.265
1392,-0.335,-0.255
1393,-0.325,-0.255
1394,-0.330,-0.265
1395,-0.315,-0.275
1396,-0.335,-0.290
1397,-0.330,-0.275
1398,-0.330,-0.260
1399,-0.330,-0.270
1400,-0.330,-0.265
1401,-0.335,-0.270
1402,-0.340,-0.265
1403,-0.330,-0.265
1404,-0.320,-0.250
1405,-0.315,-0.265
1406,-0.325,-0.265
1407,-0.335,-0.270
1408,-0.355,-0.270
1409,-0.345,-0.265
1410,-0.340,-0.255
1411,-0.335,-0.260
1412,-0.320,-0.255
1413,-0.325,-0.270
1414,-0.350,-0.270
1415,-0.330,-0.285
1416,-0.315,-0.265
1417,-0.315,-0.260
1418,-0.330,-0.265
1419,-0.330,-0.270
1420,-0.335,-0.265
1421,-0.335,-0.260
1422,-0.330,-0.250
1423,-0.330,-0.265
1424,-0.330,-0.265
1425,-0.340,-0.270
1426,-0.340,-0.265
1427,-0.340,-0.255
1428,-0.325,-0.245
1429,-0.325,-0.255
1430,-0.325,-0.275
1431,-0.345,-0.275
1432,-0.350,-0.275
1433,-0.340,-0.255
1434,-0.330,-0.255
1435,-0.320,-0.260
1436,-0.310,-0.265
1437,-0.305,-0.285
1438,-0.305,-0.280
1439,-0.275,-0.265
1440,-0.270,-0.260
1441,-0.255,-0.255
1442,-0.260,-0.250
1443,-0.265,-0.255
1444,-0.260,-0.250
1445,-0.250,-0.240
1446,-0.235,-0.230
1447,-0.235,-0.235
1448,-0.220,-0.225
1449,-0.235,-0.235
1450,-0.235,-0.240
1451,-0.220,-0.225
1452,-0.230,-0.215
1453,-0.225,-0.235
1454,-0.235,-0.230
1455,-0.245,-0.225
1456,-0.255,-0.215
1457,-0.240,-0.205
1458,-0.230,-0.200
1459,-0.230,-0.210
1460,-0.250,-0.225
1461,-0.255,-0.230
1462,-0.250,-0.225
1463,-0.230,-0.215
1464,-0.205,-0.210
1465,-0.195,-0.235
1466,-0.210,-0.240
1467,-0.230,-0.255
1468,-0.270,-0.245
1469,-0.270,-0.235
1470,-0.285,-0.230
1471,-0.285,-0.235
1472,-0.310,-0.245
1473,-0.330,-0.270
1474,-0.340,-0.260
1475,-0.340,-0.250
1476,-0.345,-0.240
1477,-0.350,-0.240
1478,-0.350,-0.255
1479,-0.340,-0.260
1480,-0.355,-0.265
1481,-0.345,-0.255
1482,-0.340,-0.245
1483,-0.340,-0.245
1484,-0.345,-0.260
1485,-0.355,-0.255
1486,-0.370,-0.260
1487,-0.355,-0.255
1488,-0.370,-0.240
1489,-0.345,-0.240
1490,-0.340,-0.260
1491,-0.360,-0.260
1492,-0.380,-0.250
1493,-0.360,-0.240
1494,-0.345,-0.235
1495,-0.350,-0.240
1496,-0.350,-0.255
1497,-0.355,-0.270
1498,-0.380,-0.285
1499,-0.390,-0.290
1500,-0.395,-0.310
1501,-0.425,-0.330
1502,-0.455,-0.365
1503,-0.475,-0.370
1504,-0.510,-0.350
1505,-0.545,-0.260
1506,-0.540,-0.135
1507,-0.495,-0.020
1508,-0.405,0.035
1509,-0.295,0.095
1510,-0.160,0.185
1511,0.040,0.315
1512,0.315,0.450
1513,0.595,0.515
1514,0.800,0.450
1515,0.885,0.175
1516,0.795,-0.180
1517,0.520,-0.385
1518,0.130,-0.395
1519,-0.215,-0.345
1520,-0.425,-0.310
1521,-0.500,-0.290
1522,-0.490,-0.275
1523,-0.450,-0.265
1524,-0.400,-0.235
1525,-0.390,-0.250
1526,-0.395,-0.265
1527,-0.395,-0.255
1528,-0.400,-0.245
1529,-0.390,-0.240
1530,-0.380,-0.240
1531,-0.385,-0.250
1532,-0.385,-0.260
1533,-0.400,-0.265
1534,-0.410,-0.275
1535,-0.410,-0.255
1536,-0.390,-0.240
1537,-0.390,-0.245
1538,-0.405,-0.260
1539,-0.405,-0.260
1540,-0.415,-0.265
1541,-0.410,-0.250
1542,-0.395,-0.250
1543,-0.395,-0.245
1544,-0.400,-0.250
1545,-0.415,-0.265
1546,-0.415,-0.255
1547,-0.415,-0.250
1548,-0.400,-0.245
1549,-0.390,-0.245
1550,-0.390,-0.255
1551,-0.410,-0.260
1552,-0.415,-0.250
1553,-0.405,-0.240
1554,-0.395,-0.215
1555,-0.395,-0.230
1556,-0.395,-0.250
1557,-0.405,-0.250
1558,-0.410,-0.255
1559,-0.410,-0.240
1560,-0.400,-0.220
1561,-0.390,-0.235
1562,-0.395,-0.235
1563,-0.410,-0.240
1564,-0.425,-0.255
1565,-0.415,-0.245
1566,-0.405,-0.225
1567,-0.410,-0.230
1568,-0.405,-0.235
1569,-0.415,-0.240
1570,-0.425,-0.240
1571,-0.425,-0.240
1572,-0.410,-0.230
1573,-0.395,-0.245
1574,-0.390,-0.255
1575,-0.400,-0.250
1576,-0.410,-0.250
1577,-0.410,-0.235
1578,-0.400,-0.240
1579,-0.390,-0.235
1580,-0.410,-0.255
1581,-0.420,-0.255
1582,-0.420,-0.255
1583,-0.415,-0.250
1584,-0.415,-0.235
1585,-0.405,-0.260
1586,-0.420,-0.255
1587,-0.415,-0.270
1588,-0.425,-0.285
1589,-0.410,-0.285
1590,-0.400,-0.280
1591,-0.405,-0.285
1592,-0.400,-0.285
1593,-0.400,-0.305
1594,-0.410,-0.295
1595,-0.400,-0.285
1596,-0.395,-0.290
1597,-0.395,-0.305
1598,-0.405,-0.320
1599,-0.410,-0.335
1600,-0.425,-0.340
1601,-0.425,-0.315
1602,-0.410,-0.315
1603,-0.410,-0.330
1604,-0.420,-0.345
1605,-0.430,-0.350
1606,-0.445,-0.355
1607,-0.440,-0.365
1608,-0.435,-0.355
1609,-0.430,-0.365
1610,-0.430,-0.370
1611,-0.450,-0.375
1612,-0.445,-0.375
1613,-0.445,-0.370
1614,-0.435,-0.355
1615,-0.435,-0.360
1616,-0.445,-0.340
1617,-0.440,-0.340
1618,-0.450,-0.330
1619,-0.430,-0.315
1620,-0.430,-0.290
1621,-0.415,-0.275
1622,-0.400,-0.265
1623,-0.400,-0.260
1624,-0.385,-0.245
1625,-0.365,-0.225
1626,-0.335,-0.205
1627,-0.330,-0.200
1628,-0.325,-0.190
1629,-0.330,-0.200
1630,-0.330,-0.185
1631,-0.310,-0.175
1632,-0.295,-0.160
1633,-0.285,-0.155
1634,-0.290,-0.165
1635,-0.290,-0.160
1636,-0.310,-0.170
1637,-0.295,-0.150
1638,-0.285,-0.145
1639,-0.280,-0.150
1640,-0.300,-0.145
1641,-0.290,-0.145
1642,-0.295,-0.155
1643,-0.290,-0.150
1644,-0.280,-0.135
1645,-0.275,-0.145
1646,-0.275,-0.145
1647,-0.290,-0.150
1648,-0.290,-0.145
1649,-0.285,-0.140
1650,-0.270,-0.130
1651,-0.270,-0.135
1652,-0.270,-0.140
1653,-0.275,-0.145
1654,-0.290,-0.165
1655,-0.285,-0.155
1656,-0.275,-0.145
1657,-0.275,-0.150
1658,-0.290,-0.160
1659,-0.295,-0.160
1660,-0.305,-0.160
1661,-0.295,-0.145
1662,-0.295,-0.140
1663,-0.285,-0.150
1664,-0.290,-0.165
1665,-0.300,-0.170
1666,-0.305,-0.165
1667,-0.310,-0.165
1668,-0.295,-0.150
1669,-0.300,-0.150
1670,-0.305,-0.165
1671,-0.310,-0.170
1672,-0.325,-0.180
1673,-0.325,-0.165
1674,-0.315,-0.155
1675,-0.310,-0.160
1676,-0.315,-0.165
1677,-0.315,-0.175
1678,-0.325,-0.180
1679,-0.320,-0.165
1680,-0.310,-0.150
1681,-0.320,-0.170
1682,-0.315,-0.170
1683,-0.330,-0.185
1684,-0.330,-0.175
1685,-0.320,-0.175
1686,-0.310,-0.160
1687,-0.310,-0.165
1688,-0.310,-0.170
1689,-0.330,-0.180
1690,-0.335,-0.175
1691,-0.330,-0.170
1692,-0.320,-0.160
1693,-0.325,-0.160
1694,-0.325,-0.170
1695,-0.330,-0.190
1696,-0.335,-0.165
1697,-0.330,-0.160
1698,-0.325,-0.155
1699,-0.325,-0.160
1700,-0.320,-0.155
1701,-0.325,-0.165
1702,-0.330,-0.185
1703,-0.325,-0.175
1704,-0.315,-0.150
1705,-0.305,-0.155
1706,-0.325,-0.165
1707,-0.315,-0.170
1708,-0.335,-0.170
1709,-0.330,-0.165
1710,-0.310,-0.150
1711,-0.320,-0.160
1712,-0.330,-0.170
1713,-0.330,-0.175
1714,-0.335,-0.180
1715,-0.330,-0.155
1716,-0.330,-0.150
1717,-0.320,-0.145
1718,-0.320,-0.160
1719,-0.330,-0.165
1720,-0.330,-0.160
1721,-0.325,-0.160
1722,-0.315,-0.145
1723,-0.315,-0.150
1724,-0.315,-0.150
1725,-0.330,-0.160
1726,-0.330,-0.160
1727,-0.320,-0.150
1728,-0.315,-0.150
1729,-0.305,-0.150
1730,-0.305,-0.155
1731,-0.295,-0.160
1732,-0.315,-0.160
1733,-0.300,-0.150
1734,-0.275,-0.130
1735,-0.255,-0.150
1736,-0.255,-0.155
1737,-0.260,-0.160
1738,-0.265,-0.150
1739,-0.255,-0.125
1740,-0.235,-0.120
1741,-0.230,-0.115
1742,-0.225,-0.125
1743,-0.220,-0.135
1744,-0.220,-0.140
1745,-0.215,-0.130
1746,-0.200,-0.105
1747,-0.205,-0.105
1748,-0.205,-0.100
1749,-0.225,-0.105
1750,-0.235,-0.090
1751,-0.240,-0.080
1752,-0.230,-0.075
1753,-0.215,-0.090
1754,-0.240,-0.090
1755,-0.240,-0.100
1756,-0.250,-0.100
1757,-0.235,-0.095
1758,-0.210,-0.090
1759,-0.200,-0.110
1760,-0.220,-0.125
1761,-0.255,-0.130
1762,-0.275,-0.120
1763,-0.285,-0.120
1764,-0.300,-0.110
1765,-0.305,-0.110
1766,-0.320,-0.120
1767,-0.330,-0.130
1768,-0.325,-0.140
1769,-0.320,-0.145
1770,-0.330,-0.125
1771,-0.330,-0.130
1772,-0.335,-0.150
1773,-0.340,-0.145
1774,-0.345,-0.140
1775,-0.340,-0.140
1776,-0.335,-0.120
1777,-0.320,-0.135
1778,-0.325,-0.145
1779,-0.335,-0.160
1780,-0.345,-0.150
1781,-0.345,-0.135
1782,-0.345,-0.125
1783,-0.335,-0.135
1784,-0.340,-0.145
1785,-0.345,-0.150
1786,-0.355,-0.160
1787,-0.340,-0.145
1788,-0.340,-0.135
1789,-0.340,-0.135
1790,-0.340,-0.125
1791,-0.345,-0.160
1792,-0.355,-0.175
1793,-0.365,-0.195
1794,-0.370,-0.210
1795,-0.405,-0.230
1796,-0.445,-0.270
1797,-0.480,-0.290
1798,-0.495,-0.280
1799,-0.520,-0.195
1800,-0.535,-0.050
1801,-0.505,0.085
1802,-0.415,0.195
1803,-0.280,0.305
1804,-0.135,0.420
1805,0.065,0.565
1806,0.300,0.705
1807,0.580,0.800
1808,0.810,0.795
1809,0.945,0.595
1810,0.920,0.235
1811,0.775,-0.075
1812,0.445,-0.190
1813,0.020,-0.185
1814,-0.295,-0.155
1815,-0.445,-0.170
1816,-0.470,-0.165
1817,-0.425,-0.155
1818,-0.380,-0.145
1819,-0.360,-0.155
1820,-0.360,-0.190
1821,-0.370,-0.200
1822,-0.380,-0.195
1823,-0.380,-0.175
1824,-0.375,-0.175
1825,-0.370,-0.180
1826,-0.365,-0.185
1827,-0.370,-0.200
1828,-0.385,-0.195
1829,-0.385,-0.200
1830,-0.375,-0.195
1831,-0.370,-0.190
1832,-0.370,-0.195
1833,-0.385,-0.200
1834,-0.395,-0.200
1835,-0.385,-0.190
1836,-0.385,-0.180
1837,-0.390,-0.185
1838,-0.385,-0.195
1839,-0.395,-0.210
1840,-0.410,-0.210
1841,-0.400,-0.175
1842,-0.395,-0.190
1843,-0.380,-0.185
1844,-0.395,-0.185
1845,-0.395,-0.195
1846,-0.400,-0.200
1847,-0.400,-0.195
1848,-0.395,-0.180
1849,-0.390,-0.190
1850,-0.390,-0.195
1851,-0.395,-0.190
1852,-0.405,-0.195
1853,-0.390,-0.175
1854,-0.385,-0.175
1855,-0.375,-0.185
1856,-0.375,-0.190
1857,-0.380,-0.195
1858,-0.390,-0.190
1859,-0.385,-0.185
1860,-0.370,-0.170
1861,-0.370,-0.170
1862,-0.370,-0.190
1863,-0.375,-0.200
1864,-0.385,-0.200
1865,-0.370,-0.180
1866,-0.390,-0.175
1867,-0.375,-0.195
1868,-0.370,-0.175
1869,-0.380,-0.190
1870,-0.390,-0.190
1871,-0.390,-0.190
1872,-0.385,-0.180
1873,-0.375,-0.190
1874,-0.375,-0.210
1875,-0.385,-0.205
1876,-0.395,-0.200
1877,-0.390,-0.210
1878,-0.385,-0.195
1879,-0.375,-0.205
1880,-0.380,-0.215
1881,-0.385,-0.230
1882,-0.390,-0.215
1883,-0.380,-0.225
1884,-0.380,-0.205
1885,-0.370,-0.215
1886,-0.370,-0.235
1887,-0.365,-0.245
1888,-0.390,-0.245
1889,-0.365,-0.240
1890,-0.365,-0.245
1891,-0.360,-0.235
1892,-0.375,-0.260
1893,-0.380,-0.265
1894,-0.400,-0.270
1895,-0.390,-0.265
1896,-0.375,-0.265
1897,-0.375,-0.270
1898,-0.370,-0.285
1899,-0.385,-0.300
1900,-0.390,-0.295
1901,-0.390,-0.295
1902,-0.390,-0.295
1903,-0.390,-0.305
1904,-0.375,-0.310
1905,-0.385,-0.320
1906,-0.395,-0.325
1907,-0.380,-0.320
1908,-0.370,-0.310
1909,-0.375,-0.320
1910,-0.375,-0.320
1911,-0.390,-0.325
1912,-0.405,-0.310
1913,-0.375,-0.280
1914,-0.370,-0.280
1915,-0.360,-0.280
1916,-0.375,-0.265
1917,-0.385,-0.265
1918,-0.380,-0.250
1919,-0.370,-0.225
1920,-0.360,-0.200
1921,-0.345,-0.195
1922,-0.345,-0.190
1923,-0.330,-0.180
1924,-0.330,-0.170
1925,-0.315,-0.150
1926,-0.310,-0.135
1927,-0.295,-0.115
1928,-0.285,-0.125
1929,-0.285,-0.130
1930,-0.295,-0.120
1931,-0.280,-0.105
1932,-0.270,-0.100
1933,-0.280,-0.100
1934,-0.280,-0.100
1935,-0.280,-0.115
1936,-0.290,-0.120
1937,-0.290,-0.105
1938,-0.280,-0.100
1939,-0.275,-0.105
1940,-0.280,-0.115
1941,-0.285,-0.120
1942,-0.290,-0.110
1943,-0.290,-0.105
1944,-0.280,-0.095
1945,-0.280,-0.100
1946,-0.285,-0.110
1947,-0.290,-0.120
1948,-0.300,-0.120
1949,-0.295,-0.115
1950,-0.285,-0.105
1951,-0.280,-0.105
1952,-0.285,-0.095
1953,-0.285,-0.105
1954,-0.295,-0.120
1955,-0.285,-0.115
1956,-0.280,-0.105
1957,-0.275,-0.110
1958,-0.280,-0.125
1959,-0.290,-0.115
1960,-0.310,-0.130
1961,-0.305,-0.115
1962,-0.285,-0.095
1963,-0.270,-0.100
1964,-0.270,-0.110
1965,-0.275,-0.115
1966,-0.285,-0.115
1967,-0.285,-0.105
1968,-0.270,-0.100
1969,-0.265,-0.110
1970,-0.265,-0.100
1971,-0.265,-0.100
1972,-0.280,-0.105
1973,-0.265,-0.095
1974,-0.245,-0.095
1975,-0.235,-0.095
1976,-0.235,-0.110
1977,-0.250,-0.115
1978,-0.250,-0.110
1979,-0.245,-0.105
1980,-0.215,-0.105
1981,-0.220,-0.115
1982,-0.245,-0.115
1983,-0.255,-0.135
1984,-0.230,-0.125
1985,-0.205,-0.135
1986,-0.210,-0.125
1987,-0.220,-0.130
1988,-0.230,-0.150
1989,-0.240,-0.155
1990,-0.240,-0.165
1991,-0.245,-0.165
1992,-0.250,-0.170
1993,-0.270,-0.175
1994,-0.285,-0.170
1995,-0.315,-0.175
1996,-0.320,-0.170
1997,-0.320,-0.165
1998,-0.310,-0.160
1999,-0.330,-0.160
2000,-0.340,-0.170
2001,-0.345,-0.180
2002,-0.360,-0.170
2003,-0.365,-0.155
2004,-0.360,-0.155
2005,-0.350,-0.160
2006,-0.355,-0.160
2007,-0.375,-0.175
2008,-0.385,-0.170
2009,-0.375,-0.155
2010,-0.370,-0.150
2011,-0.365,-0.160
2012,-0.365,-0.155
2013,-0.370,-0.165
2014,-0.380,-0.160
2015,-0.360,-0.150
2016,-0.350,-0.150
2017,-0.355,-0.145
2018,-0.355,-0.155
2019,-0.350,-0.165
2020,-0.365,-0.155
2021,-0.350,-0.135
2022,-0.350,-0.130
2023,-0.340,-0.145
2024,-0.355,-0.155
2025,-0.350,-0.160
2026,-0.375,-0.160
2027,-0.365,-0.175
2028,-0.375,-0.190
2029,-0.400,-0.235
2030,-0.430,-0.250
2031,-0.475,-0.295
2032,-0.520,-0.315
2033,-0.520,-0.295
2034,-0.550,-0.190
2035,-0.570,-0.085
2036,-0.540,0.060
2037,-0.445,0.175
2038,-0.305,0.265
2039,-0.140,0.380
2040,0.025,0.485
2041,0.260,0.590
2042,0.510,0.665
2043,0.735,0.665
2044,0.845,0.500
2045,0.875,0.205
2046,0.735,-0.075
2047,0.400,-0.215
2048,-0.025,-0.205
2049,-0.335,-0.180
2050,-0.480,-0.175
2051,-0.470,-0.165
2052,-0.415,-0.145
2053,-0.375,-0.145
2054,-0.365,-0.160
2055,-0.385,-0.165
2056,-0.400,-0.170
2057,-0.380,-0.155
2058,-0.390,-0.155
2059,-0.375,-0.155
2060,-0.385,-0.170
2061,-0.395,-0.175
2062,-0.405,-0.170
2063,-0.390,-0.155
2064,-0.380,-0.155
2065,-0.385,-0.160
2066,-0.385,-0.165
2067,-0.395,-0.180
2068,-0.400,-0.175
2069,-0.405,-0.170
2070,-0.400,-0.160
2071,-0.390,-0.160
2072,-0.390,-0.170
2073,-0.395,-0.180
2074,-0.400,-0.180
2075,-0.390,-0.170
2076,-0.385,-0.165
2077,-0.390,-0.165
2078,-0.385,-0.175
2079,-0.410,-0.180
2080,-0.420,-0.185
2081,-0.405,-0.170
2082,-0.410,-0.160
2083,-0.390,-0.165
2084,-0.390,-0.175
2085,-0.390,-0.175
2086,-0.400,-0.175
2087,-0.400,-0.180
2088,-0.390,-0.170
2089,-0.375,-0.160
2090,-0.380,-0.170
2091,-0.395,-0.180
2092,-0.400,-0.185
2093,-0.390,-0.170
2094,-0.400,-0.160
2095,-0.390,-0.180
2096,-0.395,-0.180
2097,-0.410,-0.185
2098,-0.415,-0.185
2099,-0.405,-0.165
2100,-0.385,-0.155
2101,-0.385,-0.170
2102,-0.380,-0.175
2103,-0.400,-0.195
2104,-0.400,-0.195
2105,-0.395,-0.190
2106,-0.390,-0.175
2107,-0.380,-0.175
2108,-0.375,-0.190
2109,-0.395,-0.190
2110,-0.395,-0.190
2111,-0.385,-0.185
2112,-0.380,-0.190
2113,-0.375,-0.215
2114,-0.385,-0.220
2115,-0.390,-0.215
2116,-0.400,-0.225
2117,-0.400,-0.215
2118,-0.385,-0.200
2119,-0.380,-0.230
2120,-0.395,-0.225
2121,-0.390,-0.245
2122,-0.400,-0.240
2123,-0.395,-0.245
2124,-0.385,-0.220
2125,-0.380,-0.245
2126,-0.385,-0.260
2127,-0.395,-0.280
2128,-0.405,-0.280
2129,-0.400,-0.285
2130,-0.390,-0.270
2131,-0.380,-0.285
2132,-0.380,-0.295
2133,-0.385,-0.305
2134,-0.405,-0.305
2135,-0.395,-0.315
2136,-0.400,-0.305
2137,-0.390,-0.310
2138,-0.400,-0.330
2139,-0.405,-0.325
2140,-0.425,-0.330
2141,-0.420,-0.315
2142,-0.405,-0.310
2143,-0.400,-0.315
2144,-0.405,-0.310
2145,-0.405,-0.320
2146,-0.415,-0.305
2147,-0.400,-0.290
2148,-0.390,-0.275
2149,-0.380,-0.270
2150,-0.385,-0.265
2151,-0.395,-0.265
2152,-0.405,-0.255
2153,-0.390,-0.245
2154,-0.370,-0.225
2155,-0.370,-0.215
2156,-0.370,-0.215
2157,-0.385,-0.215
2158,-0.370,-0.210
2159,-0.355,-0.205
2160,-0.345,-0.185
2161,-0.340,-0.180
2162,-0.335,-0.190
2163,-0.340,-0.190
2164,-0.355,-0.170
2165,-0.335,-0.155
2166,-0.325,-0.140
2167,-0.310,-0.145
2168,-0.305,-0.165
2169,-0.305,-0.160
2170,-0.320,-0.160
2171,-0.315,-0.150
2172,-0.310,-0.145
2173,-0.305,-0.140
2174,-0.305,-0.150
2175,-0.330,-0.150
2176,-0.325,-0.170
2177,-0.345,-0.155
2178,-0.325,-0.145
2179,-0.315,-0.130
2180,-0.315,-0.140
2181,-0.305,-0.150
2182,-0.310,-0.145
2183,-0.310,-0.150
2184,-0.300,-0.135
2185,-0.305,-0.140
2186,-0.305,-0.155
2187,-0.315,-0.150
2188,-0.320,-0.165
2189,-0.325,-0.145
2190,-0.315,-0.145
2191,-0.305,-0.155
2192,-0.315,-0.160
2193,-0.325,-0.160
2194,-0.325,-0.175
2195,-0.330,-0.155
2196,-0.315,-0.155
2197,-0.315,-0.150
2198,-0.310,-0.160
2199,-0.330,-0.165
2200,-0.340,-0.165
2201,-0.335,-0.175
2202,-0.330,-0.165
2203,-0.345,-0.165
2204,-0.355,-0.165
2205,-0.365,-0.170
2206,-0.370,-0.165
2207,-0.345,-0.160
2208,-0.340,-0.160
2209,-0.340,-0.165
2210,-0.345,-0.170
2211,-0.360,-0.195
2212,-0.365,-0.185
2213,-0.360,-0.180
2214,-0.360,-0.170
2215,-0.345,-0.165
2216,-0.355,-0.185
2217,-0.365,-0.180
2218,-0.350,-0.185
2219,-0.360,-0.170
2220,-0.350,-0.175
2221,-0.340,-0.175
2222,-0.345,-0.175
2223,-0.355,-0.180
2224,-0.370,-0.175
2225,-0.350,-0.155
2226,-0.350,-0.160
2227,-0.350,-0.170
2228,-0.345,-0.180
2229,-0.350,-0.200
2230,-0.355,-0.195
2231,-0.360,-0.165
2232,-0.345,-0.160
2233,-0.355,-0.160
2234,-0.350,-0.165
2235,-0.360,-0.185
2236,-0.370,-0.190
2237,-0.355,-0.180
2238,-0.355,-0.170
2239,-0.350,-0.170
2240,-0.355,-0.170
2241,-0.360,-0.180
2242,-0.390,-0.180
2243,-0.385,-0.170
2244,-0.360,-0.180
2245,-0.360,-0.180
2246,-0.370,-0.200
2247,-0.370,-0.195
2248,-0.390,-0.195
2249,-0.375,-0.155
2250,-0.370,-0.145
2251,-0.350,-0.165
2252,-0.340,-0.180
2253,-0.345,-0.185
2254,-0.360,-0.180
2255,-0.360,-0.170
2256,-0.350,-0.160
2257,-0.350,-0.160
2258,-0.335,-0.170
2259,-0.360,-0.180
2260,-0.365,-0.190
2261,-0.365,-0.180
2262,-0.360,-0.165
2263,-0.360,-0.170
2264,-0.365,-0.185
2265,-0.375,-0.195
2266,-0.385,-0.185
2267,-0.385,-0.185
2268,-0.365,-0.185
2269,-0.370,-0.185
2270,-0.375,-0.190
2271,-0.370,-0.180
2272,-0.375,-0.190
2273,-0.365,-0.190
2274,-0.355,-0.180
2275,-0.355,-0.190
2276,-0.360,-0.190
2277,-0.365,-0.195
2278,-0.370,-0.195
2279,-0.360,-0.185
2280,-0.350,-0.175
2281,-0.340,-0.195
2282,-0.345,-0.180
2283,-0.340,-0.180
2284,-0.350,-0.185
2285,-0.345,-0.190
2286,-0.350,-0.175
2287,-0.360,-0.190
2288,-0.350,-0.190
2289,-0.360,-0.210
2290,-0.370,-0.205
2291,-0.360,-0.185
2292,-0.360,-0.180
2293,-0.355,-0.180
2294,-0.360,-0.190
2295,-0.375,-0.215
2296,-0.375,-0.220
2297,-0.370,-0.205
2298,-0.350,-0.195
2299,-0.355,-0.190
2300,-0.360,-0.195
2301,-0.365,-0.215
2302,-0.375,-0.235
2303,-0.370,-0.210
2304,-0.365,-0.200
2305,-0.360,-0.210
2306,-0.355,-0.205
2307,-0.360,-0.215
2308,-0.360,-0.215
2309,-0.350,-0.205
2310,-0.340,-0.200
2311,-0.345,-0.190
2312,-0.345,-0.220
2313,-0.355,-0.225
2314,-0.360,-0.225
2315,-0.360,-0.205
2316,-0.365,-0.200
2317,-0.345,-0.205
2318,-0.355,-0.205
2319,-0.350,-0.210
2320,-0.360,-0.210
2321,-0.355,-0.195
2322,-0.360,-0.195
2323,-0.345,-0.195
2324,-0.335,-0.200
2325,-0.330,-0.225
2326,-0.330,-0.225
2327,-0.310,-0.205
2328,-0.305,-0.190
2329,-0.300,-0.195
2330,-0.305,-0.190
2331,-0.295,-0.200
2332,-0.305,-0.185
2333,-0.285,-0.180
2334,-0.275,-0.165
2335,-0.265,-0.170
2336,-0.255,-0.180
2337,-0.255,-0.175
2338,-0.260,-0.170
2339,-0.265,-0.165
2340,-0.255,-0.150
2341,-0.255,-0.155
2342,-0.260,-0.165
2343,-0.280,-0.170
2344,-0.290,-0.165
2345,-0.280,-0.165
2346,-0.270,-0.155
2347,-0.255,-0.170
2348,-0.275,-0.180
2349,-0.290,-0.170
2350,-0.320,-0.165
2351,-0.300,-0.160
2352,-0.295,-0.160
2353,-0.270,-0.180
2354,-0.265,-0.190
2355,-0.270,-0.205
2356,-0.285,-0.190
2357,-0.300,-0.190
2358,-0.310,-0.170
2359,-0.315,-0.185
2360,-0.320,-0.190
2361,-0.350,-0.195
2362,-0.370,-0.225
2363,-0.365,-0.215
2364,-0.365,-0.200
2365,-0.365,-0.205
2366,-0.370,-0.205
2367,-0.370,-0.205
2368,-0.370,-0.220
2369,-0.380,-0.210
2370,-0.360,-0.210
2371,-0.375,-0.210
2372,-0.375,-0.215
2373,-0.400,-0.225
2374,-0.420,-0.235
2375,-0.405,-0.230
2376,-0.400,-0.205
2377,-0.385,-0.215
2378,-0.380,-0.225
2379,-0.400,-0.225
2380,-0.415,-0.220
2381,-0.405,-0.220
2382,-0.395,-0.215
2383,-0.395,-0.225
2384,-0.395,-0.225
2385,-0.410,-0.255
2386,-0.430,-0.275
2387,-0.440,-0.290
2388,-0.455,-0.290
2389,-0.490,-0.315
2390,-0.485,-0.330
2391,-0.520,-0.305
2392,-0.570,-0.245
2393,-0.575,-0.115
2394,-0.525,-0.025
2395,-0.420,0.030
2396,-0.305,0.080
2397,-0.190,0.155
2398,-0.020,0.265
2399,0.220,0.385
2400,0.485,0.500
2401,0.715,0.545
2402,0.845,0.450
2403,0.885,0.215
2404,0.790,-0.090
2405,0.560,-0.325
2406,0.225,-0.390
2407,-0.070,-0.385
2408,-0.285,-0.365
2409,-0.425,-0.335
2410,-0.500,-0.295
2411,-0.550,-0.285
2412,-0.535,-0.270
2413,-0.500,-0.265
2414,-0.465,-0.270
2415,-0.450,-0.275
2416,-0.450,-0.285
2417,-0.435,-0.265
2418,-0.420,-0.250
2419,-0.410,-0.260
2420,-0.410,-0.260
2421,-0.415,-0.265
2422,-0.420,-0.270
2423,-0.425,-0.265
2424,-0.420,-0.245
2425,-0.430,-0.260
2426,-0.430,-0.255
2427,-0.440,-0.280
2428,-0.450,-0.260
2429,-0.450,-0.250
2430,-0.430,-0.250
2431,-0.430,-0.255
2432,-0.430,-0.255
2433,-0.445,-0.260
2434,-0.445,-0.260
2435,-0.440,-0.255
2436,-0.425,-0.225
2437,-0.430,-0.240
2438,-0.430,-0.245
2439,-0.425,-0.265
2440,-0.445,-0.275
2441,-0.445,-0.250
2442,-0.430,-0.245
2443,-0.435,-0.230
2444,-0.435,-0.240
2445,-0.445,-0.255
2446,-0.445,-0.250
2447,-0.435,-0.250
2448,-0.430,-0.245
2449,-0.425,-0.235
2450,-0.430,-0.240
2451,-0.430,-0.250
2452,-0.440,-0.250
2453,-0.420,-0.245
2454,-0.430,-0.220
2455,-0.425,-0.245
2456,-0.430,-0.245
2457,-0.440,-0.240
2458,-0.440,-0.255
2459,-0.430,-0.245
2460,-0.430,-0.225
2461,-0.415,-0.240
2462,-0.425,-0.250
2463,-0.430,-0.260
2464,-0.455,-0.265
2465,-0.445,-0.255
2466,-0.445,-0.240
2467,-0.430,-0.250
2468,-0.430,-0.250
2469,-0.440,-0.265
2470,-0.440,-0.260
2471,-0.435,-0.260
2472,-0.430,-0.265
2473,-0.415,-0.275
2474,-0.415,-0.270
2475,-0.425,-0.270
2476,-0.425,-0.270
2477,-0.420,-0.270
2478,-0.405,-0.245
2479,-0.405,-0.265
2480,-0.415,-0.265
2481,-0.415,-0.270
2482,-0.425,-0.285
2483,-0.430,-0.260
2484,-0.405,-0.245
2485,-0.405,-0.255
2486,-0.405,-0.265
2487,-0.405,-0.285
2488,-0.430,-0.295
2489,-0.415,-0.300
2490,-0.410,-0.295
2491,-0.415,-0.285
2492,-0.430,-0.320
2493,-0.445,-0.325
2494,-0.465,-0.335
2495,-0.460,-0.335
2496,-0.450,-0.330
2497,-0.455,-0.350
2498,-0.460,-0.345
2499,-0.465,-0.365
2500,-0.485,-0.380
2501,-0.495,-0.375
2502,-0.475,-0.375
2503,-0.490,-0.385
2504,-0.500,-0.385
2505,-0.495,-0.400
2506,-0.515,-0.400
2507,-0.500,-0.395
2508,-0.485,-0.390
2509,-0.490,-0.390
2510,-0.485,-0.400
2511,-0.500,-0.405
2512,-0.500,-0.410
2513,-0.490,-0.380
2514,-0.480,-0.355
2515,-0.460,-0.350
2516,-0.460,-0.340
2517,-0.470,-0.345
2518,-0.465,-0.335
2519,-0.440,-0.310
2520,-0.430,-0.285
2521,-0.425,-0.280
2522,-0.410,-0.270
2523,-0.410,-0.255
2524,-0.400,-0.245
2525,-0.390,-0.235
2526,-0.380,-0.210
2527,-0.355,-0.215
2528,-0.350,-0.220
2529,-0.355,-0.220
2530,-0.350,-0.215
2531,-0.340,-0.190
2532,-0.330,-0.180
2533,-0.325,-0.180
2534,-0.305,-0.185
2535,-0.320,-0.195
2536,-0.315,-0.195
2537,-0.305,-0.190
2538,-0.300,-0.170
2539,-0.305,-0.170
2540,-0.305,-0.185
2541,-0.310,-0.185
2542,-0.330,-0.185
2543,-0.310,-0.180
2544,-0.315,-0.170
2545,-0.315,-0.190
2546,-0.320,-0.180
2547,-0.325,-0.195
2548,-0.325,-0.190
2549,-0.325,-0.170
2550,-0.310,-0.170
2551,-0.310,-0.175
2552,-0.315,-0.190
2553,-0.325,-0.195
2554,-0.330,-0.190
2555,-0.325,-0.185
2556,-0.325,-0.185
2557,-0.315,-0.180
2558,-0.320,-0.185
2559,-0.330,-0.190
2560,-0.335,-0.205
2561,-0.330,-0.195
2562,-0.315,-0.185
2563,-0.320,-0.185
2564,-0.320,-0.185
2565,-0.335,-0.205
2566,-0.335,-0.205
2567,-0.325,-0.180
2568,-0.325,-0.195
2569,-0.320,-0.195
2570,-0.320,-0.205
2571,-0.325,-0.210
2572,-0.350,-0.225
2573,-0.345,-0.210
2574,-0.345,-0.200
2575,-0.335,-0.200
2576,-0.345,-0.205
2577,-0.355,-0.210
2578,-0.355,-0.225
2579,-0.355,-0.210
2580,-0.345,-0.200
2581,-0.335,-0.200
2582,-0.335,-0.205
2583,-0.345,-0.210
2584,-0.355,-0.200
2585,-0.340,-0.195
2586,-0.335,-0.185
2587,-0.330,-0.205
2588,-0.335,-0.210
2589,-0.345,-0.220
2590,-0.350,-0.215
2591,-0.350,-0.205
2592,-0.340,-0.200
2593,-0.335,-0.215
2594,-0.330,-0.210
2595,-0.360,-0.225
2596,-0.355,-0.220
2597,-0.345,-0.215
2598,-0.335,-0.200
2599,-0.345,-0.210
2600,-0.350,-0.205
2601,-0.360,-0.215
2602,-0.380,-0.215
2603,-0.370,-0.215
2604,-0.345,-0.200
2605,-0.345,-0.200
2606,-0.350,-0.210
2607,-0.355,-0.220
2608,-0.365,-0.210
2609,-0.360,-0.195
2610,-0.345,-0.200
2611,-0.345,-0.190
2612,-0.350,-0.210
2613,-0.360,-0.220
2614,-0.360,-0.215
2615,-0.350,-0.200
2616,-0.355,-0.185
2617,-0.340,-0.195
2618,-0.345,-0.200
2619,-0.355,-0.200
2620,-0.355,-0.205
2621,-0.355,-0.195
2622,-0.340,-0.185
2623,-0.340,-0.190
2624,-0.345,-0.195
2625,-0.365,-0.200
2626,-0.370,-0.200
2627,-0.350,-0.200
2628,-0.330,-0.190
2629,-0.320,-0.200
2630,-0.315,-0.190
2631,-0.295,-0.200
2632,-0.305,-0.195
2633,-0.295,-0.180
2634,-0.300,-0.160
2635,-0.285,-0.180
2636,-0.275,-0.180
2637,-0.260,-0.185
2638,-0.275,-0.180
2639,-0.265,-0.160
2640,-0.260,-0.145
2641,-0.250,-0.155
2642,-0.245,-0.170
2643,-0.255,-0.170
2644,-0.265,-0.155
2645,-0.260,-0.145
2646,-0.260,-0.130
2647,-0.250,-0.135
2648,-0.260,-0.140
2649,-0.280,-0.135
2650,-0.280,-0.140
2651,-0.275,-0.140
2652,-0.285,-0.125
2653,-0.280,-0.130
2654,-0.255,-0.150
2655,-0.245,-0.165
2656,-0.245,-0.165
2657,-0.260,-0.165
2658,-0.285,-0.155
2659,-0.290,-0.150
2660,-0.300,-0.165
2661,-0.320,-0.180
2662,-0.335,-0.195
2663,-0.355,-0.175
2664,-0.350,-0.170
2665,-0.355,-0.175
2666,-0.355,-0.185
2667,-0.375,-0.195
2668,-0.385,-0.190
2669,-0.380,-0.175
2670,-0.360,-0.185
2671,-0.350,-0.190
2672,-0.360,-0.205
2673,-0.365,-0.215
2674,-0.370,-0.215
2675,-0.370,-0.195
2676,-0.365,-0.180
2677,-0.360,-0.190
2678,-0.365,-0.200
2679,-0.370,-0.200
2680,-0.385,-0.215
2681,-0.385,-0.200
2682,-0.365,-0.180
2683,-0.360,-0.195
2684,-0.380,-0.200
2685,-0.385,-0.205
2686,-0.395,-0.210
2687,-0.395,-0.200
2688,-0.385,-0.205
2689,-0.380,-0.235
2690,-0.395,-0.260
2691,-0.425,-0.285
2692,-0.465,-0.300
2693,-0.500,-0.325
2694,-0.515,-0.320
2695,-0.530,-0.290
2696,-0.560,-0.190
2697,-0.585,-0.055
2698,-0.530,0.050
2699,-0.410,0.150
2700,-0.255,0.245
2701,-0.105,0.345
2702,0.105,0.445
2703,0.355,0.530
2704,0.600,0.595
2705,0.810,0.520
2706,0.890,0.275
2707,0.830,-0.085
2708,0.580,-0.300
2709,0.185,-0.335
2710,-0.205,-0.285
2711,-0.450,-0.250
2712,-0.525,-0.245
2713,-0.495,-0.235
2714,-0.465,-0.215
2715,-0.435,-0.230
2716,-0.415,-0.230
2717,-0.415,-0.240
2718,-0.415,-0.235
2719,-0.400,-0.235
2720,-0.395,-0.245
2721,-0.405,-0.255
2722,-0.425,-0.250
2723,-0.435,-0.240
2724,-0.415,-0.225
2725,-0.415,-0.230
2726,-0.415,-0.250
2727,-0.415,-0.240
2728,-0.430,-0.255
2729,-0.420,-0.230
2730,-0.410,-0.225
2731,-0.405,-0.225
2732,-0.420,-0.225
2733,-0.410,-0.230
2734,-0.420,-0.240
2735,-0.400,-0.225
2736,-0.395,-0.215
2737,-0.385,-0.215
2738,-0.400,-0.225
2739,-0.400,-0.235
2740,-0.400,-0.240
2741,-0.400,-0.225
2742,-0.395,-0.205
2743,-0.400,-0.210
2744,-0.400,-0.225
2745,-0.400,-0.230
2746,-0.410,-0.235
2747,-0.395,-0.225
2748,-0.410,-0.215
2749,-0.400,-0.220
2750,-0.395,-0.230
2751,-0.405,-0.235
2752,-0.410,-0.230
2753,-0.415,-0.215
2754,-0.405,-0.215
2755,-0.400,-0.215
2756,-0.395,-0.225
2757,-0.405,-0.235
2758,-0.415,-0.235
2759,-0.405,-0.230
2760,-0.415,-0.215
2761,-0.410,-0.225
2762,-0.405,-0.225
2763,-0.405,-0.235
2764,-0.410,-0.245
2765,-0.405,-0.240
2766,-0.400,-0.225
2767,-0.395,-0.210
2768,-0.405,-0.230
2769,-0.405,-0.230
2770,-0.400,-0.245
2771,-0.395,-0.220
2772,-0.390,-0.225
2773,-0.395,-0.235
2774,-0.390,-0.245
2775,-0.395,-0.250
2776,-0.420,-0.250
2777,-0.415,-0.240
2778,-0.405,-0.240
2779,-0.400,-0.245
2780,-0.400,-0.250
2781,-0.415,-0.270
2782,-0.420,-0.270
2783,-0.410,-0.265
2784,-0.395,-0.260
2785,-0.400,-0.280
2786,-0.405,-0.295
2787,-0.415,-0.295
2788,-0.435,-0.315
2789,-0.415,-0.310
2790,-0.415,-0.305
2791,-0.400,-0.310
2792,-0.405,-0.325
2793,-0.420,-0.330
2794,-0.430,-0.350
2795,-0.425,-0.340
2796,-0.410,-0.335
2797,-0.410,-0.350
2798,-0.405,-0.350
2799,-0.415,-0.370
2800,-0.425,-0.365
2801,-0.425,-0.355
2802,-0.420,-0.335
2803,-0.410,-0.355
2804,-0.410,-0.365
2805,-0.420,-0.370
2806,-0.430,-0.360
2807,-0.425,-0.335
2808,-0.420,-0.315
2809,-0.405,-0.315
2810,-0.415,-0.305
2811,-0.410,-0.285
2812,-0.410,-0.285
2813,-0.385,-0.270
2814,-0.370,-0.240
2815,-0.360,-0.230
2816,-0.350,-0.220
2817,-0.350,-0.220
2818,-0.350,-0.200
2819,-0.335,-0.180
2820,-0.320,-0.175
2821,-0.305,-0.180
2822,-0.315,-0.185
2823,-0.315,-0.190
2824,-0.320,-0.185
2825,-0.305,-0.180
2826,-0.305,-0.175
2827,-0.295,-0.170
2828,-0.290,-0.165
2829,-0.295,-0.175
2830,-0.295,-0.170
2831,-0.285,-0.165
2832,-0.285,-0.155
2833,-0.270,-0.160
2834,-0.280,-0.160
2835,-0.280,-0.165
2836,-0.295,-0.165
2837,-0.280,-0.160
2838,-0.285,-0.145
2839,-0.275,-0.150
2840,-0.285,-0.160
2841,-0.295,-0.165
2842,-0.305,-0.175
2843,-0.295,-0.150
2844,-0.285,-0.140
2845,-0.285,-0.155
2846,-0.290,-0.160
2847,-0.300,-0.175
2848,-0.310,-0.175
2849,-0.295,-0.170
2850,-0.300,-0.160
2851,-0.290,-0.155
2852,-0.285,-0.165
2853,-0.305,-0.175
2854,-0.310,-0.180
2855,-0.300,-0.170
2856,-0.295,-0.165
2857,-0.305,-0.170
2858,-0.300,-0.185
2859,-0.305,-0.185
2860,-0.320,-0.180
2861,-0.320,-0.175
2862,-0.310,-0.170
2863,-0.300,-0.180
2864,-0.310,-0.185
2865,-0.320,-0.200
2866,-0.340,-0.195
2867,-0.330,-0.185
2868,-0.310,-0.175
2869,-0.315,-0.180
2870,-0.325,-0.185
2871,-0.325,-0.205
2872,-0.345,-0.210
2873,-0.330,-0.190
2874,-0.320,-0.185
2875,-0.320,-0.190
2876,-0.335,-0.200
2877,-0.335,-0.205
2878,-0.355,-0.215
2879,-0.340,-0.200
2880,-0.320,-0.180
2881,-0.315,-0.185
2882,-0.330,-0.200
2883,-0.340,-0.205
2884,-0.340,-0.200
2885,-0.350,-0.205
2886,-0.330,-0.190
2887,-0.330,-0.190
2888,-0.340,-0.180
2889,-0.350,-0.205
2890,-0.355,-0.200
2891,-0.345,-0.195
2892,-0.335,-0.180
2893,-0.335,-0.185
2894,-0.340,-0.185
2895,-0.340,-0.200
2896,-0.345,-0.200
2897,-0.335,-0.180
2898,-0.335,-0.180
2899,-0.325,-0.185
2900,-0.325,-0.185
2901,-0.335,-0.200
2902,-0.340,-0.195
2903,-0.340,-0.175
2904,-0.320,-0.175
2905,-0.315,-0.185
2906,-0.320,-0.190
2907,-0.335,-0.195
2908,-0.335,-0.205
2909,-0.320,-0.185
2910,-0.325,-0.160
2911,-0.315,-0.170
2912,-0.320,-0.190
2913,-0.320,-0.190
2914,-0.345,-0.190
2915,-0.335,-0.180
2916,-0.320,-0.170
2917,-0.310,-0.160
2918,-0.320,-0.170
2919,-0.320,-0.185
2920,-0.340,-0.195
2921,-0.330,-0.180
2922,-0.320,-0.175
2923,-0.310,-0.170
2924,-0.310,-0.170
2925,-0.310,-0.195
2926,-0.295,-0.200
2927,-0.280,-0.180
2928,-0.255,-0.170
2929,-0.250,-0.175
2930,-0.250,-0.180
2931,-0.255,-0.180
2932,-0.260,-0.170
2933,-0.240,-0.155
2934,-0.220,-0.135
2935,-0.230,-0.145
2936,-0.230,-0.160
2937,-0.215,-0.160
2938,-0.220,-0.160
2939,-0.225,-0.140
2940,-0.230,-0.120
2941,-0.230,-0.120
2942,-0.235,-0.130
2943,-0.245,-0.130
2944,-0.255,-0.125
2945,-0.240,-0.125
2946,-0.235,-0.115
2947,-0.245,-0.110
2948,-0.235,-0.130
2949,-0.230,-0.145
2950,-0.220,-0.155
2951,-0.195,-0.140
2952,-0.220,-0.140
2953,-0.245,-0.145
2954,-0.260,-0.150
2955,-0.270,-0.160
2956,-0.290,-0.165
2957,-0.300,-0.160
2958,-0.305,-0.150
2959,-0.305,-0.165
2960,-0.320,-0.185
2961,-0.330,-0.180
2962,-0.350,-0.185
2963,-0.350,-0.170
2964,-0.335,-0.155
2965,-0.335,-0.175
2966,-0.335,-0.190
2967,-0.340,-0.195
2968,-0.350,-0.195
2969,-0.350,-0.180
2970,-0.345,-0.175
2971,-0.335,-0.180
2972,-0.345,-0.180
2973,-0.355,-0.190
2974,-0.370,-0.170
2975,-0.350,-0.180
2976,-0.345,-0.175
2977,-0.335,-0.180
2978,-0.335,-0.185
2979,-0.335,-0.200
2980,-0.355,-0.195
2981,-0.355,-0.200
2982,-0.345,-0.225
2983,-0.355,-0.255
2984,-0.395,-0.295
2985,-0.450,-0.330
2986,-0.480,-0.340
2987,-0.505,-0.305
2988,-0.525,-0.195
2989,-0.545,-0.065
2990,-0.500,0.070
2991,-0.395,0.180
2992,-0.255,0.285
2993,-0.070,0.415
2994,0.145,0.555
2995,0.425,0.670
2996,0.685,0.700
2997,0.875,0.555
2998,0.925,0.210
2999,0.795,-0.125
3000,0.470,-0.265
3001,0.020,-0.240
3002,-0.325,-0.215
3003,-0.470,-0.215
3004,-0.485,-0.230
3005,-0.410,-0.220
3006,-0.365,-0.210
3007,-0.355,-0.235
3008,-0.365,-0.235
3009,-0.380,-0.235
3010,-0.385,-0.230
3011,-0.380,-0.225
3012,-0.370,-0.210
3013,-0.370,-0.215
3014,-0.375,-0.225
3015,-0.385,-0.240
3016,-0.395,-0.250
3017,-0.385,-0.230
3018,-0.380,-0.230
3019,-0.385,-0.225
3020,-0.375,-0.230
3021,-0.390,-0.240
3022,-0.405,-0.235
3023,-0.405,-0.230
3024,-0.390,-0.225
3025,-0.385,-0.230
3026,-0.385,-0.245
3027,-0.390,-0.235
3028,-0.410,-0.235
3029,-0.400,-0.220
3030,-0.390,-0.220
3031,-0.385,-0.225
3032,-0.385,-0.230
3033,-0.395,-0.245
3034,-0.390,-0.225
3035,-0.395,-0.220
3036,-0.380,-0.210
3037,-0.375,-0.210
3038,-0.380,-0.220
3039,-0.385,-0.240
3040,-0.400,-0.235
3041,-0.385,-0.225
3042,-0.380,-0.210
3043,-0.375,-0.200
3044,-0.380,-0.225
3045,-0.395,-0.225
3046,-0.395,-0.225
3047,-0.385,-0.225
3048,-0.375,-0.215
3049,-0.370,-0.215
3050,-0.365,-0.235
3051,-0.385,-0.240
3052,-0.395,-0.240
3053,-0.385,-0.235
3054,-0.385,-0.220
3055,-0.370,-0.225
3056,-0.375,-0.235
3057,-0.370,-0.245
3058,-0.375,-0.245
3059,-0.375,-0.230
3060,-0.370,-0.225
3061,-0.355,-0.220
3062,-0.365,-0.245
3063,-0.380,-0.250
3064,-0.375,-0.255
3065,-0.370,-0.255
3066,-0.380,-0.240
3067,-0.365,-0.250
3068,-0.370,-0.260
3069,-0.375,-0.275
3070,-0.390,-0.285
3071,-0.380,-0.275
3072,-0.375,-0.280
3073,-0.380,-0.290
3074,-0.370,-0.300
3075,-0.375,-0.305
3076,-0.380,-0.315
3077,-0.385,-0.310
3078,-0.385,-0.315
3079,-0.370,-0.325
3080,-0.375,-0.335
3081,-0.375,-0.350
3082,-0.380,-0.345
3083,-0.380,-0.340
3084,-0.380,-0.335
3085,-0.380,-0.350
3086,-0.375,-0.360
3087,-0.390,-0.370
3088,-0.395,-0.365
3089,-0.385,-0.360
3090,-0.385,-0.345
3091,-0.375,-0.340
3092,-0.375,-0.350
3093,-0.385,-0.355
3094,-0.385,-0.345
3095,-0.390,-0.325
3096,-0.370,-0.305
3097,-0.365,-0.300
3098,-0.365,-0.285
3099,-0.375,-0.285
3100,-0.385,-0.280
3101,-0.350,-0.265
3102,-0.345,-0.230
3103,-0.325,-0.235
3104,-0.325,-0.240
3105,-0.330,-0.245
3106,-0.325,-0.225
3107,-0.325,-0.215
3108,-0.315,-0.195
3109,-0.315,-0.180
3110,-0.315,-0.180
3111,-0.300,-0.190
3112,-0.300,-0.180
3113,-0.285,-0.165
3114,-0.270,-0.140
3115,-0.265,-0.155
3116,-0.260,-0.165
3117,-0.275,-0.160
3118,-0.285,-0.155
3119,-0.265,-0.145
3120,-0.255,-0.135
3121,-0.250,-0.150
3122,-0.270,-0.165
3123,-0.280,-0.170
3124,-0.285,-0.150
3125,-0.285,-0.145
3126,-0.280,-0.145
3127,-0.270,-0.145
3128,-0.270,-0.160
3129,-0.270,-0.170
3130,-0.285,-0.170
3131,-0.280,-0.155
3132,-0.275,-0.135
3133,-0.270,-0.145
3134,-0.265,-0.155
3135,-0.275,-0.165
3136,-0.290,-0.180
3137,-0.285,-0.165
3138,-0.285,-0.150
3139,-0.275,-0.160
3140,-0.270,-0.150
3141,-0.280,-0.170
3142,-0.295,-0.175
3143,-0.280,-0.165
3144,-0.270,-0.155
3145,-0.270,-0.165
3146,-0.275,-0.175
3147,-0.285,-0.180
3148,-0.300,-0.175
3149,-0.295,-0.165
3150,-0.290,-0.160
3151,-0.295,-0.165
3152,-0.300,-0.185
3153,-0.290,-0.195
3154,-0.305,-0.185
3155,-0.295,-0.185
3156,-0.290,-0.170
3157,-0.295,-0.175
3158,-0.290,-0.170
3159,-0.310,-0.185
3160,-0.320,-0.180
3161,-0.315,-0.185
3162,-0.315,-0.180
3163,-0.300,-0.175
3164,-0.305,-0.185
3165,-0.315,-0.190
3166,-0.330,-0.185
3167,-0.320,-0.170
3168,-0.305,-0.160
3169,-0.315,-0.185
3170,-0.305,-0.185
3171,-0.315,-0.190
3172,-0.325,-0.200
3173,-0.310,-0.195
3174,-0.295,-0.165
3175,-0.300,-0.175
3176,-0.305,-0.180
3177,-0.310,-0.190
3178,-0.325,-0.195
3179,-0.315,-0.190
3180,-0.315,-0.160
3181,-0.305,-0.175
3182,-0.305,-0.165
3183,-0.325,-0.185
3184,-0.320,-0.180
3185,-0.320,-0.180
3186,-0.310,-0.155
3187,-0.305,-0.170
3188,-0.320,-0.180
3189,-0.320,-0.180
3190,-0.320,-0.185
3191,-0.310,-0.165
3192,-0.305,-0.150
3193,-0.290,-0.160
3194,-0.285,-0.165
3195,-0.290,-0.180
3196,-0.305,-0.180
3197,-0.310,-0.165
3198,-0.300,-0.150
3199,-0.300,-0.155
3200,-0.310,-0.155
3201,-0.315,-0.170
3202,-0.315,-0.175
3203,-0.310,-0.165
3204,-0.295,-0.155
3205,-0.300,-0.150
3206,-0.295,-0.155
3207,-0.315,-0.165
3208,-0.310,-0.165
3209,-0.290,-0.160
3210,-0.265,-0.160
3211,-0.240,-0.165
3212,-0.255,-0.170
3213,-0.240,-0.175
3214,-0.250,-0.160
3215,-0.225,-0.135
3216,-0.225,-0.140
3217,-0.215,-0.145
3218,-0.210,-0.140
3219,-0.200,-0.145
3220,-0.195,-0.135
3221,-0.195,-0.125
3222,-0.180,-0.115
3223,-0.175,-0.115
3224,-0.180,-0.125
3225,-0.205,-0.130
3226,-0.215,-0.105
3227,-0.210,-0.095
3228,-0.210,-0.095
3229,-0.210,-0.095
3230,-0.210,-0.095
3231,-0.215,-0.095
3232,-0.225,-0.115
3233,-0.210,-0.120
3234,-0.180,-0.120
3235,-0.170,-0.130
3236,-0.185,-0.135
3237,-0.240,-0.125
3238,-0.255,-0.140
3239,-0.255,-0.135
3240,-0.270,-0.120
3241,-0.275,-0.150
3242,-0.285,-0.150
3243,-0.300,-0.155
3244,-0.300,-0.160
3245,-0.315,-0.145
3246,-0.305,-0.140
3247,-0.300,-0.145
3248,-0.295,-0.145
3249,-0.300,-0.160
3250,-0.315,-0.165
3251,-0.310,-0.155
3252,-0.310,-0.145
3253,-0.300,-0.155
3254,-0.300,-0.155
3255,-0.305,-0.170
3256,-0.315,-0.165
3257,-0.325,-0.160
3258,-0.320,-0.155
3259,-0.320,-0.160
3260,-0.320,-0.170
3261,-0.325,-0.170
3262,-0.340,-0.165
3263,-0.335,-0.165
3264,-0.325,-0.145
3265,-0.315,-0.170
3266,-0.320,-0.190
3267,-0.345,-0.225
3268,-0.370,-0.250
3269,-0.395,-0.270
3270,-0.425,-0.280
3271,-0.445,-0.305
3272,-0.465,-0.290
3273,-0.510,-0.200
3274,-0.530,-0.075
3275,-0.485,0.040
3276,-0.370,0.135
3277,-0.235,0.215
3278,-0.090,0.320
3279,0.105,0.435
3280,0.375,0.540
3281,0.655,0.580
3282,0.820,0.465
3283,0.865,0.145
3284,0.735,-0.155
3285,0.450,-0.285
3286,0.060,-0.250
3287,-0.270,-0.200
3288,-0.430,-0.180
3289,-0.460,-0.190
3290,-0.415,-0.190
3291,-0.385,-0.185
3292,-0.365,-0.195
3293,-0.355,-0.185
3294,-0.355,-0.175
3295,-0.345,-0.190
3296,-0.350,-0.195
3297,-0.350,-0.205
3298,-0.360,-0.205
3299,-0.345,-0.185
3300,-0.340,-0.165
3301,-0.340,-0.185
3302,-0.335,-0.190
3303,-0.335,-0.210
3304,-0.355,-0.210
3305,-0.345,-0.200
3306,-0.340,-0.190
3307,-0.335,-0.185
3308,-0.340,-0.195
3309,-0.350,-0.210
3310,-0.365,-0.210
3311,-0.360,-0.190
3312,-0.365,-0.180
3313,-0.350,-0.190
3314,-0.345,-0.195
3315,-0.365,-0.215
3316,-0.360,-0.215
3317,-0.350,-0.195
3318,-0.355,-0.185
3319,-0.350,-0.180
3320,-0.355,-0.185
3321,-0.350,-0.200
3322,-0.360,-0.205
3323,-0.335,-0.190
3324,-0.335,-0.180
3325,-0.330,-0.185
3326,-0.340,-0.195
3327,-0.350,-0.195
3328,-0.350,-0.195
3329,-0.345,-0.190
3330,-0.335,-0.185
3331,-0.345,-0.195
3332,-0.355,-0.195
3333,-0.355,-0.205
3334,-0.370,-0.200
3335,-0.355,-0.190
3336,-0.350,-0.185
3337,-0.345,-0.195
3338,-0.365,-0.210
3339,-0.365,-0.215
3340,-0.370,-0.215
3341,-0.365,-0.205
3342,-0.355,-0.190
3343,-0.345,-0.190
3344,-0.345,-0.205
3345,-0.345,-0.220
3346,-0.340,-0.215
3347,-0.335,-0.205
3348,-0.325,-0.210
3349,-0.335,-0.220
3350,-0.345,-0.230
3351,-0.350,-0.240
3352,-0.350,-0.255
3353,-0.355,-0.240
3354,-0.355,-0.225
3355,-0.360,-0.230
3356,-0.350,-0.250
3357,-0.360,-0.250
3358,-0.365,-0.260
3359,-0.345,-0.260
3360,-0.345,-0.255
3361,-0.330,-0.260
3362,-0.350,-0.285
3363,-0.345,-0.295
3364,-0.355,-0.300
3365,-0.350,-0.285
3366,-0.340,-0.280
3367,-0.335,-0.290
3368,-0.350,-0.305
3369,-0.365,-0.315
3370,-0.380,-0.320
3371,-0.385,-0.310
3372,-0.355,-0.305
3373,-0.360,-0.310
3374,-0.355,-0.320
3375,-0.370,-0.325
3376,-0.385,-0.335
3377,-0.370,-0.320
3378,-0.370,-0.300
3379,-0.350,-0.300
3380,-0.345,-0.300
3381,-0.365,-0.285
3382,-0.365,-0.280
3383,-0.360,-0.260
3384,-0.345,-0.240
3385,-0.330,-0.235
3386,-0.330,-0.225
3387,-0.330,-0.230
3388,-0.335,-0.225
3389,-0.315,-0.190
3390,-0.310,-0.180
3391,-0.285,-0.185
3392,-0.290,-0.180
3393,-0.290,-0.195
3394,-0.300,-0.180
3395,-0.280,-0.170
3396,-0.275,-0.160
3397,-0.260,-0.170
3398,-0.260,-0.170
3399,-0.270,-0.180
3400,-0.265,-0.180
3401,-0.255,-0.170
3402,-0.250,-0.155
3403,-0.245,-0.155
3404,-0.245,-0.160
3405,-0.255,-0.180
3406,-0.265,-0.175
3407,-0.260,-0.165
3408,-0.255,-0.160
3409,-0.240,-0.170
3410,-0.250,-0.175
3411,-0.255,-0.190
3412,-0.275,-0.190
3413,-0.275,-0.175
3414,-0.265,-0.165
3415,-0.270,-0.175
3416,-0.275,-0.180
3417,-0.280,-0.185
3418,-0.290,-0.185
3419,-0.280,-0.185
3420,-0.275,-0.165
3421,-0.270,-0.185
3422,-0.270,-0.185
3423,-0.280,-0.205
3424,-0.290,-0.210
3425,-0.280,-0.195
3426,-0.285,-0.170
3427,-0.275,-0.180
3428,-0.290,-0.185
3429,-0.280,-0.190
3430,-0.290,-0.200
3431,-0.280,-0.200
3432,-0.285,-0.195
3433,-0.275,-0.200
3434,-0.280,-0.205
3435,-0.295,-0.210
3436,-0.305,-0.215
3437,-0.300,-0.205
3438,-0.300,-0.205
3439,-0.305,-0.220
3440,-0.315,-0.215
3441,-0.320,-0.225
3442,-0.310,-0.215
3443,-0.310,-0.210
3444,-0.300,-0.190
3445,-0.310,-0.205
3446,-0.310,-0.215
3447,-0.320,-0.220
3448,-0.325,-0.225
3449,-0.310,-0.210
3450,-0.320,-0.200
3451,-0.310,-0.205
3452,-0.310,-0.215
3453,-0.315,-0.220
3454,-0.325,-0.225
3455,-0.315,-0.215
3456,-0.305,-0.205
3457,-0.315,-0.195
3458,-0.310,-0.215
3459,-0.320,-0.230
3460,-0.325,-0.235
3461,-0.325,-0.220
3462,-0.320,-0.205
3463,-0.305,-0.220
3464,-0.305,-0.230
3465,-0.300,-0.240
3466,-0.315,-0.235
3467,-0.300,-0.215
3468,-0.310,-0.210
3469,-0.315,-0.205
3470,-0.305,-0.205
3471,-0.310,-0.210
3472,-0.320,-0.215
3473,-0.310,-0.220
3474,-0.300,-0.205
3475,-0.295,-0.220
3476,-0.300,-0.230
3477,-0.315,-0.225
3478,-0.325,-0.225
3479,-0.325,-0.195
3480,-0.305,-0.195
3481,-0.310,-0.220
3482,-0.290,-0.230
3483,-0.315,-0.250
3484,-0.325,-0.240
3485,-0.320,-0.225
3486,-0.290,-0.210
3487,-0.280,-0.210
3488,-0.260,-0.230
3489,-0.260,-0.235
3490,-0.265,-0.240
3491,-0.260,-0.210
3492,-0.250,-0.195
3493,-0.230,-0.195
3494,-0.220,-0.190
3495,-0.220,-0.200
3496,-0.235,-0.195
3497,-0.220,-0.180
3498,-0.205,-0.180
3499,-0.205,-0.190
3500,-0.210,-0.190
3501,-0.210,-0.180
3502,-0.230,-0.185
3503,-0.240,-0.165
3504,-0.230,-0.165
3505,-0.225,-0.175
3506,-0.235,-0.185
3507,-0.250,-0.200
3508,-0.265,-0.195
3509,-0.260,-0.185
3510,-0.245,-0.180
3511,-0.215,-0.195
3512,-0.215,-0.195
3513,-0.245,-0.215
3514,-0.280,-0.200
3515,-0.275,-0.210
3516,-0.275,-0.195
3517,-0.295,-0.225
3518,-0.310,-0.235
3519,-0.325,-0.245
3520,-0.340,-0.245
3521,-0.340,-0.220
3522,-0.325,-0.230
3523,-0.315,-0.220
3524,-0.310,-0.225
3525,-0.315,-0.240
3526,-0.330,-0.225
3527,-0.330,-0.210
3528,-0.325,-0.220
3529,-0.325,-0.230
3530,-0.335,-0.230
3531,-0.345,-0.240
3532,-0.350,-0.245
3533,-0.350,-0.245
3534,-0.350,-0.240
3535,-0.345,-0.235
3536,-0.350,-0.240
3537,-0.365,-0.255
3538,-0.360,-0.255
3539,-0.350,-0.250
3540,-0.355,-0.230
3541,-0.345,-0.240
3542,-0.345,-0.250
3543,-0.350,-0.265
3544,-0.365,-0.290
3545,-0.380,-0.310
3546,-0.405,-0.305
3547,-0.425,-0.335
3548,-0.440,-0.355
3549,-0.470,-0.335
3550,-0.520,-0.270
3551,-0.540,-0.160
3552,-0.490,-0.050
3553,-0.390,0.010
3554,-0.260,0.065
3555,-0.115,0.135
3556,0.085,0.240
3557,0.360,0.355
3558,0.615,0.395
3559,0.780,0.255
3560,0.835,-0.015
3561,0.720,-0.295
3562,0.410,-0.405
3563,0.030,-0.390
3564,-0.255,-0.340
3565,-0.415,-0.305
3566,-0.470,-0.310
3567,-0.465,-0.295
3568,-0.435,-0.295
3569,-0.395,-0.280
3570,-0.375,-0.270
3571,-0.370,-0.265
3572,-0.375,-0.285
3573,-0.375,-0.290
3574,-0.390,-0.290
3575,-0.400,-0.290
3576,-0.380,-0.285
3577,-0.385,-0.290
3578,-0.385,-0.290
3579,-0.385,-0.285
3580,-0.385,-0.285
3581,-0.370,-0.285
3582,-0.370,-0.265
3583,-0.360,-0.265
3584,-0.380,-0.275
3585,-0.380,-0.285
3586,-0.385,-0.280
3587,-0.370,-0.270
3588,-0.370,-0.270
3589,-0.365,-0.275
3590,-0.375,-0.270
3591,-0.385,-0.285
3592,-0.390,-0.300
3593,-0.390,-0.280
3594,-0.385,-0.275
3595,-0.385,-0.285
3596,-0.395,-0.285
3597,-0.390,-0.295
3598,-0.400,-0.290
3599,-0.405,-0.285
3600,-0.390,-0.275
3601,-0.395,-0.265
3602,-0.390,-0.285
3603,-0.405,-0.300
3604,-0.405,-0.305
3605,-0.400,-0.285
3606,-0.375,-0.270
3607,-0.380,-0.280
3608,-0.390,-0.275
3609,-0.395,-0.290
3610,-0.395,-0.280
3611,-0.390,-0.290
3612,-0.390,-0.280
3613,-0.385,-0.280
3614,-0.405,-0.285
3615,-0.400,-0.285
3616,-0.405,-0.285
3617,-0.395,-0.295
3618,-0.390,-0.275
3619,-0.395,-0.280
3620,-0.390,-0.290
3621,-0.400,-0.295
3622,-0.405,-0.295
3623,-0.405,-0.285
3624,-0.390,-0.275
3625,-0.390,-0.295
3626,-0.395,-0.305
3627,-0.400,-0.305
3628,-0.400,-0.320
3629,-0.395,-0.305
3630,-0.380,-0.295
3631,-0.370,-0.300
3632,-0.380,-0.300
3633,-0.385,-0.320
3634,-0.395,-0.320
3635,-0.390,-0.310
3636,-0.380,-0.305
3637,-0.380,-0.315
3638,-0.385,-0.330
3639,-0.390,-0.345
3640,-0.390,-0.355
3641,-0.400,-0.340
3642,-0.400,-0.335
3643,-0.405,-0.350
3644,-0.415,-0.370
3645,-0.420,-0.380
3646,-0.430,-0.380
3647,-0.430,-0.375
3648,-0.425,-0.385
3649,-0.420,-0.405
3650,-0.430,-0.405
3651,-0.445,-0.420
3652,-0.465,-0.430
3653,-0.455,-0.415
3654,-0.440,-0.410
3655,-0.425,-0.415
3656,-0.435,-0.425
3657,-0.450,-0.425
3658,-0.440,-0.425
3659,-0.445,-0.405
3660,-0.425,-0.385
3661,-0.425,-0.390
3662,-0.425,-0.385
3663,-0.430,-0.385
3664,-0.430,-0.380
3665,-0.415,-0.350
3666,-0.415,-0.320
3667,-0.385,-0.315
3668,-0.375,-0.315
3669,-0.385,-0.305
3670,-0.370,-0.305
3671,-0.360,-0.270
3672,-0.350,-0.250
3673,-0.335,-0.235
3674,-0.335,-0.235
3675,-0.325,-0.245
3676,-0.320,-0.240
3677,-0.325,-0.235
3678,-0.305,-0.215
3679,-0.295,-0.220
3680,-0.300,-0.220
3681,-0.290,-0.225
3682,-0.295,-0.220
3683,-0.290,-0.215
3684,-0.290,-0.205
3685,-0.285,-0.215
3686,-0.285,-0.215
3687,-0.285,-0.225
3688,-0.290,-0.225
3689,-0.290,-0.215
3690,-0.285,-0.190
3691,-0.270,-0.195
3692,-0.270,-0.210
3693,-0.280,-0.205
3694,-0.290,-0.205
3695,-0.285,-0.200
3696,-0.275,-0.205
3697,-0.275,-0.205
3698,-0.275,-0.205
3699,-0.290,-0.215
3700,-0.305,-0.210
3701,-0.305,-0.210
3702,-0.300,-0.200
3703,-0.280,-0.200
3704,-0.290,-0.205
3705,-0.305,-0.220
3706,-0.315,-0.210
3707,-0.310,-0.200
3708,-0.295,-0.200
3709,-0.290,-0.195
3710,-0.300,-0.215
3711,-0.305,-0.215
3712,-0.305,-0.220
3713,-0.310,-0.210
3714,-0.300,-0.210
3715,-0.295,-0.210
3716,-0.305,-0.215
3717,-0.305,-0.225
3718,-0.315,-0.230
3719,-0.310,-0.215
3720,-0.310,-0.215
3721,-0.295,-0.215
3722,-0.300,-0.220
3723,-0.305,-0.230
3724,-0.310,-0.220
3725,-0.305,-0.205
3726,-0.305,-0.200
3727,-0.295,-0.220
3728,-0.300,-0.225
3729,-0.315,-0.240
3730,-0.325,-0.230
3731,-0.320,-0.230
3732,-0.320,-0.215
3733,-0.315,-0.225
3734,-0.310,-0.220
3735,-0.325,-0.235
3736,-0.335,-0.225
3737,-0.330,-0.225
3738,-0.320,-0.210
3739,-0.320,-0.225
3740,-0.310,-0.225
3741,-0.330,-0.225
3742,-0.330,-0.230
3743,-0.325,-0.220
3744,-0.310,-0.210
3745,-0.305,-0.220
3746,-0.305,-0.215
3747,-0.320,-0.230
3748,-0.330,-0.235
3749,-0.325,-0.215
3750,-0.300,-0.210
3751,-0.310,-0.215
3752,-0.305,-0.225
3753,-0.315,-0.225
3754,-0.330,-0.235
3755,-0.330,-0.230
3756,-0.330,-0.215
3757,-0.320,-0.225
3758,-0.325,-0.220
3759,-0.325,-0.230
3760,-0.335,-0.225
3761,-0.325,-0.220
3762,-0.315,-0.210
3763,-0.310,-0.215
3764,-0.315,-0.220
3765,-0.320,-0.220
3766,-0.325,-0.225
3767,-0.315,-0.210
3768,-0.310,-0.205
3769,-0.305,-0.215
3770,-0.310,-0.225
3771,-0.315,-0.230
3772,-0.320,-0.240
3773,-0.315,-0.225
3774,-0.310,-0.205
3775,-0.295,-0.215
3776,-0.295,-0.215
3777,-0.305,-0.220
3778,-0.310,-0.230
3779,-0.300,-0.225
3780,-0.280,-0.215
3781,-0.275,-0.225
3782,-0.265,-0.220
3783,-0.275,-0.220
3784,-0.275,-0.225
3785,-0.260,-0.195
3786,-0.240,-0.195
3787,-0.240,-0.205
3788,-0.235,-0.200
3789,-0.240,-0.200
3790,-0.235,-0.195
3791,-0.225,-0.190
3792,-0.215,-0.170
3793,-0.205,-0.170
3794,-0.205,-0.180
3795,-0.210,-0.180
3796,-0.215,-0.185
3797,-0.220,-0.170
3798,-0.220,-0.165
3799,-0.215,-0.180
3800,-0.220,-0.175
3801,-0.220,-0.185
3802,-0.230,-0.175
3803,-0.230,-0.170
3804,-0.240,-0.150
3805,-0.210,-0.150
3806,-0.220,-0.155
3807,-0.230,-0.180
3808,-0.255,-0.180
3809,-0.235,-0.170
3810,-0.210,-0.175
3811,-0.190,-0.180
3812,-0.205,-0.190
3813,-0.225,-0.195
3814,-0.260,-0.200
3815,-0.275,-0.190
3816,-0.280,-0.185
3817,-0.285,-0.200
3818,-0.305,-0.195
3819,-0.320,-0.215
3820,-0.315,-0.210
3821,-0.335,-0.200
3822,-0.325,-0.195
3823,-0.335,-0.205
3824,-0.320,-0.220
3825,-0.325,-0.215
3826,-0.320,-0.225
3827,-0.325,-0.225
3828,-0.325,-0.210
3829,-0.310,-0.205
3830,-0.305,-0.210
3831,-0.320,-0.225
3832,-0.320,-0.230
3833,-0.330,-0.215
3834,-0.320,-0.200
3835,-0.320,-0.215
3836,-0.330,-0.220
3837,-0.330,-0.225
3838,-0.360,-0.210
3839,-0.355,-0.210
3840,-0.330,-0.200
3841,-0.325,-0.210
3842,-0.325,-0.215
3843,-0.335,-0.225
3844,-0.350,-0.235
3845,-0.340,-0.240
3846,-0.345,-0.255
3847,-0.355,-0.290
3848,-0.385,-0.310
3849,-0.425,-0.335
3850,-0.450,-0.360
3851,-0.470,-0.350
3852,-0.485,-0.285
3853,-0.510,-0.175
3854,-0.515,-0.050
3855,-0.455,0.075
3856,-0.325,0.190
3857,-0.165,0.315
3858,0.010,0.430
3859,0.250,0.545
3860,0.515,0.655
3861,0.740,0.655
3862,0.885,0.505
3863,0.935,0.210
3864,0.835,-0.090
3865,0.525,-0.275
3866,0.120,-0.290
3867,-0.230,-0.265
3868,-0.425,-0.250
3869,-0.455,-0.255
3870,-0.420,-0.230
3871,-0.380,-0.230
3872,-0.360,-0.250
3873,-0.365,-0.255
3874,-0.375,-0.255
3875,-0.380,-0.250
3876,-0.355,-0.235
3877,-0.355,-0.250
3878,-0.370,-0.250
3879,-0.375,-0.265
3880,-0.385,-0.255
3881,-0.380,-0.250
3882,-0.365,-0.240
3883,-0.370,-0.245
3884,-0.370,-0.255
3885,-0.365,-0.255
3886,-0.380,-0.265
3887,-0.370,-0.240
3888,-0.375,-0.240
3889,-0.365,-0.255
3890,-0.370,-0.255
3891,-0.380,-0.265
3892,-0.375,-0.260
3893,-0.365,-0.250
3894,-0.360,-0.255
3895,-0.360,-0.255
3896,-0.355,-0.255
3897,-0.355,-0.255
3898,-0.370,-0.250
3899,-0.365,-0.245
3900,-0.355,-0.225
3901,-0.350,-0.230
3902,-0.350,-0.245
3903,-0.350,-0.255
3904,-0.360,-0.260
3905,-0.360,-0.245
3906,-0.360,-0.245
3907,-0.350,-0.245
3908,-0.355,-0.240
3909,-0.365,-0.250
3910,-0.370,-0.245
3911,-0.360,-0.245
3912,-0.350,-0.240
3913,-0.355,-0.240
3914,-0.350,-0.250
3915,-0.355,-0.265
3916,-0.370,-0.255
3917,-0.375,-0.240
3918,-0.360,-0.240
3919,-0.350,-0.240
3920,-0.345,-0.255
3921,-0.350,-0.260
3922,-0.370,-0.260
3923,-0.370,-0.255
3924,-0.355,-0.255
3925,-0.350,-0.250
3926,-0.345,-0.260
3927,-0.360,-0.275
3928,-0.370,-0.280
3929,-0.365,-0.280
3930,-0.360,-0.270
3931,-0.350,-0.265
3932,-0.355,-0.285
3933,-0.365,-0.290
3934,-0.365,-0.280
3935,-0.370,-0.280
3936,-0.365,-0.275
3937,-0.350,-0.295
3938,-0.350,-0.305
3939,-0.360,-0.310
3940,-0.360,-0.310
3941,-0.355,-0.320
3942,-0.345,-0.305
3943,-0.350,-0.320
3944,-0.345,-0.345
3945,-0.355,-0.350
3946,-0.370,-0.355
3947,-0.365,-0.355
3948,-0.355,-0.350
3949,-0.360,-0.350
3950,-0.365,-0.360
3951,-0.365,-0.380
3952,-0.380,-0.385
3953,-0.385,-0.380
3954,-0.375,-0.380
3955,-0.370,-0.375
3956,-0.375,-0.385
3957,-0.385,-0.395
3958,-0.395,-0.380
3959,-0.375,-0.390
3960,-0.385,-0.380
3961,-0.380,-0.385
3962,-0.370,-0.380
3963,-0.385,-0.375
3964,-0.385,-0.370
3965,-0.380,-0.335
3966,-0.370,-0.315
3967,-0.360,-0.310
3968,-0.350,-0.300
3969,-0.335,-0.310
3970,-0.330,-0.285
3971,-0.315,-0.260
3972,-0.295,-0.225
3973,-0.290,-0.225
3974,-0.290,-0.220
3975,-0.285,-0.230
3976,-0.290,-0.215
3977,-0.280,-0.205
3978,-0.280,-0.195
3979,-0.260,-0.185
3980,-0.255,-0.195
3981,-0.270,-0.190
3982,-0.275,-0.180
3983,-0.260,-0.170
3984,-0.250,-0.150
3985,-0.245,-0.160
3986,-0.250,-0.175
3987,-0.260,-0.185
3988,-0.265,-0.175
3989,-0.245,-0.170
3990,-0.235,-0.160
3991,-0.245,-0.165
3992,-0.240,-0.165
3993,-0.250,-0.180
3994,-0.265,-0.175
3995,-0.250,-0.170
3996,-0.250,-0.165
3997,-0.250,-0.170
3998,-0.250,-0.180
3999,-0.255,-0.185
4000,-0.265,-0.190
4001,-0.260,-0.170
4002,-0.240,-0.155
4003,-0.250,-0.160
4004,-0.245,-0.165
4005,-0.250,-0.175
4006,-0.270,-0.180
4007,-0.265,-0.170
4008,-0.270,-0.165
4009,-0.265,-0.165
4010,-0.265,-0.175
4011,-0.275,-0.185
4012,-0.285,-0.190
4013,-0.275,-0.190
4014,-0.265,-0.175
4015,-0.270,-0.190
4016,-0.270,-0.180
4017,-0.280,-0.195
4018,-0.285,-0.195
4019,-0.285,-0.180
4020,-0.280,-0.180
4021,-0.285,-0.190
4022,-0.280,-0.205
4023,-0.285,-0.215
4024,-0.300,-0.215
4025,-0.290,-0.210
4026,-0.285,-0.190
4027,-0.270,-0.185
4028,-0.280,-0.200
4029,-0.295,-0.205
4030,-0.290,-0.225
4031,-0.290,-0.205
4032,-0.295,-0.200
4033,-0.290,-0.205
4034,-0.285,-0.205
4035,-0.305,-0.215
4036,-0.315,-0.215
4037,-0.310,-0.200
4038,-0.310,-0.200
4039,-0.290,-0.210
4040,-0.295,-0.210
4041,-0.310,-0.230
4042,-0.320,-0.215
4043,-0.315,-0.220
4044,-0.310,-0.205
4045,-0.300,-0.205
4046,-0.300,-0.220
4047,-0.315,-0.235
4048,-0.320,-0.225
4049,-0.315,-0.220
4050,-0.320,-0.210
4051,-0.290,-0.215
4052,-0.300,-0.220
4053,-0.300,-0.230
4054,-0.315,-0.220
4055,-0.310,-0.220
4056,-0.300,-0.215
4057,-0.300,-0.210
4058,-0.290,-0.235
4059,-0.310,-0.225
4060,-0.325,-0.220
4061,-0.315,-0.220
4062,-0.305,-0.200
4063,-0.305,-0.220
4064,-0.305,-0.215
4065,-0.315,-0.235
4066,-0.325,-0.230
4067,-0.320,-0.225
4068,-0.310,-0.210
4069,-0.300,-0.215
4070,-0.295,-0.220
4071,-0.315,-0.225
4072,-0.320,-0.215
4073,-0.305,-0.210
4074,-0.300,-0.200
4075,-0.290,-0.210
4076,-0.295,-0.220
4077,-0.295,-0.225
4078,-0.310,-0.225
4079,-0.295,-0.225
4080,-0.295,-0.210
4081,-0.285,-0.205
4082,-0.295,-0.210
4083,-0.295,-0.230
4084,-0.310,-0.225
4085,-0.300,-0.215
4086,-0.285,-0.210
4087,-0.280,-0.210
4088,-0.275,-0.225
4089,-0.280,-0.225
4090,-0.265,-0.225
4091,-0.245,-0.205
4092,-0.230,-0.200
4093,-0.240,-0.210
4094,-0.240,-0.220
4095,-0.240,-0.210
4096,-0.245,-0.215
4097,-0.220,-0.190
4098,-0.220,-0.190
4099,-0.215,-0.185
4100,-0.200,-0.185
4101,-0.200,-0.185
4102,-0.210,-0.200
4103,-0.205,-0.185
4104,-0.195,-0.170
4105,-0.205,-0.170
4106,-0.210,-0.155
4107,-0.215,-0.160
4108,-0.225,-0.160
4109,-0.225,-0.175
4110,-0.200,-0.165
4111,-0.200,-0.160
4112,-0.210,-0.160
4113,-0.225,-0.165
4114,-0.220,-0.170
4115,-0.195,-0.165
4116,-0.180,-0.160
4117,-0.175,-0.175
4118,-0.205,-0.195
4119,-0.245,-0.200
4120,-0.265,-0.205
4121,-0.275,-0.195
4122,-0.280,-0.195
4123,-0.285,-0.205
4124,-0.300,-0.200
4125,-0.310,-0.220
4126,-0.325,-0.225
4127,-0.320,-0.220
4128,-0.325,-0.210
4129,-0.310,-0.215
4130,-0.325,-0.220
4131,-0.330,-0.230
4132,-0.340,-0.240
4133,-0.335,-0.215
4134,-0.330,-0.215
4135,-0.325,-0.225
4136,-0.320,-0.235
4137,-0.340,-0.240
4138,-0.345,-0.250
4139,-0.340,-0.230
4140,-0.330,-0.205
4141,-0.335,-0.225
4142,-0.330,-0.230
4143,-0.340,-0.240
4144,-0.340,-0.250
4145,-0.335,-0.230
4146,-0.335,-0.215
4147,-0.330,-0.230
4148,-0.335,-0.255
4149,-0.345,-0.280
4150,-0.375,-0.305
4151,-0.395,-0.315
4152,-0.430,-0.325
4153,-0.440,-0.330
4154,-0.450,-0.350
4155,-0.450,-0.375
4156,-0.475,-0.415
4157,-0.480,-0.415
4158,-0.510,-0.375
4159,-0.550,-0.320
4160,-0.575,-0.235
4161,-0.545,-0.125
4162,-0.490,0.000
4163,-0.375,0.115
4164,-0.250,0.205
4165,-0.120,0.315
4166,0.060,0.420
4167,0.285,0.525
4168,0.525,0.610
4169,0.740,0.615
4170,0.860,0.470
4171,0.890,0.135
4172,0.730,-0.165
4173,0.425,-0.325
4174,0.015,-0.305
4175,-0.285,-0.270
4176,-0.435,-0.260
4177,-0.450,-0.260
4178,-0.435,-0.250
4179,-0.385,-0.270
4180,-0.380,-0.275
4181,-0.370,-0.260
4182,-0.370,-0.260
4183,-0.370,-0.275
4184,-0.360,-0.270
4185,-0.360,-0.270
4186,-0.370,-0.270
4187,-0.385,-0.265
4188,-0.365,-0.260
4189,-0.360,-0.270
4190,-0.365,-0.270
4191,-0.365,-0.280
4192,-0.375,-0.285
4193,-0.385,-0.265
4194,-0.360,-0.255
4195,-0.365,-0.260
4196,-0.355,-0.270
4197,-0.375,-0.275
4198,-0.380,-0.285
4199,-0.375,-0.270
4200,-0.355,-0.265
4201,-0.355,-0.265
4202,-0.360,-0.260
4203,-0.365,-0.275
4204,-0.380,-0.270
4205,-0.370,-0.265
4206,-0.355,-0.255
4207,-0.350,-0.260
4208,-0.355,-0.255
4209,-0.365,-0.275
4210,-0.380,-0.265
4211,-0.365,-0.260
4212,-0.355,-0.255
4213,-0.355,-0.255
4214,-0.365,-0.260
4215,-0.385,-0.265
4216,-0.390,-0.280
4217,-0.375,-0.260
4218,-0.355,-0.240
4219,-0.365,-0.250
4220,-0.360,-0.265
4221,-0.355,-0.270
4222,-0.365,-0.280
4223,-0.365,-0.265
4224,-0.355,-0.250
4225,-0.345,-0.255
4226,-0.345,-0.260
4227,-0.365,-0.270
4228,-0.360,-0.280
4229,-0.375,-0.275
4230,-0.355,-0.260
4231,-0.360,-0.270
4232,-0.365,-0.285
4233,-0.365,-0.280
4234,-0.370,-0.280
4235,-0.360,-0.275
4236,-0.355,-0.280
4237,-0.360,-0.275
4238,-0.365,-0.270
4239,-0.385,-0.295
4240,-0.380,-0.305
4241,-0.365,-0.295
4242,-0.355,-0.280
4243,-0.335,-0.300
4244,-0.360,-0.310
4245,-0.360,-0.310
4246,-0.385,-0.315
4247,-0.380,-0.315
4248,-0.375,-0.310
4249,-0.360,-0.315
4250,-0.360,-0.330
4251,-0.365,-0.350
4252,-0.375,-0.350
4253,-0.365,-0.355
4254,-0.355,-0.335
4255,-0.360,-0.345
4256,-0.350,-0.355
4257,-0.360,-0.370
4258,-0.370,-0.375
4259,-0.370,-0.385
4260,-0.365,-0.380
4261,-0.370,-0.390
4262,-0.380,-0.390
4263,-0.390,-0.405
4264,-0.385,-0.410
4265,-0.380,-0.395
4266,-0.370,-0.395
4267,-0.370,-0.395
4268,-0.365,-0.400
4269,-0.365,-0.410
4270,-0.390,-0.405
4271,-0.375,-0.385
4272,-0.370,-0.375
4273,-0.355,-0.365
4274,-0.365,-0.365
4275,-0.360,-0.365
4276,-0.370,-0.355
4277,-0.350,-0.325
4278,-0.340,-0.295
4279,-0.325,-0.295
4280,-0.320,-0.265
4281,-0.315,-0.280
4282,-0.325,-0.275
4283,-0.310,-0.245
4284,-0.295,-0.230
4285,-0.285,-0.215
4286,-0.290,-0.210
4287,-0.290,-0.225
4288,-0.275,-0.215
4289,-0.270,-0.210
4290,-0.265,-0.195
4291,-0.260,-0.190
4292,-0.260,-0.215
4293,-0.275,-0.195
4294,-0.275,-0.210
4295,-0.285,-0.180
4296,-0.260,-0.180
4297,-0.260,-0.190
4298,-0.265,-0.195
4299,-0.270,-0.200
4300,-0.280,-0.200
4301,-0.275,-0.190
4302,-0.255,-0.170
4303,-0.255,-0.180
4304,-0.245,-0.195
4305,-0.255,-0.195
4306,-0.260,-0.210
4307,-0.255,-0.200
4308,-0.255,-0.195
4309,-0.260,-0.185
4310,-0.265,-0.190
4311,-0.280,-0.215
4312,-0.295,-0.210
4313,-0.290,-0.210
4314,-0.275,-0.200
4315,-0.280,-0.205
4316,-0.280,-0.215
4317,-0.280,-0.215
4318,-0.285,-0.225
4319,-0.285,-0.215
4320,-0.280,-0.195
4321,-0.270,-0.205
4322,-0.285,-0.220
4323,-0.300,-0.240
4324,-0.310,-0.240
4325,-0.300,-0.220
4326,-0.290,-0.210
4327,-0.280,-0.215
4328,-0.300,-0.215
4329,-0.290,-0.220
4330,-0.310,-0.235
4331,-0.300,-0.225
4332,-0.295,-0.220
4333,-0.290,-0.225
4334,-0.285,-0.230
4335,-0.295,-0.235
4336,-0.325,-0.245
4337,-0.315,-0.225
4338,-0.310,-0.220
4339,-0.305,-0.230
4340,-0.300,-0.245
4341,-0.315,-0.260
4342,-0.330,-0.260
4343,-0.320,-0.250
4344,-0.320,-0.230
4345,-0.315,-0.240
4346,-0.320,-0.245
4347,-0.325,-0.250
4348,-0.335,-0.250
4349,-0.330,-0.240
4350,-0.325,-0.235
4351,-0.310,-0.245
4352,-0.315,-0.240
4353,-0.315,-0.255
4354,-0.335,-0.255
4355,-0.320,-0.250
4356,-0.310,-0.250
4357,-0.315,-0.250
4358,-0.310,-0.260
4359,-0.320,-0.260
4360,-0.335,-0.250
4361,-0.325,-0.245
4362,-0.325,-0.230
4363,-0.315,-0.235
4364,-0.310,-0.240
4365,-0.320,-0.240
4366,-0.330,-0.250
4367,-0.320,-0.240
4368,-0.320,-0.240
4369,-0.310,-0.260
4370,-0.330,-0.255
4371,-0.330,-0.270
4372,-0.345,-0.270
4373,-0.340,-0.255
4374,-0.330,-0.255
4375,-0.320,-0.240
4376,-0.315,-0.245
4377,-0.335,-0.240
4378,-0.335,-0.240
4379,-0.330,-0.245
4380,-0.310,-0.235
4381,-0.310,-0.235
4382,-0.315,-0.245
4383,-0.330,-0.270
4384,-0.320,-0.260
4385,-0.315,-0.250
4386,-0.300,-0.250
4387,-0.285,-0.255
4388,-0.280,-0.250
4389,-0.265,-0.270
4390,-0.260,-0.270
4391,-0.265,-0.250
4392,-0.260,-0.230
4393,-0.255,-0.235
4394,-0.260,-0.240
4395,-0.250,-0.235
4396,-0.255,-0.235
4397,-0.240,-0.230
4398,-0.230,-0.225
4399,-0.205,-0.215
4400,-0.210,-0.235
4401,-0.225,-0.225
4402,-0.235,-0.220
4403,-0.225,-0.205
4404,-0.225,-0.205
4405,-0.230,-0.205
4406,-0.225,-0.205
4407,-0.240,-0.210
4408,-0.240,-0.225
4409,-0.230,-0.210
4410,-0.235,-0.195
4411,-0.250,-0.200
4412,-0.250,-0.215
4413,-0.255,-0.235
4414,-0.235,-0.230
4415,-0.220,-0.225
4416,-0.205,-0.225
4417,-0.215,-0.245
4418,-0.240,-0.250
4419,-0.265,-0.260
4420,-0.280,-0.265
4421,-0.280,-0.230
4422,-0.270,-0.235
4423,-0.270,-0.240
4424,-0.290,-0.250
4425,-0.320,-0.280
4426,-0.335,-0.270
4427,-0.340,-0.265
4428,-0.330,-0.255
4429,-0.330,-0.265
4430,-0.335,-0.275
4431,-0.350,-0.280
4432,-0.360,-0.290
4433,-0.350,-0.275
4434,-0.350,-0.265
4435,-0.345,-0.270
4436,-0.350,-0.270
4437,-0.355,-0.280
4438,-0.365,-0.280
4439,-0.360,-0.270
4440,-0.355,-0.265
4441,-0.350,-0.280
4442,-0.340,-0.285
4443,-0.360,-0.295
4444,-0.370,-0.295
4445,-0.370,-0.280
4446,-0.355,-0.265
4447,-0.345,-0.280
4448,-0.350,-0.300
4449,-0.370,-0.325
4450,-0.385,-0.355
4451,-0.410,-0.360
4452,-0.440,-0.355
4453,-0.460,-0.385
4454,-0.490,-0.400
4455,-0.540,-0.355
4456,-0.565,-0.270
4457,-0.550,-0.170
4458,-0.485,-0.075
4459,-0.365,-0.010
4460,-0.255,0.050
4461,-0.125,0.135
4462,0.090,0.255
4463,0.360,0.360
4464,0.600,0.390
4465,0.750,0.275
4466,0.795,0.040
4467,0.700,-0.225
4468,0.440,-0.400
4469,0.095,-0.410
4470,-0.185,-0.360
4471,-0.370,-0.345
4472,-0.470,-0.340
4473,-0.490,-0.345
4474,-0.470,-0.345
4475,-0.440,-0.330
4476,-0.425,-0.305
4477,-0.410,-0.315
4478,-0.410,-0.315
4479,-0.410,-0.325
4480,-0.420,-0.335
4481,-0.400,-0.330
4482,-0.395,-0.310
4483,-0.405,-0.315
4484,-0.410,-0.320
4485,-0.405,-0.320
4486,-0.420,-0.320
4487,-0.395,-0.320
4488,-0.395,-0.310
4489,-0.390,-0.325
4490,-0.395,-0.330
4491,-0.395,-0.345
4492,-0.410,-0.340
4493,-0.400,-0.320
4494,-0.400,-0.310
4495,-0.410,-0.310
4496,-0.400,-0.320
4497,-0.405,-0.325
4498,-0.410,-0.325
4499,-0.410,-0.315
4500,-0.400,-0.310
4501,-0.390,-0.310
4502,-0.390,-0.315
4503,-0.400,-0.330
4504,-0.400,-0.320
4505,-0.395,-0.315
4506,-0.390,-0.290
4507,-0.385,-0.305
4508,-0.390,-0.305
4509,-0.410,-0.320
4510,-0.410,-0.320
4511,-0.410,-0.325
4512,-0.415,-0.320
4513,-0.410,-0.315
4514,-0.405,-0.320
4515,-0.420,-0.325
4516,-0.420,-0.330
4517,-0.420,-0.315
4518,-0.415,-0.310
4519,-0.410,-0.315
4520,-0.415,-0.330
4521,-0.425,-0.340
4522,-0.425,-0.335
4523,-0.420,-0.315
4524,-0.425,-0.305
4525,-0.420,-0.320
4526,-0.410,-0.325
4527,-0.410,-0.320
4528,-0.415,-0.325
4529,-0.410,-0.330
4530,-0.410,-0.320
4531,-0.400,-0.310
4532,-0.405,-0.325
4533,-0.405,-0.325
4534,-0.425,-0.330
4535,-0.420,-0.325
4536,-0.410,-0.330
4537,-0.400,-0.330
4538,-0.405,-0.335
4539,-0.415,-0.335
4540,-0.420,-0.345
4541,-0.410,-0.335
4542,-0.410,-0.340
4543,-0.400,-0.345
4544,-0.410,-0.350
4545,-0.415,-0.360
4546,-0.420,-0.380
4547,-0.410,-0.365
4548,-0.400,-0.360
4549,-0.390,-0.370
4550,-0.400,-0.380
4551,-0.415,-0.405
4552,-0.420,-0.425
4553,-0.415,-0.420
4554,-0.415,-0.405
4555,-0.400,-0.410
4556,-0.415,-0.425
4557,-0.430,-0.440
4558,-0.450,-0.445
4559,-0.440,-0.440
4560,-0.440,-0.430
4561,-0.435,-0.430
4562,-0.435,-0.440
4563,-0.440,-0.450
4564,-0.450,-0.465
4565,-0.435,-0.440
4566,-0.440,-0.435
4567,-0.430,-0.445
4568,-0.440,-0.465
4569,-0.445,-0.450
4570,-0.445,-0.445
4571,-0.440,-0.420
4572,-0.435,-0.400
4573,-0.420,-0.385
4574,-0.415,-0.380
4575,-0.410,-0.380
4576,-0.405,-0.375
4577,-0.380,-0.365
4578,-0.375,-0.345
4579,-0.370,-0.340
4580,-0.370,-0.340
4581,-0.370,-0.325
4582,-0.360,-0.305
4583,-0.355,-0.280
4584,-0.325,-0.275
4585,-0.305,-0.290
4586,-0.310,-0.305
4587,-0.320,-0.310
4588,-0.325,-0.305
4589,-0.325,-0.290
4590,-0.315,-0.280
4591,-0.300,-0.280
4592,-0.305,-0.270
4593,-0.320,-0.290
4594,-0.330,-0.285
4595,-0.330,-0.290
4596,-0.310,-0.275
4597,-0.310,-0.290
4598,-0.310,-0.295
4599,-0.305,-0.290
4600,-0.310,-0.300
4601,-0.320,-0.280
4602,-0.305,-0.270
4603,-0.300,-0.280
4604,-0.300,-0.285
4605,-0.305,-0.300
4606,-0.320,-0.290
4607,-0.320,-0.285
4608,-0.315,-0.275
4609,-0.315,-0.285
4610,-0.310,-0.300
4611,-0.330,-0.305
4612,-0.335,-0.310
4613,-0.335,-0.295
4614,-0.320,-0.295
4615,-0.315,-0.290
4616,-0.315,-0.295
4617,-0.325,-0.305
4618,-0.330,-0.310
4619,-0.335,-0.305
4620,-0.320,-0.295
4621,-0.300,-0.295
4622,-0.300,-0.300
4623,-0.320,-0.300
4624,-0.320,-0.310
4625,-0.330,-0.320
4626,-0.320,-0.300
4627,-0.320,-0.325
4628,-0.325,-0.325
4629,-0.340,-0.325
4630,-0.355,-0.335
4631,-0.345,-0.330
4632,-0.350,-0.310
4633,-0.345,-0.320
4634,-0.345,-0.325
4635,-0.360,-0.335
4636,-0.360,-0.340
4637,-0.345,-0.325
4638,-0.340,-0.315
4639,-0.340,-0.330
4640,-0.355,-0.330
4641,-0.350,-0.335
4642,-0.350,-0.340
4643,-0.355,-0.335
4644,-0.340,-0.315
4645,-0.335,-0.330
4646,-0.340,-0.345
4647,-0.350,-0.340
4648,-0.355,-0.340
4649,-0.355,-0.330
4650,-0.355,-0.325
4651,-0.345,-0.330
4652,-0.345,-0.340
4653,-0.350,-0.350
4654,-0.360,-0.355
4655,-0.365,-0.335
4656,-0.365,-0.320
4657,-0.350,-0.325
4658,-0.350,-0.330
4659,-0.360,-0.330
4660,-0.370,-0.355
4661,-0.360,-0.340
4662,-0.350,-0.320
4663,-0.335,-0.335
4664,-0.350,-0.335
4665,-0.350,-0.330
4666,-0.345,-0.350
4667,-0.340,-0.335
4668,-0.340,-0.335
4669,-0.340,-0.340
4670,-0.340,-0.340
4671,-0.345,-0.350
4672,-0.350,-0.345
4673,-0.360,-0.325
4674,-0.350,-0.320
4675,-0.335,-0.325
4676,-0.345,-0.345
4677,-0.350,-0.350
4678,-0.350,-0.350
4679,-0.355,-0.345
4680,-0.340,-0.330
4681,-0.335,-0.315
4682,-0.330,-0.330
4683,-0.340,-0.340
4684,-0.355,-0.345
4685,-0.355,-0.340
4686,-0.330,-0.320
4687,-0.315,-0.330
4688,-0.315,-0.340
4689,-0.315,-0.350
4690,-0.320,-0.335
4691,-0.300,-0.325
4692,-0.300,-0.310
4693,-0.280,-0.305
4694,-0.265,-0.320
4695,-0.280,-0.315
4696,-0.285,-0.320
4697,-0.265,-0.310
4698,-0.235,-0.290
4699,-0.230,-0.295
4700,-0.230,-0.305
4701,-0.245,-0.305
4702,-0.255,-0.310
4703,-0.250,-0.295
4704,-0.245,-0.280
4705,-0.250,-0.280
4706,-0.255,-0.285
4707,-0.265,-0.290
4708,-0.270,-0.295
4709,-0.290,-0.290
4710,-0.280,-0.285
4711,-0.275,-0.295
4712,-0.260,-0.300
4713,-0.255,-0.315
4714,-0.260,-0.315
4715,-0.275,-0.305
4716,-0.295,-0.295
4717,-0.300,-0.305
4718,-0.305,-0.310
4719,-0.335,-0.345
4720,-0.355,-0.335
4721,-0.350,-0.340
4722,-0.350,-0.335
4723,-0.350,-0.330
4724,-0.355,-0.330
4725,-0.370,-0.345
4726,-0.370,-0.345
4727,-0.360,-0.340
4728,-0.365,-0.335
4729,-0.355,-0.330
4730,-0.365,-0.335
4731,-0.375,-0.335
4732,-0.385,-0.330
4733,-0.380,-0.325
4734,-0.375,-0.310
4735,-0.355,-0.325
4736,-0.370,-0.325
4737,-0.385,-0.330
4738,-0.390,-0.335
4739,-0.390,-0.335
4740,-0.370,-0.315
4741,-0.360,-0.320
4742,-0.370,-0.330
4743,-0.380,-0.325
4744,-0.385,-0.335
4745,-0.380,-0.325
4746,-0.375,-0.330
4747,-0.370,-0.350
4748,-0.380,-0.375
4749,-0.405,-0.395
4750,-0.445,-0.425
4751,-0.465,-0.425
4752,-0.480,-0.430
4753,-0.485,-0.425
4754,-0.525,-0.365
4755,-0.555,-0.270
4756,-0.535,-0.165
4757,-0.450,-0.065
4758,-0.325,0.015
4759,-0.185,0.080
4760,-0.025,0.180
4761,0.185,0.295
4762,0.430,0.390
4763,0.660,0.405
4764,0.815,0.315
4765,0.850,0.025
4766,0.750,-0.260
4767,0.485,-0.440
4768,0.110,-0.465
4769,-0.210,-0.415
4770,-0.390,-0.375
4771,-0.460,-0.360
4772,-0.485,-0.350
4773,-0.470,-0.350
4774,-0.450,-0.350
4775,-0.425,-0.335
4776,-0.415,-0.325
4777,-0.405,-0.325
4778,-0.415,-0.340
4779,-0.415,-0.330
4780,-0.420,-0.335
4781,-0.400,-0.325
4782,-0.395,-0.325
4783,-0.385,-0.335
4784,-0.395,-0.325
4785,-0.400,-0.350
4786,-0.420,-0.340
4787,-0.410,-0.340
4788,-0.400,-0.310
4789,-0.400,-0.320
4790,-0.405,-0.325
4791,-0.405,-0.345
4792,-0.435,-0.340
4793,-0.420,-0.330
4794,-0.410,-0.315
4795,-0.405,-0.310
4796,-0.415,-0.320
4797,-0.430,-0.335
4798,-0.440,-0.335
4799,-0.435,-0.325
4800,-0.415,-0.315
4801,-0.420,-0.325
4802,-0.430,-0.330
4803,-0.415,-0.325
4804,-0.430,-0.330
4805,-0.425,-0.315
4806,-0.420,-0.320
4807,-0.420,-0.310
4808,-0.415,-0.320
4809,-0.425,-0.335
4810,-0.425,-0.330
4811,-0.420,-0.315
4812,-0.410,-0.315
4813,-0.410,-0.315
4814,-0.410,-0.320
4815,-0.420,-0.330
4816,-0.430,-0.330
4817,-0.420,-0.315
4818,-0.415,-0.310
4819,-0.395,-0.305
4820,-0.405,-0.320
4821,-0.415,-0.335
4822,-0.430,-0.335
4823,-0.420,-0.345
4824,-0.420,-0.325
4825,-0.415,-0.330
4826,-0.420,-0.330
4827,-0.425,-0.335
4828,-0.440,-0.335
4829,-0.430,-0.330
4830,-0.425,-0.325
4831,-0.415,-0.330
4832,-0.420,-0.335
4833,-0.425,-0.355
4834,-0.440,-0.355
4835,-0.430,-0.350
4836,-0.430,-0.330
4837,-0.425,-0.340
4838,-0.420,-0.360
4839,-0.415,-0.365
4840,-0.425,-0.365
4841,-0.430,-0.370
4842,-0.425,-0.350
4843,-0.415,-0.355
4844,-0.405,-0.370
4845,-0.405,-0.380
4846,-0.425,-0.390
4847,-0.415,-0.385
4848,-0.420,-0.380
4849,-0.420,-0.390
4850,-0.420,-0.395
4851,-0.435,-0.420
4852,-0.435,-0.430
4853,-0.440,-0.420
4854,-0.420,-0.410
4855,-0.430,-0.425
4856,-0.450,-0.430
4857,-0.455,-0.450
4858,-0.465,-0.460
4859,-0.465,-0.445
4860,-0.465,-0.455
4861,-0.465,-0.450
4862,-0.465,-0.450
4863,-0.470,-0.470
4864,-0.490,-0.465
4865,-0.485,-0.460
4866,-0.460,-0.440
4867,-0.455,-0.445
4868,-0.460,-0.435
4869,-0.455,-0.420
4870,-0.455,-0.400
4871,-0.440,-0.380
4872,-0.425,-0.365
4873,-0.415,-0.365
4874,-0.400,-0.355
4875,-0.405,-0.340
4876,-0.400,-0.345
4877,-0.385,-0.320
4878,-0.365,-0.300
4879,-0.365,-0.290
4880,-0.360,-0.280
4881,-0.370,-0.295
4882,-0.375,-0.285
4883,-0.355,-0.270
4884,-0.340,-0.260
4885,-0.330,-0.255
4886,-0.330,-0.250
4887,-0.330,-0.250
4888,-0.340,-0.255
4889,-0.335,-0.245
4890,-0.320,-0.245
4891,-0.305,-0.235
4892,-0.315,-0.245
4893,-0.320,-0.240
4894,-0.320,-0.250
4895,-0.320,-0.240
4896,-0.315,-0.230
4897,-0.310,-0.235
4898,-0.310,-0.240
4899,-0.315,-0.260
4900,-0.330,-0.250
4901,-0.320,-0.240
4902,-0.320,-0.230
4903,-0.310,-0.235
4904,-0.320,-0.235
4905,-0.330,-0.265
4906,-0.340,-0.265
4907,-0.330,-0.255
4908,-0.325,-0.245
4909,-0.325,-0.245
4910,-0.320,-0.250
4911,-0.340,-0.270
4912,-0.350,-0.270
4913,-0.340,-0.255
4914,-0.320,-0.250
4915,-0.315,-0.255
4916,-0.325,-0.255
4917,-0.340,-0.260
4918,-0.345,-0.255
4919,-0.345,-0.255
4920,-0.340,-0.250
4921,-0.330,-0.255
4922,-0.335,-0.270
4923,-0.345,-0.275
4924,-0.360,-0.280
4925,-0.355,-0.250
4926,-0.340,-0.250
4927,-0.330,-0.255
4928,-0.335,-0.270
4929,-0.345,-0.275
4930,-0.365,-0.275
4931,-0.370,-0.270
4932,-0.350,-0.260
4933,-0.340,-0.260
4934,-0.335,-0.265
4935,-0.360,-0.280
4936,-0.355,-0.280
4937,-0.340,-0.265
4938,-0.335,-0.255
4939,-0.335,-0.260
4940,-0.320,-0.280
4941,-0.335,-0.275
4942,-0.355,-0.280
4943,-0.350,-0.265
4944,-0.345,-0.255
4945,-0.340,-0.270
4946,-0.335,-0.265
4947,-0.350,-0.285
4948,-0.370,-0.285
4949,-0.360,-0.270
4950,-0.355,-0.260
4951,-0.350,-0.265
4952,-0.345,-0.260
4953,-0.365,-0.280
4954,-0.360,-0.270
4955,-0.360,-0.275
4956,-0.350,-0.265
4957,-0.345,-0.255
4958,-0.355,-0.275
4959,-0.355,-0.280
4960,-0.365,-0.275
4961,-0.360,-0.270
4962,-0.345,-0.260
4963,-0.345,-0.265
4964,-0.350,-0.260
4965,-0.355,-0.270
4966,-0.360,-0.280
4967,-0.355,-0.260
4968,-0.350,-0.255
4969,-0.335,-0.260
4970,-0.335,-0.270
4971,-0.355,-0.270
4972,-0.345,-0.275
4973,-0.340,-0.265
4974,-0.330,-0.250
4975,-0.340,-0.250
4976,-0.345,-0.260
4977,-0.350,-0.265
4978,-0.355,-0.275
4979,-0.350,-0.265
4980,-0.335,-0.255
4981,-0.330,-0.250
4982,-0.330,-0.265
4983,-0.330,-0.260
4984,-0.330,-0.265
4985,-0.305,-0.250
4986,-0.285,-0.235
4987,-0.275,-0.260
4988,-0.280,-0.260
4989,-0.285,-0.250
4990,-0.290,-0.250
4991,-0.275,-0.240
4992,-0.260,-0.220
4993,-0.245,-0.215
4994,-0.240,-0.230
4995,-0.240,-0.240
4996,-0.240,-0.225
4997,-0.235,-0.220
4998,-0.225,-0.195
4999,-0.220,-0.200
5000,-0.230,-0.210
5001,-0.240,-0.200
5002,-0.255,-0.215
5003,-0.255,-0.190
5004,-0.240,-0.195
5005,-0.240,-0.195
5006,-0.250,-0.190
5007,-0.270,-0.210
5008,-0.270,-0.210
5009,-0.240,-0.200
5010,-0.230,-0.210
5011,-0.225,-0.225
5012,-0.265,-0.220
5013,-0.295,-0.230
5014,-0.305,-0.235
5015,-0.325,-0.225
5016,-0.315,-0.220
5017,-0.325,-0.235
5018,-0.330,-0.240
5019,-0.345,-0.230
5020,-0.360,-0.250
5021,-0.365,-0.255
5022,-0.355,-0.245
5023,-0.345,-0.240
5024,-0.340,-0.245
5025,-0.335,-0.250
5026,-0.360,-0.255
5027,-0.355,-0.240
5028,-0.345,-0.235
5029,-0.335,-0.240
5030,-0.355,-0.245
5031,-0.350,-0.255
5032,-0.375,-0.260
5033,-0.375,-0.255
5034,-0.365,-0.230
5035,-0.365,-0.240
5036,-0.350,-0.245
5037,-0.370,-0.255
5038,-0.380,-0.265
5039,-0.365,-0.265
5040,-0.370,-0.250
5041,-0.355,-0.245
5042,-0.370,-0.250
5043,-0.380,-0.270
5044,-0.385,-0.300
5045,-0.385,-0.320
5046,-0.400,-0.330
5047,-0.430,-0.355
5048,-0.465,-0.385
5049,-0.485,-0.370
5050,-0.520,-0.320
5051,-0.555,-0.190
5052,-0.525,-0.050
5053,-0.435,0.075
5054,-0.305,0.190
5055,-0.155,0.305
5056,0.010,0.435
5057,0.260,0.570
5058,0.535,0.660
5059,0.760,0.645
5060,0.890,0.455
5061,0.905,0.120
5062,0.705,-0.175
5063,0.360,-0.295
5064,-0.030,-0.260
5065,-0.320,-0.255
5066,-0.455,-0.275
5067,-0.475,-0.280
5068,-0.440,-0.280
5069,-0.395,-0.275
5070,-0.380,-0.280
5071,-0.380,-0.280
5072,-0.385,-0.285
5073,-0.395,-0.295
5074,-0.400,-0.300
5075,-0.405,-0.290
5076,-0.395,-0.285
5077,-0.410,-0.295
5078,-0.390,-0.300
5079,-0.395,-0.310
5080,-0.405,-0.295
5081,-0.405,-0.305
5082,-0.395,-0.290
5083,-0.385,-0.285
5084,-0.385,-0.300
5085,-0.405,-0.305
5086,-0.405,-0.300
5087,-0.400,-0.290
5088,-0.385,-0.285
5089,-0.380,-0.290
5090,-0.385,-0.290
5091,-0.405,-0.295
5092,-0.410,-0.290
5093,-0.400,-0.290
5094,-0.395,-0.285
5095,-0.385,-0.285
5096,-0.395,-0.290
5097,-0.410,-0.310
5098,-0.405,-0.305
5099,-0.405,-0.285
5100,-0.395,-0.280
5101,-0.390,-0.280
5102,-0.395,-0.285
5103,-0.395,-0.295
5104,-0.405,-0.305
5105,-0.410,-0.290
5106,-0.400,-0.270
5107,-0.385,-0.280
5108,-0.395,-0.280
5109,-0.400,-0.295
5110,-0.395,-0.305
5111,-0.385,-0.295
5112,-0.385,-0.280
5113,-0.375,-0.280
5114,-0.375,-0.285
5115,-0.380,-0.295
5116,-0.395,-0.295
5117,-0.385,-0.295
5118,-0.390,-0.290
5119,-0.385,-0.295
5120,-0.380,-0.300
5121,-0.390,-0.310
5122,-0.400,-0.300
5123,-0.400,-0.300
5124,-0.390,-0.295
5125,-0.365,-0.305
5126,-0.375,-0.315
5127,-0.385,-0.330
5128,-0.400,-0.325
5129,-0.400,-0.325
5130,-0.390,-0.315
5131,-0.380,-0.325
5132,-0.375,-0.330
5133,-0.385,-0.345
5134,-0.395,-0.350
5135,-0.380,-0.345
5136,-0.370,-0.335
5137,-0.365,-0.355
5138,-0.365,-0.380
5139,-0.375,-0.375
5140,-0.385,-0.385
5141,-0.375,-0.375
5142,-0.375,-0.370
5143,-0.365,-0.380
5144,-0.370,-0.395
5145,-0.375,-0.410
5146,-0.400,-0.410
5147,-0.395,-0.405
5148,-0.405,-0.400
5149,-0.370,-0.405
5150,-0.385,-0.420
5151,-0.400,-0.430
5152,-0.410,-0.430
5153,-0.400,-0.420
5154,-0.395,-0.410
5155,-0.375,-0.405
5156,-0.380,-0.405
5157,-0.385,-0.410
5158,-0.405,-0.405
5159,-0.385,-0.385
5160,-0.375,-0.370
5161,-0.370,-0.355
5162,-0.365,-0.345
5163,-0.365,-0.335
5164,-0.350,-0.320
5165,-0.355,-0.300
5166,-0.320,-0.280
5167,-0.310,-0.270
5168,-0.310,-0.265
5169,-0.305,-0.265
5170,-0.310,-0.250
5171,-0.290,-0.225
5172,-0.280,-0.215
5173,-0.280,-0.215
5174,-0.270,-0.230
5175,-0.280,-0.225
5176,-0.285,-0.225
5177,-0.280,-0.225
5178,-0.285,-0.210
5179,-0.265,-0.210
5180,-0.270,-0.215
5181,-0.275,-0.210
5182,-0.290,-0.210
5183,-0.290,-0.210
5184,-0.275,-0.195
5185,-0.275,-0.200
5186,-0.270,-0.215
5187,-0.275,-0.220
5188,-0.290,-0.215
5189,-0.285,-0.205
5190,-0.285,-0.195
5191,-0.260,-0.205
5192,-0.260,-0.220
5193,-0.275,-0.225
5194,-0.285,-0.220
5195,-0.275,-0.210
5196,-0.265,-0.205
5197,-0.270,-0.210
5198,-0.280,-0.215
5199,-0.290,-0.225
5200,-0.295,-0.230
5201,-0.300,-0.220
5202,-0.280,-0.210
5203,-0.280,-0.220
5204,-0.275,-0.220
5205,-0.290,-0.235
5206,-0.300,-0.235
5207,-0.305,-0.225
5208,-0.285,-0.215
5209,-0.285,-0.220
5210,-0.285,-0.225
5211,-0.295,-0.235
5212,-0.300,-0.235
5213,-0.300,-0.230
5214,-0.295,-0.215
5215,-0.280,-0.215
5216,-0.295,-0.225
5217,-0.290,-0.240
5218,-0.305,-0.250
5219,-0.305,-0.235
5220,-0.300,-0.235
5221,-0.285,-0.235
5222,-0.285,-0.235
5223,-0.310,-0.260
5224,-0.315,-0.250
5225,-0.305,-0.235
5226,-0.305,-0.235
5227,-0.295,-0.230
5228,-0.300,-0.240
5229,-0.320,-0.250
5230,-0.335,-0.245
5231,-0.320,-0.240
5232,-0.320,-0.240
5233,-0.310,-0.240
5234,-0.315,-0.245
5235,-0.310,-0.250
5236,-0.330,-0.255
5237,-0.320,-0.245
5238,-0.310,-0.240
5239,-0.305,-0.245
5240,-0.305,-0.255
5241,-0.315,-0.255
5242,-0.315,-0.260
5243,-0.315,-0.245
5244,-0.305,-0.230
5245,-0.305,-0.250
5246,-0.300,-0.245
5247,-0.310,-0.260
5248,-0.310,-0.260
5249,-0.310,-0.240
5250,-0.310,-0.230
5251,-0.295,-0.225
5252,-0.300,-0.230
5253,-0.325,-0.250
5254,-0.325,-0.250
5255,-0.330,-0.240
5256,-0.320,-0.230
5257,-0.310,-0.235
5258,-0.305,-0.245
5259,-0.315,-0.240
5260,-0.330,-0.230
5261,-0.320,-0.225
5262,-0.310,-0.235
5263,-0.305,-0.230
5264,-0.300,-0.230
5265,-0.295,-0.240
5266,-0.320,-0.245
5267,-0.310,-0.230
5268,-0.300,-0.225
5269,-0.275,-0.225
5270,-0.270,-0.230
5271,-0.260,-0.245
5272,-0.250,-0.240
5273,-0.235,-0.230
5274,-0.230,-0.215
5275,-0.225,-0.210
5276,-0.230,-0.225
5277,-0.230,-0.225
5278,-0.240,-0.230
5279,-0.230,-0.215
5280,-0.225,-0.200
5281,-0.205,-0.205
5282,-0.205,-0.210
5283,-0.200,-0.210
5284,-0.210,-0.200
5285,-0.195,-0.190
5286,-0.200,-0.180
5287,-0.190,-0.185
5288,-0.200,-0.195
5289,-0.210,-0.200
5290,-0.225,-0.195
5291,-0.225,-0.185
5292,-0.220,-0.155
5293,-0.220,-0.165
5294,-0.220,-0.170
5295,-0.230,-0.180
5296,-0.250,-0.175
5297,-0.245,-0.180
5298,-0.230,-0.160
5299,-0.205,-0.185
5300,-0.185,-0.190
5301,-0.195,-0.205
5302,-0.225,-0.205
5303,-0.250,-0.195
5304,-0.255,-0.190
5305,-0.265,-0.200
5306,-0.275,-0.205
5307,-0.305,-0.225
5308,-0.320,-0.230
5309,-0.325,-0.225
5310,-0.325,-0.200
5311,-0.330,-0.215
5312,-0.330,-0.225
5313,-0.325,-0.230
5314,-0.335,-0.245
5315,-0.340,-0.235
5316,-0.335,-0.215
5317,-0.320,-0.225
5318,-0.335,-0.235
5319,-0.345,-0.230
5320,-0.355,-0.235
5321,-0.350,-0.220
5322,-0.355,-0.220
5323,-0.350,-0.225
5324,-0.345,-0.225
5325,-0.340,-0.225
5326,-0.355,-0.230
5327,-0.350,-0.225
5328,-0.340,-0.225
5329,-0.340,-0.245
5330,-0.340,-0.280
5331,-0.355,-0.305
5332,-0.400,-0.335
5333,-0.435,-0.350
5334,-0.455,-0.360
5335,-0.470,-0.360
5336,-0.500,-0.315
5337,-0.540,-0.220
5338,-0.545,-0.095
5339,-0.465,0.025
5340,-0.355,0.140
5341,-0.210,0.245
5342,-0.035,0.365
5343,0.185,0.465
5344,0.435,0.565
5345,0.675,0.580
5346,0.820,0.415
5347,0.825,0.075
5348,0.640,-0.210
5349,0.320,-0.330
5350,-0.070,-0.300
5351,-0.340,-0.270
5352,-0.445,-0.260
5353,-0.445,-0.260
5354,-0.410,-0.255
5355,-0.380,-0.265
5356,-0.375,-0.265
5357,-0.375,-0.255
5358,-0.370,-0.250
5359,-0.365,-0.260
5360,-0.360,-0.265
5361,-0.370,-0.260
5362,-0.375,-0.275
5363,-0.370,-0.255
5364,-0.360,-0.255
5365,-0.350,-0.260
5366,-0.355,-0.275
5367,-0.365,-0.275
5368,-0.380,-0.275
5369,-0.380,-0.260
5370,-0.370,-0.260
5371,-0.365,-0.255
5372,-0.365,-0.275
5373,-0.380,-0.285
5374,-0.385,-0.280
5375,-0.390,-0.265
5376,-0.380,-0.250
5377,-0.375,-0.250
5378,-0.375,-0.260
5379,-0.380,-0.275
5380,-0.390,-0.285
5381,-0.380,-0.275
5382,-0.375,-0.250
5383,-0.370,-0.255
5384,-0.365,-0.255
5385,-0.375,-0.270
5386,-0.385,-0.270
5387,-0.365,-0.255
5388,-0.360,-0.250
5389,-0.350,-0.250
5390,-0.355,-0.255
5391,-0.355,-0.255
5392,-0.370,-0.250
5393,-0.365,-0.255
5394,-0.350,-0.235
5395,-0.360,-0.240
5396,-0.365,-0.255
5397,-0.365,-0.255
5398,-0.375,-0.265
5399,-0.375,-0.260
5400,-0.355,-0.250
5401,-0.355,-0.250
5402,-0.370,-0.260
5403,-0.375,-0.275
5404,-0.380,-0.280
5405,-0.385,-0.275
5406,-0.370,-0.255
5407,-0.370,-0.265
5408,-0.360,-0.285
5409,-0.370,-0.280
5410,-0.375,-0.295
5411,-0.365,-0.295
5412,-0.355,-0.275
5413,-0.345,-0.285
5414,-0.360,-0.295
5415,-0.355,-0.305
5416,-0.365,-0.305
5417,-0.360,-0.305
5418,-0.345,-0.305
5419,-0.335,-0.310
5420,-0.335,-0.315
5421,-0.355,-0.330
5422,-0.355,-0.330
5423,-0.350,-0.315
5424,-0.340,-0.315
5425,-0.350,-0.320
5426,-0.350,-0.340
5427,-0.355,-0.365
5428,-0.365,-0.360
5429,-0.360,-0.360
5430,-0.365,-0.345
5431,-0.365,-0.365
5432,-0.365,-0.365
5433,-0.370,-0.385
5434,-0.375,-0.385
5435,-0.380,-0.390
5436,-0.365,-0.375
5437,-0.350,-0.365
5438,-0.360,-0.385
5439,-0.365,-0.400
5440,-0.380,-0.395
5441,-0.375,-0.390
5442,-0.370,-0.380
5443,-0.360,-0.385
5444,-0.365,-0.400
5445,-0.375,-0.405
5446,-0.380,-0.400
5447,-0.375,-0.395
5448,-0.360,-0.370
5449,-0.355,-0.370
5450,-0.355,-0.365
5451,-0.355,-0.370
5452,-0.350,-0.350
5453,-0.350,-0.335
5454,-0.340,-0.320
5455,-0.330,-0.320
5456,-0.325,-0.310
5457,-0.335,-0.305
5458,-0.335,-0.295
5459,-0.330,-0.285
5460,-0.310,-0.270
5461,-0.300,-0.255
5462,-0.295,-0.265
5463,-0.305,-0.270
5464,-0.310,-0.250
5465,-0.285,-0.240
5466,-0.285,-0.225
5467,-0.265,-0.230
5468,-0.270,-0.225
5469,-0.285,-0.235
5470,-0.290,-0.245
5471,-0.275,-0.250
5472,-0.270,-0.235
5473,-0.255,-0.235
5474,-0.265,-0.240
5475,-0.265,-0.255
5476,-0.275,-0.250
5477,-0.270,-0.235
5478,-0.260,-0.235
5479,-0.250,-0.240
5480,-0.260,-0.245
5481,-0.270,-0.255
5482,-0.280,-0.255
5483,-0.290,-0.260
5484,-0.290,-0.245
5485,-0.280,-0.245
5486,-0.280,-0.255
5487,-0.290,-0.265
5488,-0.305,-0.270
5489,-0.300,-0.260
5490,-0.300,-0.240
5491,-0.295,-0.240
5492,-0.300,-0.255
5493,-0.290,-0.280
5494,-0.300,-0.265
5495,-0.310,-0.265
5496,-0.310,-0.260
5497,-0.295,-0.260
5498,-0.295,-0.255
5499,-0.300,-0.260
5500,-0.320,-0.260
5501,-0.315,-0.255
5502,-0.315,-0.250
5503,-0.300,-0.260
5504,-0.310,-0.265
5505,-0.305,-0.280
5506,-0.315,-0.290
5507,-0.305,-0.275
5508,-0.305,-0.255
5509,-0.305,-0.260
5510,-0.300,-0.275
5511,-0.305,-0.290
5512,-0.310,-0.290
5513,-0.315,-0.285
5514,-0.315,-0.280
5515,-0.315,-0.275
5516,-0.320,-0.280
5517,-0.335,-0.285
5518,-0.345,-0.290
5519,-0.335,-0.285
5520,-0.310,-0.275
5521,-0.325,-0.285
5522,-0.320,-0.285
5523,-0.330,-0.285
5524,-0.325,-0.295
5525,-0.325,-0.285
5526,-0.320,-0.280
5527,-0.320,-0.275
5528,-0.315,-0.290
5529,-0.325,-0.300
5530,-0.345,-0.295
5531,-0.335,-0.285
5532,-0.325,-0.280
5533,-0.325,-0.280
5534,-0.330,-0.295
5535,-0.335,-0.295
5536,-0.340,-0.300
5537,-0.335,-0.290
5538,-0.325,-0.270
5539,-0.320,-0.275
5540,-0.315,-0.280
5541,-0.335,-0.290
5542,-0.345,-0.295
5543,-0.335,-0.285
5544,-0.325,-0.285
5545,-0.325,-0.285
5546,-0.320,-0.290
5547,-0.325,-0.300
5548,-0.335,-0.295
5549,-0.320,-0.295
5550,-0.320,-0.275
5551,-0.310,-0.280
5552,-0.310,-0.280
5553,-0.320,-0.300
5554,-0.330,-0.300
5555,-0.340,-0.285
5556,-0.325,-0.275
5557,-0.305,-0.270
5558,-0.305,-0.295
5559,-0.290,-0.295
5560,-0.290,-0.305
5561,-0.270,-0.290
5562,-0.265,-0.270
5563,-0.265,-0.280
5564,-0.260,-0.290
5565,-0.260,-0.290
5566,-0.270,-0.275
5567,-0.275,-0.255
5568,-0.260,-0.250
5569,-0.245,-0.260
5570,-0.235,-0.270
5571,-0.230,-0.280
5572,-0.245,-0.270
5573,-0.240,-0.265
5574,-0.230,-0.245
5575,-0.240,-0.245
5576,-0.225,-0.255
5577,-0.240,-0.250
5578,-0.245,-0.240
5579,-0.240,-0.235
5580,-0.220,-0.230
5581,-0.220,-0.230
5582,-0.230,-0.250
5583,-0.245,-0.265
5584,-0.255,-0.275
5585,-0.240,-0.275
5586,-0.215,-0.260
5587,-0.225,-0.255
5588,-0.255,-0.265
5589,-0.285,-0.290
5590,-0.310,-0.295
5591,-0.310,-0.295
5592,-0.330,-0.280
5593,-0.335,-0.270
5594,-0.350,-0.290
5595,-0.350,-0.300
5596,-0.360,-0.295
5597,-0.355,-0.300
5598,-0.340,-0.300
5599,-0.340,-0.300
5600,-0.335,-0.305
5601,-0.350,-0.295
5602,-0.360,-0.295
5603,-0.360,-0.295
5604,-0.345,-0.300
5605,-0.345,-0.300
5606,-0.350,-0.300
5607,-0.350,-0.300
5608,-0.360,-0.315
5609,-0.350,-0.305
5610,-0.350,-0.280
5611,-0.345,-0.290
5612,-0.355,-0.295
5613,-0.355,-0.325
5614,-0.370,-0.340
5615,-0.375,-0.360
5616,-0.390,-0.365
5617,-0.425,-0.380
5618,-0.455,-0.415
5619,-0.475,-0.450
5620,-0.500,-0.420
5621,-0.540,-0.345
5622,-0.570,-0.245
5623,-0.510,-0.160
5624,-0.415,-0.090
5625,-0.335,-0.060
5626,-0.260,-0.005
5627,-0.150,0.050
5628,-0.005,0.165
5629,0.205,0.265
5630,0.470,0.380
5631,0.680,0.460
5632,0.825,0.495
5633,0.925,0.485
5634,0.970,0.335
5635,0.885,0.045
5636,0.690,-0.245
5637,0.415,-0.430
5638,0.105,-0.480
5639,-0.150,-0.430
5640,-0.345,-0.400
5641,-0.435,-0.380
5642,-0.465,-0.365
5643,-0.455,-0.355
5644,-0.425,-0.365
5645,-0.415,-0.345
5646,-0.395,-0.345
5647,-0.375,-0.340
5648,-0.370,-0.345
5649,-0.395,-0.365
5650,-0.400,-0.360
5651,-0.400,-0.360
5652,-0.410,-0.340
5653,-0.400,-0.350
5654,-0.405,-0.345
5655,-0.400,-0.365
5656,-0.405,-0.360
5657,-0.395,-0.360
5658,-0.390,-0.345
5659,-0.380,-0.345
5660,-0.385,-0.360
5661,-0.405,-0.360
5662,-0.420,-0.370
5663,-0.405,-0.355
5664,-0.400,-0.345
5665,-0.390,-0.345
5666,-0.380,-0.355
5667,-0.395,-0.360
5668,-0.395,-0.360
5669,-0.400,-0.355
5670,-0.390,-0.350
5671,-0.410,-0.340
5672,-0.405,-0.345
5673,-0.410,-0.360
5674,-0.410,-0.345
5675,-0.395,-0.355
5676,-0.385,-0.335
5677,-0.395,-0.350
5678,-0.405,-0.365
5679,-0.420,-0.360
5680,-0.435,-0.370
5681,-0.415,-0.360
5682,-0.405,-0.345
5683,-0.410,-0.340
5684,-0.400,-0.355
5685,-0.410,-0.375
5686,-0.415,-0.380
5687,-0.410,-0.365
5688,-0.400,-0.360
5689,-0.405,-0.355
5690,-0.390,-0.355
5691,-0.390,-0.350
5692,-0.400,-0.365
5693,-0.390,-0.355
5694,-0.390,-0.360
5695,-0.390,-0.365
5696,-0.395,-0.385
5697,-0.420,-0.390
5698,-0.420,-0.380
5699,-0.415,-0.370
5700,-0.410,-0.365
5701,-0.395,-0.385
5702,-0.395,-0.385
5703,-0.400,-0.420
5704,-0.415,-0.405
5705,-0.415,-0.390
5706,-0.400,-0.390
5707,-0.400,-0.385
5708,-0.385,-0.395
5709,-0.390,-0.405
5710,-0.410,-0.400
5711,-0.395,-0.395
5712,-0.390,-0.395
5713,-0.380,-0.405
5714,-0.375,-0.425
5715,-0.390,-0.440
5716,-0.405,-0.455
5717,-0.420,-0.455
5718,-0.415,-0.445
5719,-0.415,-0.465
5720,-0.415,-0.465
5721,-0.435,-0.480
5722,-0.465,-0.485
5723,-0.455,-0.485
5724,-0.465,-0.485
5725,-0.460,-0.490
5726,-0.445,-0.500
5727,-0.455,-0.510
5728,-0.465,-0.525
5729,-0.475,-0.510
5730,-0.455,-0.495
5731,-0.460,-0.500
5732,-0.450,-0.515
5733,-0.455,-0.510
5734,-0.470,-0.490
5735,-0.455,-0.475
5736,-0.440,-0.450
5737,-0.420,-0.450
5738,-0.415,-0.450
5739,-0.420,-0.440
5740,-0.410,-0.430
5741,-0.410,-0.405
5742,-0.370,-0.390
5743,-0.360,-0.390
5744,-0.350,-0.380
5745,-0.350,-0.380
5746,-0.345,-0.370
5747,-0.335,-0.355
5748,-0.320,-0.340
5749,-0.300,-0.340
5750,-0.320,-0.330
5751,-0.315,-0.340
5752,-0.340,-0.330
5753,-0.325,-0.325
5754,-0.300,-0.320
5755,-0.300,-0.320
5756,-0.300,-0.320
5757,-0.310,-0.325
5758,-0.330,-0.335
5759,-0.310,-0.315
5760,-0.305,-0.315
5761,-0.300,-0.305
5762,-0.305,-0.325
5763,-0.315,-0.340
5764,-0.330,-0.345
5765,-0.310,-0.325
5766,-0.305,-0.320
5767,-0.310,-0.320
5768,-0.305,-0.325
5769,-0.310,-0.340
5770,-0.310,-0.345
5771,-0.310,-0.330
5772,-0.300,-0.310
5773,-0.305,-0.315
5774,-0.310,-0.320
5775,-0.310,-0.345
5776,-0.320,-0.345
5777,-0.315,-0.325
5778,-0.330,-0.340
5779,-0.315,-0.335
5780,-0.320,-0.345
5781,-0.340,-0.340
5782,-0.340,-0.350
5783,-0.335,-0.345
5784,-0.330,-0.335
5785,-0.320,-0.345
5786,-0.320,-0.345
5787,-0.325,-0.355
5788,-0.350,-0.355
5789,-0.340,-0.345
5790,-0.335,-0.335
5791,-0.335,-0.345
5792,-0.345,-0.345
5793,-0.350,-0.355
5794,-0.360,-0.350
5795,-0.360,-0.355
5796,-0.345,-0.340
5797,-0.335,-0.355
5798,-0.335,-0.360
5799,-0.335,-0.355
5800,-0.345,-0.340
5801,-0.335,-0.345
5802,-0.335,-0.345
5803,-0.330,-0.345
5804,-0.335,-0.355
5805,-0.335,-0.340
5806,-0.350,-0.370
5807,-0.345,-0.370
5808,-0.355,-0.350
5809,-0.345,-0.350
5810,-0.345,-0.350
5811,-0.355,-0.360
5812,-0.365,-0.370
5813,-0.360,-0.370
5814,-0.355,-0.360
5815,-0.345,-0.360
5816,-0.345,-0.355
5817,-0.345,-0.360
5818,-0.360,-0.360
5819,-0.345,-0.350
5820,-0.340,-0.345
5821,-0.335,-0.350
5822,-0.340,-0.355
5823,-0.345,-0.365
5824,-0.370,-0.360
5825,-0.370,-0.350
5826,-0.360,-0.330
5827,-0.340,-0.335
5828,-0.350,-0.340
5829,-0.365,-0.350
5830,-0.355,-0.360
5831,-0.350,-0.340
5832,-0.340,-0.340
5833,-0.340,-0.335
5834,-0.355,-0.340
5835,-0.355,-0.350
5836,-0.350,-0.350
5837,-0.350,-0.340
5838,-0.335,-0.330
5839,-0.340,-0.330
5840,-0.340,-0.340
5841,-0.330,-0.345
5842,-0.350,-0.345
5843,-0.315,-0.345
5844,-0.300,-0.335
5845,-0.290,-0.320
5846,-0.275,-0.335
5847,-0.280,-0.340
5848,-0.285,-0.345
5849,-0.275,-0.325
5850,-0.270,-0.300
5851,-0.255,-0.315
5852,-0.240,-0.315
5853,-0.250,-0.305
5854,-0.255,-0.300
5855,-0.240,-0.280
5856,-0.225,-0.270
5857,-0.225,-0.290
5858,-0.240,-0.290
5859,-0.255,-0.295
5860,-0.260,-0.290
5861,-0.275,-0.275
5862,-0.260,-0.255
5863,-0.245,-0.265
5864,-0.255,-0.275
5865,-0.265,-0.280
5866,-0.280,-0.285
5867,-0.270,-0.280
5868,-0.250,-0.270
5869,-0.235,-0.285
5870,-0.230,-0.305
5871,-0.245,-0.305
5872,-0.270,-0.305
5873,-0.280,-0.295
5874,-0.280,-0.295
5875,-0.290,-0.295
5876,-0.315,-0.315
5877,-0.335,-0.325
5878,-0.355,-0.325
5879,-0.355,-0.310
5880,-0.355,-0.305
5881,-0.360,-0.300
5882,-0.360,-0.310
5883,-0.375,-0.325
5884,-0.380,-0.325
5885,-0.360,-0.325
5886,-0.355,-0.305
5887,-0.350,-0.305
5888,-0.345,-0.325
5889,-0.370,-0.320
5890,-0.370,-0.325
5891,-0.355,-0.310
5892,-0.355,-0.310
5893,-0.350,-0.315
5894,-0.345,-0.320
5895,-0.355,-0.325
5896,-0.355,-0.320
5897,-0.360,-0.315
5898,-0.355,-0.305
5899,-0.355,-0.300
5900,-0.355,-0.325
5901,-0.360,-0.335
5902,-0.375,-0.350
5903,-0.370,-0.355
5904,-0.390,-0.380
5905,-0.425,-0.415
5906,-0.465,-0.430
5907,-0.490,-0.455
5908,-0.525,-0.410
5909,-0.560,-0.305
5910,-0.560,-0.160
5911,-0.495,-0.045
5912,-0.360,0.035
5913,-0.220,0.120
5914,-0.045,0.245
5915,0.190,0.385
5916,0.475,0.495
5917,0.725,0.475
5918,0.895,0.295
5919,0.895,-0.040
5920,0.710,-0.350
5921,0.350,-0.440
5922,-0.055,-0.415
5923,-0.350,-0.380
5924,-0.480,-0.360
5925,-0.490,-0.365
5926,-0.465,-0.355
5927,-0.415,-0.340
5928,-0.405,-0.340
5929,-0.395,-0.335
5930,-0.405,-0.350
5931,-0.420,-0.370
5932,-0.395,-0.360
5933,-0.415,-0.355
5934,-0.400,-0.355
5935,-0.390,-0.350
5936,-0.385,-0.350
5937,-0.395,-0.355
5938,-0.405,-0.350
5939,-0.395,-0.350
5940,-0.400,-0.340
5941,-0.390,-0.345
5942,-0.390,-0.345
5943,-0.400,-0.350
5944,-0.415,-0.345
5945,-0.405,-0.335
5946,-0.390,-0.335
5947,-0.380,-0.330
5948,-0.380,-0.345
5949,-0.405,-0.345
5950,-0.390,-0.340
5951,-0.400,-0.335
5952,-0.390,-0.320
5953,-0.380,-0.335
5954,-0.380,-0.330
5955,-0.405,-0.340
5956,-0.400,-0.340
5957,-0.410,-0.335
5958,-0.400,-0.325
5959,-0.395,-0.325
5960,-0.400,-0.340
5961,-0.400,-0.345
5962,-0.405,-0.345
5963,-0.390,-0.320
5964,-0.380,-0.320
5965,-0.385,-0.330
5966,-0.385,-0.345
5967,-0.390,-0.335
5968,-0.405,-0.340
5969,-0.400,-0.330
5970,-0.400,-0.325
5971,-0.390,-0.330
5972,-0.390,-0.340
5973,-0.410,-0.345
5974,-0.410,-0.350
5975,-0.405,-0.335
5976,-0.400,-0.325
5977,-0.410,-0.340
5978,-0.405,-0.335
5979,-0.410,-0.355
5980,-0.415,-0.360
5981,-0.410,-0.355
5982,-0.405,-0.350
5983,-0.395,-0.345
5984,-0.405,-0.355
5985,-0.400,-0.375
5986,-0.400,-0.365
5987,-0.395,-0.375
5988,-0.405,-0.375
5989,-0.380,-0.365
5990,-0.385,-0.375
5991,-0.390,-0.385
5992,-0.410,-0.390
5993,-0.395,-0.380
5994,-0.390,-0.370
5995,-0.380,-0.380
5996,-0.385,-0.390
5997,-0.405,-0.405
5998,-0.405,-0.425
5999,-0.405,-0.420
6000,-0.400,-0.425
6001,-0.410,-0.425
6002,-0.410,-0.435
6003,-0.415,-0.445
6004,-0.435,-0.450
6005,-0.430,-0.460
6006,-0.415,-0.455
6007,-0.420,-0.470
6008,-0.420,-0.475
6009,-0.440,-0.490
6010,-0.440,-0.490
6011,-0.435,-0.475
6012,-0.435,-0.465
6013,-0.435,-0.470
6014,-0.430,-0.480
6015,-0.445,-0.485
6016,-0.445,-0.470
6017,-0.420,-0.465
6018,-0.425,-0.430
6019,-0.410,-0.430
6020,-0.405,-0.420
6021,-0.400,-0.420
6022,-0.410,-0.390
6023,-0.380,-0.375
6024,-0.370,-0.365
6025,-0.350,-0.350
6026,-0.340,-0.340
6027,-0.355,-0.325
6028,-0.345,-0.325
6029,-0.340,-0.310
6030,-0.315,-0.290
6031,-0.320,-0.285
6032,-0.300,-0.290
6033,-0.300,-0.290
6034,-0.315,-0.285
6035,-0.305,-0.270
6036,-0.300,-0.245
6037,-0.280,-0.265
6038,-0.290,-0.265
6039,-0.290,-0.280
6040,-0.300,-0.290
6041,-0.295,-0.270
6042,-0.295,-0.255
6043,-0.280,-0.270
6044,-0.285,-0.265
6045,-0.290,-0.275
6046,-0.295,-0.280
6047,-0.285,-0.275
6048,-0.280,-0.265
6049,-0.275,-0.270
6050,-0.265,-0.280
6051,-0.280,-0.280
6052,-0.295,-0.285
6053,-0.280,-0.275
6054,-0.280,-0.265
6055,-0.275,-0.270
6056,-0.290,-0.270
6057,-0.295,-0.285
6058,-0.310,-0.290
6059,-0.290,-0.270
6060,-0.290,-0.260
6061,-0.275,-0.265
6062,-0.270,-0.280
6063,-0.295,-0.285
6064,-0.315,-0.280
6065,-0.310,-0.280
6066,-0.300,-0.270
6067,-0.295,-0.280
6068,-0.290,-0.280
6069,-0.300,-0.285
6070,-0.315,-0.290
6071,-0.305,-0.280
6072,-0.300,-0.275
6073,-0.290,-0.290
6074,-0.310,-0.295
6075,-0.315,-0.305
6076,-0.330,-0.295
6077,-0.310,-0.285
6078,-0.305,-0.280
6079,-0.295,-0.290
6080,-0.295,-0.300
6081,-0.305,-0.310
6082,-0.325,-0.310
6083,-0.315,-0.305
6084,-0.315,-0.285
6085,-0.310,-0.290
6086,-0.300,-0.295
6087,-0.315,-0.305
6088,-0.335,-0.305
6089,-0.325,-0.300
6090,-0.325,-0.295
6091,-0.315,-0.300
6092,-0.310,-0.290
6093,-0.320,-0.305
6094,-0.335,-0.300
6095,-0.325,-0.285
6096,-0.310,-0.270
6097,-0.305,-0.275
6098,-0.305,-0.290
6099,-0.320,-0.295
6100,-0.325,-0.300
6101,-0.315,-0.295
6102,-0.310,-0.285
6103,-0.300,-0.285
6104,-0.315,-0.285
6105,-0.325,-0.290
6106,-0.320,-0.285
6107,-0.320,-0.280
6108,-0.320,-0.270
6109,-0.310,-0.290
6110,-0.310,-0.290
6111,-0.310,-0.295
6112,-0.315,-0.280
6113,-0.305,-0.285
6114,-0.285,-0.270
6115,-0.295,-0.275
6116,-0.305,-0.285
6117,-0.310,-0.290
6118,-0.315,-0.285
6119,-0.300,-0.280
6120,-0.315,-0.255
6121,-0.305,-0.265
6122,-0.305,-0.265
6123,-0.325,-0.280
6124,-0.325,-0.285
6125,-0.315,-0.280
6126,-0.300,-0.270
6127,-0.295,-0.250
6128,-0.310,-0.270
6129,-0.315,-0.265
6130,-0.320,-0.280
6131,-0.315,-0.275
6132,-0.310,-0.265
6133,-0.295,-0.270
6134,-0.285,-0.280
6135,-0.270,-0.280
6136,-0.250,-0.280
6137,-0.245,-0.255
6138,-0.230,-0.260
6139,-0.220,-0.250
6140,-0.225,-0.255
6141,-0.235,-0.260
6142,-0.230,-0.255
6143,-0.220,-0.235
6144,-0.205,-0.215
6145,-0.190,-0.225
6146,-0.190,-0.235
6147,-0.190,-0.235
6148,-0.205,-0.240
6149,-0.205,-0.230
6150,-0.205,-0.210
6151,-0.210,-0.205
6152,-0.215,-0.205
6153,-0.225,-0.200
6154,-0.230,-0.200
6155,-0.225,-0.200
6156,-0.220,-0.190
6157,-0.220,-0.190
6158,-0.240,-0.205
6159,-0.240,-0.210
6160,-0.230,-0.205
6161,-0.205,-0.205
6162,-0.195,-0.200
6163,-0.195,-0.210
6164,-0.220,-0.225
6165,-0.245,-0.235
6166,-0.275,-0.235
6167,-0.260,-0.230
6168,-0.275,-0.215
6169,-0.285,-0.225
6170,-0.300,-0.235
6171,-0.300,-0.235
6172,-0.310,-0.245
6173,-0.310,-0.240
6174,-0.320,-0.230
6175,-0.320,-0.240
6176,-0.325,-0.245
6177,-0.335,-0.255
6178,-0.345,-0.260
6179,-0.335,-0.255
6180,-0.335,-0.230
6181,-0.330,-0.245
6182,-0.335,-0.255
6183,-0.345,-0.255
6184,-0.360,-0.255
6185,-0.345,-0.245
6186,-0.335,-0.235
6187,-0.345,-0.245
6188,-0.345,-0.250
6189,-0.355,-0.260
6190,-0.360,-0.260
6191,-0.355,-0.250
6192,-0.340,-0.240
6193,-0.340,-0.250
6194,-0.350,-0.265
6195,-0.350,-0.275
6196,-0.355,-0.275
6197,-0.355,-0.295
6198,-0.355,-0.310
6199,-0.370,-0.340
6200,-0.425,-0.375
6201,-0.465,-0.410
6202,-0.480,-0.420
6203,-0.500,-0.365
6204,-0.530,-0.235
6205,-0.535,-0.115
6206,-0.485,0.015
6207,-0.395,0.115
6208,-0.255,0.235
6209,-0.095,0.370
6210,0.095,0.500
6211,0.350,0.615
6212,0.630,0.705
6213,0.845,0.710
6214,0.955,0.510
6215,0.975,0.160
6216,0.825,-0.125
6217,0.480,-0.285
6218,0.055,-0.295
6219,-0.270,-0.295
6220,-0.455,-0.305
6221,-0.485,-0.290
6222,-0.440,-0.280
6223,-0.405,-0.275
6224,-0.375,-0.270
6225,-0.375,-0.290
6226,-0.390,-0.290
6227,-0.380,-0.290
6228,-0.360,-0.280
6229,-0.355,-0.285
6230,-0.345,-0.295
6231,-0.365,-0.295
6232,-0.375,-0.305
6233,-0.370,-0.300
6234,-0.370,-0.300
6235,-0.355,-0.290
6236,-0.370,-0.295
6237,-0.375,-0.305
6238,-0.380,-0.310
6239,-0.385,-0.300
6240,-0.380,-0.290
6241,-0.380,-0.290
6242,-0.380,-0.295
6243,-0.385,-0.310
6244,-0.395,-0.300
6245,-0.395,-0.295
6246,-0.390,-0.280
6247,-0.385,-0.285
6248,-0.380,-0.295
6249,-0.380,-0.305
6250,-0.395,-0.310
6251,-0.390,-0.290
6252,-0.380,-0.285
6253,-0.370,-0.290
6254,-0.375,-0.290
6255,-0.385,-0.295
6256,-0.380,-0.300
6257,-0.375,-0.290
6258,-0.365,-0.280
6259,-0.360,-0.285
6260,-0.365,-0.290
6261,-0.365,-0.300
6262,-0.385,-0.305
6263,-0.370,-0.295
6264,-0.365,-0.280
6265,-0.355,-0.300
6266,-0.385,-0.295
6267,-0.395,-0.305
6268,-0.395,-0.305
6269,-0.385,-0.290
6270,-0.370,-0.275
6271,-0.380,-0.290
6272,-0.370,-0.300
6273,-0.375,-0.305
6274,-0.390,-0.310
6275,-0.385,-0.295
6276,-0.380,-0.295
6277,-0.370,-0.300
6278,-0.370,-0.305
6279,-0.385,-0.315
6280,-0.385,-0.315
6281,-0.380,-0.320
6282,-0.385,-0.315
6283,-0.370,-0.330
6284,-0.375,-0.320
6285,-0.375,-0.335
6286,-0.380,-0.340
6287,-0.380,-0.330
6288,-0.355,-0.310
6289,-0.360,-0.325
6290,-0.365,-0.330
6291,-0.370,-0.345
6292,-0.380,-0.350
6293,-0.370,-0.355
6294,-0.375,-0.345
6295,-0.360,-0.355
6296,-0.370,-0.360
6297,-0.380,-0.375
6298,-0.385,-0.390
6299,-0.375,-0.370
6300,-0.375,-0.380
6301,-0.370,-0.390
6302,-0.370,-0.400
6303,-0.385,-0.410
6304,-0.400,-0.410
6305,-0.395,-0.405
6306,-0.385,-0.405
6307,-0.395,-0.430
6308,-0.380,-0.440
6309,-0.400,-0.445
6310,-0.400,-0.465
6311,-0.400,-0.455
6312,-0.390,-0.445
6313,-0.390,-0.455
6314,-0.385,-0.455
6315,-0.400,-0.465
6316,-0.400,-0.470
6317,-0.385,-0.460
6318,-0.380,-0.450
6319,-0.380,-0.440
6320,-0.385,-0.445
6321,-0.385,-0.440
6322,-0.405,-0.430
6323,-0.395,-0.405
6324,-0.380,-0.395
6325,-0.370,-0.385
6326,-0.370,-0.370
6327,-0.380,-0.375
6328,-0.365,-0.355
6329,-0.355,-0.335
6330,-0.335,-0.305
6331,-0.325,-0.300
6332,-0.320,-0.305
6333,-0.320,-0.305
6334,-0.330,-0.290
6335,-0.315,-0.280
6336,-0.300,-0.270
6337,-0.295,-0.265
6338,-0.285,-0.265
6339,-0.295,-0.260
6340,-0.290,-0.265
6341,-0.285,-0.250
6342,-0.270,-0.245
6343,-0.260,-0.235
6344,-0.265,-0.240
6345,-0.275,-0.270
6346,-0.280,-0.260
6347,-0.275,-0.245
6348,-0.270,-0.245
6349,-0.270,-0.240
6350,-0.260,-0.250
6351,-0.270,-0.255
6352,-0.280,-0.260
6353,-0.285,-0.250
6354,-0.275,-0.240
6355,-0.265,-0.250
6356,-0.270,-0.255
6357,-0.285,-0.255
6358,-0.285,-0.260
6359,-0.285,-0.245
6360,-0.275,-0.245
6361,-0.280,-0.250
6362,-0.275,-0.265
6363,-0.285,-0.265
6364,-0.295,-0.265
6365,-0.295,-0.270
6366,-0.285,-0.245
6367,-0.280,-0.245
6368,-0.270,-0.250
6369,-0.285,-0.260
6370,-0.275,-0.265
6371,-0.290,-0.255
6372,-0.285,-0.260
6373,-0.280,-0.260
6374,-0.290,-0.265
6375,-0.300,-0.265
6376,-0.310,-0.260
6377,-0.310,-0.270
6378,-0.310,-0.255
6379,-0.300,-0.260
6380,-0.300,-0.275
6381,-0.315,-0.270
6382,-0.325,-0.275
6383,-0.315,-0.255
6384,-0.305,-0.255
6385,-0.310,-0.265
6386,-0.310,-0.270
6387,-0.315,-0.285
6388,-0.330,-0.275
6389,-0.325,-0.265
