'sample interval','MLII','V1'
'0.00277778 sec','mV','mV'
0,-0.380,-0.285
1,-0.380,-0.285
2,-0.380,-0.285
3,-0.380,-0.285
4,-0.380,-0.285
5,-0.380,-0.285
6,-0.380,-0.285
7,-0.380,-0.285
8,-0.365,-0.290
9,-0.365,-0.295
10,-0.350,-0.290
11,-0.365,-0.295
12,-0.365,-0.280
13,-0.360,-0.270
14,-0.335,-0.250
15,-0.325,-0.220
16,-0.315,-0.195
17,-0.310,-0.210
18,-0.305,-0.210
19,-0.310,-0.200
20,-0.330,-0.225
21,-0.345,-0.235
22,-0.340,-0.255
23,-0.350,-0.260
24,-0.365,-0.265
25,-0.360,-0.280
26,-0.380,-0.275
27,-0.395,-0.290
28,-0.390,-0.285
29,-0.385,-0.295
30,-0.395,-0.300
31,-0.405,-0.305
32,-0.420,-0.300
33,-0.425,-0.315
34,-0.440,-0.335
35,-0.440,-0.350
36,-0.455,-0.350
37,-0.455,-0.355
38,-0.455,-0.350
39,-0.445,-0.335
40,-0.425,-0.335
41,-0.425,-0.345
42,-0.420,-0.345
43,-0.410,-0.345
44,-0.405,-0.360
45,-0.410,-0.365
46,-0.420,-0.370
47,-0.410,-0.375
48,-0.405,-0.375
49,-0.400,-0.360
50,-0.405,-0.350
51,-0.410,-0.345
52,-0.400,-0.340
53,-0.405,-0.345
54,-0.385,-0.365
55,-0.385,-0.360
56,-0.385,-0.375
57,-0.385,-0.380
58,-0.385,-0.380
59,-0.395,-0.390
60,-0.400,-0.385
61,-0.390,-0.380
62,-0.385,-0.365
63,-0.380,-0.355
64,-0.370,-0.325
65,-0.350,-0.320
66,-0.320,-0.300
67,-0.280,-0.270
68,-0.195,-0.230
69,-0.090,-0.175
70,0.055,-0.115
71,0.235,-0.015
72,0.440,0.090
73,0.645,0.200
74,0.840,0.300
75,1.005,0.375
76,1.075,0.380
77,1.055,0.290
78,0.885,0.130
79,0.605,-0.105
80,0.205,-0.325
81,-0.255,-0.535
82,-0.735,-0.700
83,-1.145,-0.825
84,-1.425,-0.920
85,-1.520,-0.985
86,-1.435,-1.025
87,-1.265,-1.050
88,-1.050,-1.025
89,-0.830,-0.985
90,-0.670,-0.915
91,-0.555,-0.805
92,-0.470,-0.690
93,-0.430,-0.570
94,-0.415,-0.460
95,-0.410,-0.360
96,-0.420,-0.290
97,-0.420,-0.245
98,-0.430,-0.210
99,-0.415,-0.185
100,-0.400,-0.185
101,-0.375,-0.170
102,-0.370,-0.185
103,-0.360,-0.180
104,-0.360,-0.175
105,-0.355,-0.175
106,-0.360,-0.165
107,-0.365,-0.160
108,-0.365,-0.155
109,-0.355,-0.150
110,-0.350,-0.145
111,-0.330,-0.125
112,-0.305,-0.105
113,-0.285,-0.100
114,-0.280,-0.105
115,-0.260,-0.100
116,-0.275,-0.090
117,-0.270,-0.090
118,-0.280,-0.090
119,-0.280,-0.090
120,-0.285,-0.070
121,-0.280,-0.065
122,-0.280,-0.050
123,-0.280,-0.035
124,-0.270,-0.015
125,-0.270,0.005
126,-0.275,0.000
127,-0.280,0.010
128,-0.285,0.005
129,-0.285,0.010
130,-0.290,0.030
131,-0.290,0.035
132,-0.300,0.060
133,-0.290,0.065
134,-0.295,0.090
135,-0.280,0.110
136,-0.275,0.140
137,-0.270,0.135
138,-0.270,0.155
139,-0.270,0.175
140,-0.250,0.180
141,-0.250,0.195
142,-0.245,0.200
143,-0.225,0.220
144,-0.220,0.250
145,-0.210,0.270
146,-0.180,0.290
147,-0.160,0.330
148,-0.140,0.355
149,-0.120,0.385
150,-0.095,0.390
151,-0.070,0.400
152,-0.060,0.400
153,-0.060,0.400
154,-0.040,0.415
155,-0.025,0.415
156,-0.020,0.435
157,-0.005,0.435
158,0.005,0.460
159,0.015,0.465
160,0.030,0.475
161,0.050,0.475
162,0.055,0.470
163,0.060,0.465
164,0.050,0.460
165,0.040,0.450
166,0.020,0.440
167,0.025,0.415
168,0.015,0.410
169,0.025,0.400
170,0.010,0.390
171,-0.005,0.375
172,-0.010,0.360
173,-0.025,0.320
174,-0.045,0.290
175,-0.075,0.255
176,-0.100,0.215
177,-0.125,0.180
178,-0.145,0.140
179,-0.185,0.095
180,-0.200,0.085
181,-0.225,0.065
182,-0.240,0.025
183,-0.255,0.000
184,-0.265,-0.015
185,-0.280,-0.035
186,-0.290,-0.065
187,-0.305,-0.085
188,-0.325,-0.115
189,-0.330,-0.140
190,-0.350,-0.160
191,-0.370,-0.165
192,-0.385,-0.180
193,-0.390,-0.200
194,-0.385,-0.200
195,-0.395,-0.200
196,-0.395,-0.205
197,-0.390,-0.200
198,-0.390,-0.195
199,-0.390,-0.225
200,-0.395,-0.230
201,-0.400,-0.225
202,-0.400,-0.230
203,-0.410,-0.240
204,-0.415,-0.235
205,-0.425,-0.230
206,-0.415,-0.230
207,-0.410,-0.220
208,-0.400,-0.225
209,-0.390,-0.205
210,-0.380,-0.215
211,-0.380,-0.220
212,-0.375,-0.225
213,-0.390,-0.235
214,-0.385,-0.240
215,-0.395,-0.245
216,-0.390,-0.240
217,-0.390,-0.240
218,-0.380,-0.235
219,-0.365,-0.225
220,-0.380,-0.220
221,-0.370,-0.220
222,-0.360,-0.235
223,-0.365,-0.240
224,-0.350,-0.240
225,-0.365,-0.260
226,-0.375,-0.260
227,-0.375,-0.275
228,-0.370,-0.265
229,-0.375,-0.260
230,-0.365,-0.255
231,-0.365,-0.255
232,-0.360,-0.240
233,-0.365,-0.245
234,-0.370,-0.255
235,-0.370,-0.260
236,-0.375,-0.270
237,-0.375,-0.285
238,-0.375,-0.285
239,-0.390,-0.300
240,-0.390,-0.295
241,-0.395,-0.290
242,-0.395,-0.290
243,-0.395,-0.285
244,-0.395,-0.275
245,-0.395,-0.290
246,-0.395,-0.300
247,-0.390,-0.305
248,-0.405,-0.310
249,-0.415,-0.305
250,-0.430,-0.340
251,-0.430,-0.325
252,-0.450,-0.335
253,-0.455,-0.335
254,-0.435,-0.325
255,-0.430,-0.325
256,-0.430,-0.310
257,-0.420,-0.315
258,-0.415,-0.320
259,-0.415,-0.330
260,-0.425,-0.325
261,-0.435,-0.340
262,-0.450,-0.345
263,-0.455,-0.350
264,-0.460,-0.340
265,-0.455,-0.340
266,-0.460,-0.330
267,-0.450,-0.330
268,-0.445,-0.325
269,-0.455,-0.335
270,-0.445,-0.335
271,-0.450,-0.330
272,-0.455,-0.330
273,-0.465,-0.335
274,-0.450,-0.350
275,-0.450,-0.345
276,-0.445,-0.335
277,-0.450,-0.320
278,-0.430,-0.295
279,-0.415,-0.285
280,-0.405,-0.270
281,-0.390,-0.255
282,-0.385,-0.250
283,-0.370,-0.245
284,-0.370,-0.250
285,-0.355,-0.245
286,-0.350,-0.240
287,-0.345,-0.235
288,-0.360,-0.230
289,-0.360,-0.210
290,-0.370,-0.200
291,-0.375,-0.195
292,-0.395,-0.200
293,-0.395,-0.200
294,-0.390,-0.225
295,-0.400,-0.230
296,-0.400,-0.245
297,-0.420,-0.270
298,-0.430,-0.285
299,-0.445,-0.285
300,-0.465,-0.285
301,-0.480,-0.305
302,-0.485,-0.295
303,-0.490,-0.300
304,-0.490,-0.295
305,-0.490,-0.300
306,-0.495,-0.305
307,-0.510,-0.315
308,-0.535,-0.320
309,-0.535,-0.330
310,-0.550,-0.355
311,-0.550,-0.365
312,-0.545,-0.365
313,-0.555,-0.355
314,-0.525,-0.360
315,-0.515,-0.355
316,-0.505,-0.350
317,-0.490,-0.335
318,-0.495,-0.345
319,-0.495,-0.350
320,-0.510,-0.360
321,-0.520,-0.365
322,-0.530,-0.360
323,-0.535,-0.375
324,-0.540,-0.365
325,-0.535,-0.360
326,-0.530,-0.340
327,-0.520,-0.355
328,-0.515,-0.345
329,-0.500,-0.325
330,-0.500,-0.335
331,-0.495,-0.335
332,-0.505,-0.330
333,-0.505,-0.340
334,-0.510,-0.340
335,-0.510,-0.340
336,-0.515,-0.325
337,-0.515,-0.310
338,-0.500,-0.305
339,-0.480,-0.280
340,-0.450,-0.255
341,-0.385,-0.215
342,-0.295,-0.185
343,-0.160,-0.130
344,-0.020,-0.075
345,0.195,-0.005
346,0.405,0.095
347,0.625,0.190
348,0.835,0.300
349,1.005,0.375
350,1.115,0.410
351,1.120,0.375
352,1.000,0.270
353,0.740,0.095
354,0.355,-0.100
355,-0.125,-0.285
356,-0.640,-0.455
357,-1.140,-0.615
358,-1.505,-0.730
359,-1.700,-0.850
360,-1.685,-0.945
361,-1.520,-1.000
362,-1.280,-1.040
363,-1.020,-1.035
364,-0.800,-0.985
365,-0.600,-0.885
366,-0.500,-0.795
367,-0.415,-0.660
368,-0.400,-0.540
369,-0.395,-0.430
370,-0.400,-0.355
371,-0.415,-0.295
372,-0.425,-0.260
373,-0.440,-0.250
374,-0.415,-0.230
375,-0.390,-0.225
376,-0.380,-0.205
377,-0.355,-0.195
378,-0.350,-0.190
379,-0.335,-0.190
380,-0.330,-0.190
381,-0.325,-0.185
382,-0.315,-0.190
383,-0.290,-0.195
384,-0.290,-0.180
385,-0.270,-0.165
386,-0.240,-0.155
387,-0.230,-0.145
388,-0.205,-0.135
389,-0.185,-0.120
390,-0.175,-0.135
391,-0.155,-0.130
392,-0.140,-0.125
393,-0.140,-0.130
394,-0.135,-0.125
395,-0.140,-0.130
396,-0.135,-0.120
397,-0.140,-0.120
398,-0.135,-0.105
399,-0.130,-0.090
400,-0.125,-0.070
401,-0.115,-0.060
402,-0.110,-0.050
403,-0.110,-0.050
404,-0.110,-0.040
405,-0.110,-0.050
406,-0.120,-0.040
407,-0.120,-0.030
408,-0.110,-0.020
409,-0.100,0.000
410,-0.075,0.020
411,-0.065,0.040
412,-0.040,0.065
413,-0.025,0.080
414,-0.010,0.100
415,0.010,0.100
416,0.015,0.125
417,0.025,0.125
418,0.030,0.150
419,0.045,0.155
420,0.055,0.180
421,0.080,0.195
422,0.105,0.220
423,0.120,0.250
424,0.135,0.265
425,0.150,0.280
426,0.165,0.295
427,0.160,0.315
428,0.155,0.320
429,0.160,0.320
430,0.170,0.320
431,0.170,0.330
432,0.160,0.340
433,0.175,0.350
434,0.180,0.360
435,0.170,0.380
436,0.170,0.380
437,0.185,0.395
438,0.185,0.375
439,0.180,0.375
440,0.180,0.375
441,0.160,0.355
442,0.155,0.330
443,0.140,0.315
444,0.130,0.310
445,0.120,0.295
446,0.110,0.280
447,0.085,0.255
448,0.080,0.235
449,0.045,0.205
450,0.040,0.170
451,0.030,0.145
452,-0.010,0.105
453,-0.050,0.070
454,-0.075,0.040
455,-0.115,-0.005
456,-0.145,-0.025
457,-0.175,-0.050
458,-0.200,-0.075
459,-0.205,-0.090
460,-0.220,-0.105
461,-0.225,-0.125
462,-0.240,-0.150
463,-0.260,-0.160
464,-0.285,-0.180
465,-0.310,-0.210
466,-0.335,-0.225
467,-0.355,-0.235
468,-0.365,-0.255
469,-0.375,-0.245
470,-0.380,-0.250
471,-0.375,-0.250
472,-0.380,-0.245
473,-0.385,-0.245
474,-0.385,-0.260
475,-0.390,-0.255
476,-0.385,-0.255
477,-0.405,-0.275
478,-0.415,-0.265
479,-0.410,-0.280
480,-0.420,-0.275
481,-0.415,-0.275
482,-0.410,-0.270
483,-0.420,-0.265
484,-0.415,-0.250
485,-0.400,-0.250
486,-0.390,-0.255
487,-0.400,-0.255
488,-0.400,-0.265
489,-0.415,-0.270
490,-0.410,-0.265
491,-0.415,-0.275
492,-0.415,-0.270
493,-0.410,-0.270
494,-0.405,-0.280
495,-0.405,-0.260
496,-0.390,-0.255
497,-0.385,-0.245
498,-0.375,-0.270
499,-0.360,-0.275
500,-0.360,-0.265
501,-0.370,-0.275
502,-0.375,-0.295
503,-0.375,-0.290
504,-0.380,-0.300
505,-0.385,-0.295
506,-0.380,-0.290
507,-0.370,-0.285
508,-0.365,-0.275
509,-0.355,-0.275
510,-0.360,-0.285
511,-0.360,-0.290
512,-0.375,-0.305
513,-0.380,-0.315
514,-0.390,-0.320
515,-0.405,-0.330
516,-0.415,-0.320
517,-0.425,-0.330
518,-0.420,-0.320
519,-0.425,-0.325
520,-0.415,-0.325
521,-0.415,-0.315
522,-0.425,-0.320
523,-0.435,-0.315
524,-0.440,-0.335
525,-0.465,-0.345
526,-0.465,-0.355
527,-0.480,-0.360
528,-0.465,-0.355
529,-0.465,-0.345
530,-0.460,-0.350
531,-0.475,-0.330
532,-0.465,-0.330
533,-0.465,-0.325
534,-0.460,-0.315
535,-0.465,-0.335
536,-0.465,-0.330
537,-0.470,-0.350
538,-0.455,-0.355
539,-0.465,-0.360
540,-0.455,-0.355
541,-0.450,-0.340
542,-0.445,-0.335
543,-0.425,-0.330
544,-0.390,-0.305
545,-0.375,-0.290
546,-0.345,-0.300
547,-0.335,-0.285
548,-0.330,-0.290
549,-0.315,-0.275
550,-0.310,-0.290
551,-0.310,-0.285
552,-0.310,-0.265
553,-0.280,-0.265
554,-0.265,-0.250
555,-0.250,-0.235
556,-0.230,-0.220
557,-0.220,-0.220
558,-0.215,-0.230
559,-0.225,-0.235
560,-0.235,-0.255
561,-0.265,-0.265
562,-0.275,-0.295
563,-0.300,-0.310
564,-0.300,-0.325
565,-0.315,-0.320
566,-0.335,-0.330
567,-0.345,-0.310
568,-0.355,-0.320
569,-0.380,-0.320
570,-0.405,-0.325
571,-0.410,-0.345
572,-0.415,-0.350
573,-0.435,-0.355
574,-0.440,-0.365
575,-0.450,-0.375
576,-0.485,-0.365
577,-0.505,-0.395
578,-0.520,-0.385
579,-0.520,-0.385
580,-0.510,-0.375
581,-0.495,-0.380
582,-0.500,-0.380
583,-0.505,-0.380
584,-0.500,-0.385
585,-0.515,-0.395
586,-0.520,-0.400
587,-0.530,-0.405
588,-0.550,-0.395
589,-0.550,-0.395
590,-0.550,-0.385
591,-0.545,-0.380
592,-0.540,-0.375
593,-0.535,-0.360
594,-0.550,-0.370
595,-0.540,-0.365
596,-0.545,-0.370
597,-0.560,-0.380
598,-0.570,-0.395
599,-0.575,-0.395
600,-0.590,-0.390
601,-0.580,-0.375
602,-0.545,-0.370
603,-0.525,-0.365
604,-0.510,-0.345
605,-0.485,-0.335
606,-0.465,-0.330
607,-0.435,-0.310
608,-0.385,-0.275
609,-0.295,-0.240
610,-0.170,-0.180
611,0.005,-0.120
612,0.195,-0.020
613,0.410,0.080
614,0.645,0.195
615,0.860,0.280
616,1.050,0.345
617,1.140,0.335
618,1.125,0.225
619,0.985,0.065
620,0.690,-0.145
621,0.280,-0.370
622,-0.215,-0.560
623,-0.745,-0.710
624,-1.245,-0.815
625,-1.595,-0.925
626,-1.760,-1.015
627,-1.710,-1.090
628,-1.535,-1.080
629,-1.280,-1.075
630,-1.050,-1.055
631,-0.850,-0.975
632,-0.720,-0.880
633,-0.635,-0.770
634,-0.590,-0.660
635,-0.590,-0.555
636,-0.605,-0.445
637,-0.625,-0.365
638,-0.625,-0.315
639,-0.615,-0.280
640,-0.605,-0.265
641,-0.580,-0.250
642,-0.565,-0.250
643,-0.555,-0.230
644,-0.565,-0.240
645,-0.555,-0.245
646,-0.550,-0.235
647,-0.550,-0.230
648,-0.540,-0.220
649,-0.535,-0.205
650,-0.510,-0.185
651,-0.495,-0.180
652,-0.475,-0.175
653,-0.455,-0.165
654,-0.445,-0.165
655,-0.445,-0.155
656,-0.425,-0.150
657,-0.425,-0.155
658,-0.420,-0.155
659,-0.405,-0.145
660,-0.395,-0.125
661,-0.375,-0.110
662,-0.360,-0.100
663,-0.355,-0.090
664,-0.335,-0.070
665,-0.325,-0.055
666,-0.305,-0.050
667,-0.295,-0.025
668,-0.285,-0.035
669,-0.285,-0.020
670,-0.275,-0.005
671,-0.265,0.005
672,-0.245,0.015
673,-0.240,0.030
674,-0.230,0.045
675,-0.220,0.060
676,-0.190,0.090
677,-0.175,0.115
678,-0.160,0.135
679,-0.145,0.145
680,-0.130,0.155
681,-0.125,0.180
682,-0.125,0.185
683,-0.105,0.210
684,-0.095,0.215
685,-0.085,0.245
686,-0.060,0.275
687,-0.030,0.315
688,-0.005,0.330
689,0.015,0.355
690,0.030,0.360
691,0.025,0.375
692,0.025,0.370
693,0.035,0.385
694,0.025,0.410
695,0.010,0.395
696,0.025,0.410
697,0.030,0.415
698,0.035,0.435
699,0.040,0.435
700,0.050,0.440
701,0.035,0.445
702,0.035,0.440
703,0.025,0.430
704,0.015,0.415
705,0.015,0.390
706,0.010,0.370
707,0.000,0.340
708,-0.010,0.340
709,-0.025,0.320
710,-0.045,0.310
711,-0.060,0.270
712,-0.075,0.255
713,-0.085,0.230
714,-0.105,0.185
715,-0.135,0.155
716,-0.155,0.125
717,-0.185,0.065
718,-0.220,0.015
719,-0.255,-0.015
720,-0.285,-0.040
721,-0.310,-0.060
722,-0.345,-0.080
723,-0.360,-0.100
724,-0.375,-0.115
725,-0.385,-0.135
726,-0.385,-0.155
727,-0.400,-0.175
728,-0.425,-0.205
729,-0.435,-0.225
730,-0.455,-0.235
731,-0.470,-0.250
732,-0.485,-0.250
733,-0.480,-0.260
734,-0.480,-0.255
735,-0.475,-0.245
736,-0.470,-0.240
737,-0.470,-0.250
738,-0.485,-0.255
739,-0.480,-0.260
740,-0.475,-0.260
741,-0.495,-0.270
742,-0.495,-0.280
743,-0.485,-0.270
744,-0.495,-0.285
745,-0.485,-0.285
746,-0.485,-0.265
747,-0.485,-0.260
748,-0.480,-0.245
749,-0.465,-0.240
750,-0.470,-0.240
751,-0.460,-0.235
752,-0.470,-0.245
753,-0.470,-0.245
754,-0.465,-0.260
755,-0.470,-0.265
756,-0.470,-0.265
757,-0.465,-0.260
758,-0.475,-0.260
759,-0.465,-0.240
760,-0.460,-0.235
761,-0.445,-0.225
762,-0.430,-0.230
763,-0.435,-0.235
764,-0.425,-0.250
765,-0.430,-0.240
766,-0.435,-0.265
767,-0.450,-0.260
768,-0.460,-0.250
769,-0.460,-0.250
770,-0.460,-0.245
771,-0.455,-0.255
772,-0.450,-0.240
773,-0.445,-0.250
774,-0.435,-0.230
775,-0.440,-0.245
776,-0.455,-0.250
777,-0.460,-0.260
778,-0.480,-0.275
779,-0.480,-0.275
780,-0.495,-0.270
781,-0.510,-0.280
782,-0.490,-0.270
783,-0.490,-0.270
784,-0.490,-0.255
785,-0.485,-0.270
786,-0.495,-0.270
787,-0.500,-0.280
788,-0.500,-0.280
789,-0.515,-0.290
790,-0.530,-0.300
791,-0.535,-0.305
792,-0.530,-0.305
793,-0.530,-0.315
794,-0.520,-0.310
795,-0.500,-0.300
796,-0.505,-0.285
797,-0.495,-0.285
798,-0.485,-0.295
799,-0.490,-0.290
800,-0.485,-0.295
801,-0.485,-0.300
802,-0.475,-0.295
803,-0.475,-0.305
804,-0.480,-0.310
805,-0.480,-0.295
806,-0.485,-0.295
807,-0.465,-0.275
808,-0.460,-0.260
809,-0.440,-0.260
810,-0.420,-0.250
811,-0.405,-0.245
812,-0.390,-0.230
813,-0.395,-0.250
814,-0.400,-0.240
815,-0.405,-0.240
816,-0.400,-0.240
817,-0.390,-0.220
818,-0.375,-0.205
819,-0.365,-0.205
820,-0.360,-0.185
821,-0.350,-0.175
822,-0.365,-0.180
823,-0.355,-0.175
824,-0.370,-0.195
825,-0.370,-0.215
826,-0.385,-0.230
827,-0.390,-0.260
828,-0.400,-0.270
829,-0.405,-0.270
830,-0.410,-0.275
831,-0.415,-0.280
832,-0.440,-0.285
833,-0.450,-0.295
834,-0.445,-0.305
835,-0.465,-0.315
836,-0.465,-0.325
837,-0.475,-0.340
838,-0.485,-0.335
839,-0.505,-0.350
840,-0.510,-0.345
841,-0.540,-0.360
842,-0.540,-0.360
843,-0.540,-0.360
844,-0.535,-0.350
845,-0.540,-0.345
846,-0.540,-0.360
847,-0.525,-0.365
848,-0.530,-0.360
849,-0.530,-0.370
850,-0.535,-0.370
851,-0.550,-0.365
852,-0.555,-0.375
853,-0.555,-0.370
854,-0.540,-0.355
855,-0.525,-0.350
856,-0.515,-0.345
857,-0.510,-0.335
858,-0.490,-0.345
859,-0.485,-0.345
860,-0.480,-0.335
861,-0.475,-0.355
862,-0.465,-0.360
863,-0.470,-0.370
864,-0.465,-0.350
865,-0.450,-0.355
866,-0.435,-0.345
867,-0.410,-0.320
868,-0.395,-0.325
869,-0.365,-0.305
870,-0.355,-0.280
871,-0.320,-0.255
872,-0.235,-0.220
873,-0.125,-0.175
874,0.010,-0.125
875,0.175,-0.070
876,0.380,0.025
877,0.600,0.130
878,0.820,0.230
879,1.040,0.305
880,1.200,0.335
881,1.265,0.280
882,1.210,0.140
883,1.005,-0.045
884,0.685,-0.255
885,0.245,-0.470
886,-0.285,-0.630
887,-0.825,-0.790
888,-1.310,-0.900
889,-1.635,-1.010
890,-1.755,-1.080
891,-1.655,-1.130
892,-1.420,-1.120
893,-1.135,-1.085
894,-0.880,-1.025
895,-0.665,-0.945
896,-0.520,-0.830
897,-0.435,-0.705
898,-0.375,-0.575
899,-0.375,-0.455
900,-0.380,-0.355
901,-0.410,-0.285
902,-0.415,-0.250
903,-0.410,-0.230
904,-0.405,-0.215
905,-0.400,-0.205
906,-0.390,-0.205
907,-0.375,-0.190
908,-0.380,-0.180
909,-0.395,-0.180
910,-0.395,-0.180
911,-0.410,-0.160
912,-0.390,-0.165
913,-0.395,-0.140
914,-0.385,-0.125
915,-0.365,-0.115
916,-0.360,-0.095
917,-0.350,-0.085
918,-0.335,-0.085
919,-0.335,-0.075
920,-0.330,-0.070
921,-0.335,-0.080
922,-0.330,-0.065
923,-0.320,-0.065
924,-0.325,-0.055
925,-0.305,-0.040
926,-0.295,-0.030
927,-0.285,-0.030
928,-0.260,-0.005
929,-0.255,0.005
930,-0.240,0.030
931,-0.230,0.030
932,-0.225,0.025
933,-0.215,0.030
934,-0.215,0.035
935,-0.205,0.055
936,-0.190,0.070
937,-0.185,0.090
938,-0.170,0.105
939,-0.160,0.125
940,-0.150,0.155
941,-0.135,0.165
942,-0.125,0.190
943,-0.100,0.210
944,-0.095,0.220
945,-0.095,0.225
946,-0.080,0.255
947,-0.075,0.265
948,-0.065,0.275
949,-0.055,0.315
950,-0.045,0.335
951,-0.030,0.370
952,-0.020,0.380
953,0.010,0.415
954,0.020,0.420
955,0.015,0.440
956,0.020,0.440
957,0.010,0.450
958,0.015,0.460
959,0.015,0.465
960,0.020,0.480
961,0.025,0.495
962,0.040,0.510
963,0.035,0.500
964,0.045,0.510
965,0.050,0.515
966,0.055,0.500
967,0.055,0.505
968,0.060,0.475
969,0.055,0.465
970,0.040,0.440
971,0.040,0.415
972,0.025,0.380
973,0.015,0.370
974,-0.010,0.340
975,-0.020,0.330
976,-0.045,0.300
977,-0.070,0.265
978,-0.085,0.235
979,-0.105,0.190
980,-0.130,0.155
981,-0.165,0.115
982,-0.210,0.065
983,-0.240,0.025
984,-0.270,-0.005
985,-0.310,-0.030
986,-0.340,-0.055
987,-0.330,-0.075
988,-0.345,-0.100
989,-0.360,-0.120
990,-0.365,-0.150
991,-0.380,-0.165
992,-0.395,-0.185
993,-0.415,-0.190
994,-0.425,-0.210
995,-0.430,-0.235
996,-0.440,-0.235
997,-0.445,-0.235
998,-0.435,-0.245
999,-0.420,-0.230
1000,-0.425,-0.230
1001,-0.430,-0.250
1002,-0.430,-0.240
1003,-0.425,-0.250
1004,-0.405,-0.255
1005,-0.405,-0.255
1006,-0.390,-0.250
1007,-0.395,-0.260
1008,-0.380,-0.255
1009,-0.375,-0.235
1010,-0.365,-0.240
1011,-0.350,-0.235
1012,-0.365,-0.225
1013,-0.350,-0.230
1014,-0.330,-0.230
1015,-0.325,-0.235
1016,-0.345,-0.230
1017,-0.345,-0.245
1018,-0.345,-0.260
1019,-0.350,-0.255
1020,-0.345,-0.245
1021,-0.335,-0.245
1022,-0.340,-0.230
1023,-0.310,-0.220
1024,-0.305,-0.215
1025,-0.285,-0.230
1026,-0.270,-0.220
1027,-0.265,-0.240
1028,-0.285,-0.260
1029,-0.295,-0.255
1030,-0.310,-0.265
1031,-0.325,-0.265
1032,-0.330,-0.265
1033,-0.335,-0.260
1034,-0.335,-0.255
1035,-0.355,-0.255
1036,-0.355,-0.260
1037,-0.365,-0.245
1038,-0.365,-0.260
1039,-0.370,-0.250
1040,-0.385,-0.265
1041,-0.395,-0.270
1042,-0.415,-0.285
1043,-0.410,-0.275
1044,-0.435,-0.275
1045,-0.450,-0.280
1046,-0.465,-0.270
1047,-0.475,-0.295
1048,-0.485,-0.280
1049,-0.495,-0.300
1050,-0.485,-0.305
1051,-0.500,-0.315
1052,-0.505,-0.320
1053,-0.510,-0.330
1054,-0.515,-0.340
1055,-0.510,-0.340
1056,-0.505,-0.335
1057,-0.500,-0.335
1058,-0.505,-0.335
1059,-0.515,-0.320
1060,-0.515,-0.310
1061,-0.510,-0.320
1062,-0.505,-0.320
1063,-0.505,-0.325
1064,-0.515,-0.330
1065,-0.520,-0.345
1066,-0.535,-0.340
1067,-0.525,-0.335
1068,-0.520,-0.320
1069,-0.520,-0.305
1070,-0.505,-0.290
1071,-0.480,-0.280
1072,-0.475,-0.285
1073,-0.465,-0.250
1074,-0.455,-0.260
1075,-0.475,-0.260
1076,-0.475,-0.255
1077,-0.470,-0.250
1078,-0.470,-0.260
1079,-0.480,-0.250
1080,-0.490,-0.235
1081,-0.480,-0.235
1082,-0.490,-0.225
1083,-0.495,-0.220
1084,-0.510,-0.235
1085,-0.525,-0.235
1086,-0.525,-0.265
1087,-0.540,-0.280
1088,-0.550,-0.305
1089,-0.555,-0.300
1090,-0.580,-0.315
1091,-0.590,-0.320
1092,-0.600,-0.325
1093,-0.610,-0.330
1094,-0.615,-0.335
1095,-0.605,-0.330
1096,-0.605,-0.325
1097,-0.600,-0.335
1098,-0.595,-0.345
1099,-0.590,-0.350
1100,-0.605,-0.380
1101,-0.600,-0.375
1102,-0.595,-0.380
1103,-0.595,-0.395
1104,-0.585,-0.385
1105,-0.570,-0.380
1106,-0.555,-0.370
1107,-0.560,-0.355
1108,-0.540,-0.360
1109,-0.530,-0.360
1110,-0.530,-0.350
1111,-0.530,-0.360
1112,-0.535,-0.365
1113,-0.530,-0.380
1114,-0.535,-0.375
1115,-0.540,-0.370
1116,-0.545,-0.365
1117,-0.545,-0.360
1118,-0.520,-0.355
1119,-0.535,-0.340
1120,-0.520,-0.340
1121,-0.510,-0.340
1122,-0.500,-0.335
1123,-0.500,-0.335
1124,-0.515,-0.330
1125,-0.490,-0.330
1126,-0.485,-0.330
1127,-0.475,-0.320
1128,-0.470,-0.300
1129,-0.445,-0.280
1130,-0.395,-0.230
1131,-0.320,-0.190
1132,-0.190,-0.125
1133,-0.030,-0.050
1134,0.160,0.020
1135,0.385,0.130
1136,0.600,0.220
1137,0.820,0.310
1138,0.995,0.360
1139,1.095,0.350
1140,1.090,0.260
1141,0.930,0.130
1142,0.635,-0.055
1143,0.200,-0.250
1144,-0.310,-0.430
1145,-0.850,-0.570
1146,-1.335,-0.710
1147,-1.655,-0.805
1148,-1.780,-0.935
1149,-1.705,-1.000
1150,-1.465,-1.020
1151,-1.190,-1.020
1152,-0.925,-0.965
1153,-0.705,-0.890
1154,-0.570,-0.765
1155,-0.455,-0.635
1156,-0.410,-0.495
1157,-0.400,-0.380
1158,-0.400,-0.310
1159,-0.410,-0.260
1160,-0.435,-0.245
1161,-0.425,-0.240
1162,-0.415,-0.235
1163,-0.410,-0.225
1164,-0.395,-0.210
1165,-0.375,-0.205
1166,-0.370,-0.185
1167,-0.360,-0.180
1168,-0.355,-0.160
1169,-0.345,-0.145
1170,-0.335,-0.135
1171,-0.320,-0.140
1172,-0.320,-0.140
1173,-0.310,-0.150
1174,-0.330,-0.135
1175,-0.325,-0.150
1176,-0.315,-0.125
1177,-0.320,-0.125
1178,-0.315,-0.105
1179,-0.300,-0.095
1180,-0.270,-0.085
1181,-0.260,-0.065
1182,-0.250,-0.080
1183,-0.240,-0.070
1184,-0.240,-0.060
1185,-0.245,-0.065
1186,-0.240,-0.050
1187,-0.255,-0.045
1188,-0.235,-0.045
1189,-0.235,-0.025
1190,-0.220,-0.005
1191,-0.210,0.005
1192,-0.190,0.040
1193,-0.170,0.045
1194,-0.160,0.050
1195,-0.150,0.055
1196,-0.140,0.070
1197,-0.130,0.070
1198,-0.110,0.095
1199,-0.080,0.105
1200,-0.080,0.110
1201,-0.075,0.130
1202,-0.050,0.165
1203,-0.030,0.190
1204,-0.005,0.220
1205,0.005,0.240
1206,0.030,0.245
1207,0.050,0.260
1208,0.065,0.260
1209,0.060,0.275
1210,0.075,0.285
1211,0.090,0.295
1212,0.105,0.310
1213,0.115,0.335
1214,0.115,0.345
1215,0.125,0.375
1216,0.130,0.375
1217,0.145,0.380
1218,0.165,0.380
1219,0.170,0.375
1220,0.170,0.380
1221,0.170,0.365
1222,0.155,0.365
1223,0.160,0.375
1224,0.145,0.360
1225,0.140,0.365
1226,0.145,0.360
1227,0.150,0.355
1228,0.145,0.355
1229,0.155,0.335
1230,0.155,0.315
1231,0.135,0.295
1232,0.120,0.275
1233,0.085,0.235
1234,0.050,0.215
1235,0.015,0.180
1236,-0.005,0.160
1237,-0.030,0.135
1238,-0.050,0.130
1239,-0.060,0.095
1240,-0.070,0.065
1241,-0.080,0.050
1242,-0.120,0.005
1243,-0.130,-0.010
1244,-0.160,-0.050
1245,-0.185,-0.075
1246,-0.215,-0.100
1247,-0.240,-0.115
1248,-0.255,-0.125
1249,-0.275,-0.140
1250,-0.285,-0.140
1251,-0.300,-0.160
1252,-0.300,-0.175
1253,-0.305,-0.165
1254,-0.325,-0.175
1255,-0.325,-0.180
1256,-0.330,-0.200
1257,-0.345,-0.210
1258,-0.350,-0.215
1259,-0.350,-0.205
1260,-0.360,-0.205
1261,-0.370,-0.215
1262,-0.380,-0.190
1263,-0.380,-0.195
1264,-0.370,-0.190
1265,-0.360,-0.190
1266,-0.345,-0.195
1267,-0.355,-0.205
1268,-0.335,-0.205
1269,-0.340,-0.205
1270,-0.335,-0.200
1271,-0.340,-0.215
1272,-0.340,-0.205
1273,-0.345,-0.210
1274,-0.345,-0.205
1275,-0.325,-0.180
1276,-0.335,-0.200
1277,-0.325,-0.185
1278,-0.330,-0.190
1279,-0.335,-0.200
1280,-0.330,-0.210
1281,-0.345,-0.225
1282,-0.350,-0.230
1283,-0.365,-0.230
1284,-0.360,-0.225
1285,-0.350,-0.220
1286,-0.355,-0.220
1287,-0.350,-0.215
1288,-0.335,-0.210
1289,-0.330,-0.210
1290,-0.330,-0.220
1291,-0.330,-0.215
1292,-0.340,-0.215
1293,-0.345,-0.215
1294,-0.370,-0.235
1295,-0.375,-0.235
1296,-0.370,-0.245
1297,-0.345,-0.240
1298,-0.340,-0.225
1299,-0.335,-0.230
1300,-0.330,-0.225
1301,-0.315,-0.230
1302,-0.325,-0.230
1303,-0.320,-0.225
1304,-0.325,-0.245
1305,-0.325,-0.255
1306,-0.335,-0.270
1307,-0.340,-0.265
1308,-0.340,-0.260
1309,-0.325,-0.275
1310,-0.325,-0.260
1311,-0.325,-0.265
1312,-0.320,-0.270
1313,-0.310,-0.265
1314,-0.305,-0.280
1315,-0.300,-0.280
1316,-0.315,-0.290
1317,-0.315,-0.305
1318,-0.330,-0.295
1319,-0.335,-0.305
1320,-0.355,-0.310
1321,-0.355,-0.300
1322,-0.345,-0.300
1323,-0.345,-0.290
1324,-0.335,-0.275
1325,-0.330,-0.280
1326,-0.305,-0.275
1327,-0.305,-0.290
1328,-0.290,-0.270
1329,-0.290,-0.285
1330,-0.280,-0.285
1331,-0.285,-0.270
1332,-0.260,-0.260
1333,-0.255,-0.235
1334,-0.235,-0.230
1335,-0.220,-0.220
1336,-0.210,-0.220
1337,-0.200,-0.210
1338,-0.180,-0.210
1339,-0.175,-0.210
1340,-0.180,-0.210
1341,-0.190,-0.215
1342,-0.210,-0.220
1343,-0.230,-0.225
1344,-0.235,-0.230
1345,-0.255,-0.250
1346,-0.245,-0.250
1347,-0.255,-0.255
1348,-0.250,-0.255
1349,-0.245,-0.250
1350,-0.255,-0.265
1351,-0.260,-0.270
1352,-0.280,-0.275
1353,-0.300,-0.285
1354,-0.330,-0.300
1355,-0.345,-0.310
1356,-0.360,-0.305
1357,-0.360,-0.295
1358,-0.365,-0.285
1359,-0.375,-0.300
1360,-0.380,-0.295
1361,-0.390,-0.300
1362,-0.405,-0.305
1363,-0.405,-0.315
1364,-0.405,-0.320
1365,-0.420,-0.320
1366,-0.420,-0.340
1367,-0.425,-0.355
1368,-0.435,-0.345
1369,-0.420,-0.335
1370,-0.420,-0.325
1371,-0.410,-0.315
1372,-0.415,-0.310
1373,-0.395,-0.315
1374,-0.405,-0.305
1375,-0.410,-0.315
1376,-0.415,-0.330
1377,-0.420,-0.325
1378,-0.430,-0.340
1379,-0.430,-0.320
1380,-0.425,-0.315
1381,-0.420,-0.320
1382,-0.415,-0.310
1383,-0.420,-0.295
1384,-0.410,-0.285
1385,-0.410,-0.280
1386,-0.395,-0.270
1387,-0.400,-0.275
1388,-0.395,-0.275
1389,-0.390,-0.275
1390,-0.390,-0.275
1391,-0.370,-0.255
1392,-0.330,-0.215
1393,-0.265,-0.155
1394,-0.170,-0.105
1395,-0.005,-0.020
1396,0.165,0.065
1397,0.385,0.175
1398,0.585,0.265
1399,0.795,0.370
1400,0.960,0.420
1401,1.065,0.400
1402,1.065,0.325
1403,0.950,0.165
1404,0.705,-0.020
1405,0.335,-0.225
1406,-0.095,-0.390
1407,-0.575,-0.540
1408,-1.020,-0.655
1409,-1.365,-0.770
1410,-1.530,-0.875
1411,-1.525,-0.940
1412,-1.380,-0.995
1413,-1.145,-0.995
1414,-0.915,-0.965
1415,-0.710,-0.900
1416,-0.565,-0.785
1417,-0.440,-0.660
1418,-0.380,-0.520
1419,-0.350,-0.405
1420,-0.340,-0.305
1421,-0.355,-0.230
1422,-0.355,-0.205
1423,-0.360,-0.180
1424,-0.365,-0.185
1425,-0.360,-0.180
1426,-0.350,-0.180
1427,-0.345,-0.175
1428,-0.350,-0.160
1429,-0.340,-0.140
1430,-0.325,-0.125
1431,-0.320,-0.115
1432,-0.315,-0.100
1433,-0.305,-0.095
1434,-0.285,-0.090
1435,-0.275,-0.080
1436,-0.265,-0.080
1437,-0.290,-0.090
1438,-0.275,-0.085
1439,-0.280,-0.075
1440,-0.270,-0.065
1441,-0.270,-0.050
1442,-0.255,-0.050
1443,-0.235,-0.020
1444,-0.220,-0.005
1445,-0.190,0.005
1446,-0.180,0.005
1447,-0.155,0.025
1448,-0.150,0.015
1449,-0.150,0.030
1450,-0.160,0.030
1451,-0.145,0.040
1452,-0.140,0.055
1453,-0.120,0.055
1454,-0.080,0.075
1455,-0.060,0.110
1456,-0.035,0.125
1457,-0.010,0.145
1458,0.010,0.155
1459,0.025,0.160
1460,0.035,0.170
1461,0.040,0.185
1462,0.055,0.190
1463,0.080,0.205
1464,0.090,0.230
1465,0.110,0.255
1466,0.130,0.270
1467,0.155,0.290
1468,0.175,0.320
1469,0.195,0.340
1470,0.205,0.335
1471,0.215,0.355
1472,0.235,0.365
1473,0.230,0.370
1474,0.240,0.375
1475,0.240,0.385
1476,0.245,0.395
1477,0.250,0.405
1478,0.250,0.425
1479,0.265,0.430
1480,0.270,0.445
1481,0.275,0.445
1482,0.245,0.450
1483,0.235,0.435
1484,0.205,0.425
1485,0.190,0.425
1486,0.165,0.405
1487,0.135,0.405
1488,0.125,0.405
1489,0.130,0.385
1490,0.130,0.380
1491,0.110,0.375
1492,0.095,0.360
1493,0.105,0.335
1494,0.090,0.315
1495,0.065,0.285
1496,0.035,0.245
1497,0.010,0.205
1498,-0.015,0.170
1499,-0.045,0.145
1500,-0.070,0.115
1501,-0.100,0.100
1502,-0.135,0.070
1503,-0.145,0.030
1504,-0.170,0.015
1505,-0.190,-0.005
1506,-0.215,-0.030
1507,-0.240,-0.065
1508,-0.255,-0.095
1509,-0.285,-0.120
1510,-0.300,-0.145
1511,-0.315,-0.155
1512,-0.325,-0.170
1513,-0.345,-0.185
1514,-0.350,-0.180
1515,-0.355,-0.195
1516,-0.350,-0.195
1517,-0.365,-0.185
1518,-0.370,-0.205
1519,-0.370,-0.210
1520,-0.385,-0.230
1521,-0.390,-0.225
1522,-0.390,-0.235
1523,-0.400,-0.240
1524,-0.405,-0.260
1525,-0.420,-0.245
1526,-0.415,-0.250
1527,-0.425,-0.235
1528,-0.420,-0.225
1529,-0.410,-0.230
1530,-0.415,-0.235
1531,-0.415,-0.220
1532,-0.425,-0.230
1533,-0.425,-0.235
1534,-0.435,-0.245
1535,-0.435,-0.240
1536,-0.440,-0.235
1537,-0.435,-0.225
1538,-0.450,-0.220
1539,-0.435,-0.205
1540,-0.430,-0.210
1541,-0.445,-0.210
1542,-0.430,-0.205
1543,-0.425,-0.205
1544,-0.430,-0.215
1545,-0.435,-0.230
1546,-0.430,-0.225
1547,-0.425,-0.230
1548,-0.415,-0.230
1549,-0.425,-0.220
1550,-0.405,-0.220
1551,-0.400,-0.225
1552,-0.385,-0.205
1553,-0.375,-0.195
1554,-0.395,-0.210
1555,-0.390,-0.210
1556,-0.390,-0.225
1557,-0.385,-0.230
1558,-0.385,-0.245
1559,-0.385,-0.245
1560,-0.390,-0.235
1561,-0.385,-0.235
1562,-0.360,-0.230
1563,-0.345,-0.220
1564,-0.340,-0.220
1565,-0.335,-0.220
1566,-0.330,-0.215
1567,-0.330,-0.215
1568,-0.315,-0.220
1569,-0.335,-0.235
1570,-0.320,-0.245
1571,-0.335,-0.235
1572,-0.345,-0.245
1573,-0.350,-0.240
1574,-0.345,-0.230
1575,-0.345,-0.225
1576,-0.350,-0.205
1577,-0.335,-0.205
1578,-0.340,-0.225
1579,-0.340,-0.215
1580,-0.345,-0.225
1581,-0.365,-0.230
1582,-0.370,-0.230
1583,-0.380,-0.235
1584,-0.380,-0.230
1585,-0.380,-0.220
1586,-0.375,-0.205
1587,-0.360,-0.220
1588,-0.345,-0.205
1589,-0.335,-0.195
1590,-0.315,-0.185
1591,-0.305,-0.180
1592,-0.290,-0.175
1593,-0.295,-0.170
1594,-0.300,-0.165
1595,-0.295,-0.165
1596,-0.295,-0.160
1597,-0.295,-0.150
1598,-0.280,-0.150
1599,-0.270,-0.145
1600,-0.255,-0.120
1601,-0.255,-0.120
1602,-0.250,-0.110
1603,-0.255,-0.125
1604,-0.265,-0.125
1605,-0.280,-0.135
1606,-0.290,-0.155
1607,-0.305,-0.170
1608,-0.310,-0.190
1609,-0.315,-0.195
1610,-0.315,-0.205
1611,-0.310,-0.195
1612,-0.305,-0.195
1613,-0.310,-0.190
1614,-0.335,-0.190
1615,-0.335,-0.205
1616,-0.350,-0.220
1617,-0.350,-0.245
1618,-0.380,-0.255
1619,-0.390,-0.255
1620,-0.385,-0.260
1621,-0.385,-0.255
1622,-0.405,-0.260
1623,-0.425,-0.255
1624,-0.420,-0.255
1625,-0.415,-0.270
1626,-0.410,-0.275
1627,-0.415,-0.285
1628,-0.400,-0.290
1629,-0.405,-0.290
1630,-0.405,-0.295
1631,-0.395,-0.295
1632,-0.395,-0.285
1633,-0.405,-0.280
1634,-0.395,-0.255
1635,-0.380,-0.250
1636,-0.370,-0.220
1637,-0.345,-0.205
1638,-0.320,-0.210
1639,-0.310,-0.195
1640,-0.315,-0.195
1641,-0.300,-0.180
1642,-0.290,-0.175
1643,-0.305,-0.160
1644,-0.285,-0.145
1645,-0.265,-0.120
1646,-0.210,-0.100
1647,-0.180,-0.070
1648,-0.155,-0.035
1649,-0.120,-0.030
1650,-0.105,-0.015
1651,-0.065,-0.005
1652,-0.025,0.010
1653,0.000,0.015
1654,0.025,0.035
1655,0.060,0.035
1656,0.110,0.065
1657,0.165,0.120
1658,0.255,0.180
1659,0.380,0.260
1660,0.525,0.345
1661,0.695,0.440
1662,0.865,0.540
1663,1.065,0.655
1664,1.255,0.770
1665,1.425,0.850
1666,1.545,0.875
1667,1.595,0.850
1668,1.530,0.750
1669,1.350,0.595
1670,1.065,0.420
1671,0.680,0.270
1672,0.250,0.150
1673,-0.190,0.040
1674,-0.615,-0.070
1675,-0.925,-0.185
1676,-1.090,-0.315
1677,-1.140,-0.430
1678,-1.065,-0.500
1679,-0.945,-0.555
1680,-0.810,-0.555
1681,-0.690,-0.515
1682,-0.605,-0.445
1683,-0.530,-0.390
1684,-0.510,-0.315
1685,-0.490,-0.265
1686,-0.505,-0.240
1687,-0.520,-0.230
1688,-0.530,-0.225
1689,-0.540,-0.230
1690,-0.535,-0.250
1691,-0.550,-0.255
1692,-0.545,-0.245
1693,-0.530,-0.240
1694,-0.520,-0.225
1695,-0.510,-0.220
1696,-0.505,-0.200
1697,-0.490,-0.195
1698,-0.480,-0.190
1699,-0.465,-0.200
1700,-0.475,-0.225
1701,-0.475,-0.210
1702,-0.485,-0.215
1703,-0.470,-0.215
1704,-0.485,-0.205
1705,-0.480,-0.205
1706,-0.475,-0.185
1707,-0.480,-0.185
1708,-0.485,-0.180
1709,-0.480,-0.165
1710,-0.480,-0.170
1711,-0.475,-0.190
1712,-0.475,-0.195
1713,-0.475,-0.205
1714,-0.465,-0.195
1715,-0.480,-0.200
1716,-0.475,-0.165
1717,-0.480,-0.180
1718,-0.470,-0.175
1719,-0.460,-0.165
1720,-0.460,-0.160
1721,-0.445,-0.140
1722,-0.435,-0.145
1723,-0.425,-0.150
1724,-0.420,-0.160
1725,-0.420,-0.170
1726,-0.420,-0.155
1727,-0.425,-0.155
1728,-0.420,-0.155
1729,-0.420,-0.140
1730,-0.405,-0.130
1731,-0.400,-0.120
1732,-0.380,-0.100
1733,-0.370,-0.085
1734,-0.355,-0.095
1735,-0.335,-0.080
1736,-0.330,-0.075
1737,-0.335,-0.085
1738,-0.340,-0.065
1739,-0.325,-0.070
1740,-0.320,-0.055
1741,-0.305,-0.035
1742,-0.290,-0.025
1743,-0.275,0.000
1744,-0.260,0.000
1745,-0.250,0.025
1746,-0.255,0.015
1747,-0.235,0.035
1748,-0.240,0.035
1749,-0.240,0.035
1750,-0.240,0.035
1751,-0.240,0.045
1752,-0.230,0.050
1753,-0.205,0.070
1754,-0.195,0.085
1755,-0.175,0.095
1756,-0.175,0.090
1757,-0.150,0.095
1758,-0.150,0.090
1759,-0.140,0.060
1760,-0.145,0.055
1761,-0.145,0.040
1762,-0.165,0.030
1763,-0.170,0.005
1764,-0.180,-0.010
1765,-0.205,-0.025
1766,-0.210,-0.035
1767,-0.220,-0.040
1768,-0.225,-0.050
1769,-0.225,-0.070
1770,-0.240,-0.090
1771,-0.250,-0.095
1772,-0.270,-0.110
1773,-0.270,-0.135
1774,-0.295,-0.160
1775,-0.305,-0.165
1776,-0.295,-0.170
1777,-0.300,-0.170
1778,-0.300,-0.180
1779,-0.305,-0.190
1780,-0.290,-0.170
1781,-0.285,-0.175
1782,-0.290,-0.180
1783,-0.285,-0.190
1784,-0.290,-0.200
1785,-0.290,-0.215
1786,-0.300,-0.220
1787,-0.300,-0.225
1788,-0.300,-0.225
1789,-0.305,-0.225
1790,-0.280,-0.210
1791,-0.270,-0.220
1792,-0.255,-0.200
1793,-0.265,-0.200
1794,-0.255,-0.215
1795,-0.245,-0.210
1796,-0.245,-0.210
1797,-0.240,-0.210
1798,-0.235,-0.235
1799,-0.245,-0.230
1800,-0.240,-0.225
1801,-0.245,-0.230
1802,-0.250,-0.215
1803,-0.235,-0.215
1804,-0.245,-0.205
1805,-0.230,-0.205
1806,-0.235,-0.200
1807,-0.230,-0.205
1808,-0.240,-0.200
1809,-0.255,-0.210
1810,-0.285,-0.220
1811,-0.295,-0.225
1812,-0.305,-0.225
1813,-0.305,-0.210
1814,-0.315,-0.205
1815,-0.315,-0.215
1816,-0.325,-0.215
1817,-0.335,-0.195
1818,-0.335,-0.195
1819,-0.345,-0.210
1820,-0.355,-0.215
1821,-0.360,-0.230
1822,-0.380,-0.225
1823,-0.375,-0.235
1824,-0.385,-0.230
1825,-0.390,-0.240
1826,-0.385,-0.235
1827,-0.395,-0.225
1828,-0.400,-0.225
1829,-0.400,-0.215
1830,-0.400,-0.220
1831,-0.405,-0.215
1832,-0.415,-0.230
1833,-0.400,-0.240
1834,-0.430,-0.250
1835,-0.435,-0.260
1836,-0.440,-0.255
1837,-0.445,-0.255
1838,-0.440,-0.255
1839,-0.445,-0.245
1840,-0.440,-0.235
1841,-0.440,-0.240
1842,-0.430,-0.235
1843,-0.435,-0.240
1844,-0.440,-0.260
1845,-0.440,-0.255
1846,-0.445,-0.270
1847,-0.455,-0.275
1848,-0.455,-0.270
1849,-0.445,-0.265
1850,-0.450,-0.260
1851,-0.430,-0.255
1852,-0.410,-0.240
1853,-0.410,-0.230
1854,-0.395,-0.220
1855,-0.375,-0.215
1856,-0.375,-0.230
1857,-0.380,-0.220
1858,-0.375,-0.220
1859,-0.380,-0.195
1860,-0.365,-0.190
1861,-0.350,-0.180
1862,-0.340,-0.185
1863,-0.340,-0.165
1864,-0.320,-0.150
1865,-0.310,-0.155
1866,-0.300,-0.135
1867,-0.320,-0.130
1868,-0.320,-0.135
1869,-0.335,-0.150
1870,-0.345,-0.150
1871,-0.360,-0.175
1872,-0.365,-0.175
1873,-0.380,-0.195
1874,-0.380,-0.200
1875,-0.390,-0.195
1876,-0.400,-0.200
1877,-0.395,-0.180
1878,-0.410,-0.195
1879,-0.410,-0.195
1880,-0.415,-0.215
1881,-0.420,-0.220
1882,-0.435,-0.245
1883,-0.440,-0.235
1884,-0.440,-0.230
1885,-0.450,-0.240
1886,-0.470,-0.240
1887,-0.465,-0.240
1888,-0.460,-0.240
1889,-0.460,-0.250
1890,-0.455,-0.260
1891,-0.440,-0.260
1892,-0.430,-0.270
1893,-0.415,-0.260
1894,-0.410,-0.270
1895,-0.410,-0.270
1896,-0.385,-0.265
1897,-0.365,-0.250
1898,-0.330,-0.215
1899,-0.290,-0.210
1900,-0.265,-0.200
1901,-0.225,-0.180
1902,-0.240,-0.165
1903,-0.220,-0.140
1904,-0.175,-0.140
1905,-0.180,-0.125
1906,-0.145,-0.115
1907,-0.130,-0.110
1908,-0.105,-0.080
1909,-0.065,-0.050
1910,-0.025,-0.020
1911,0.005,0.000
1912,0.030,0.030
1913,0.080,0.035
1914,0.125,0.065
1915,0.170,0.075
1916,0.210,0.080
1917,0.245,0.110
1918,0.280,0.150
1919,0.355,0.205
1920,0.440,0.285
1921,0.540,0.370
1922,0.685,0.490
1923,0.835,0.615
1924,1.025,0.740
1925,1.205,0.860
1926,1.355,0.930
1927,1.450,0.920
1928,1.465,0.805
1929,1.370,0.640
1930,1.170,0.415
1931,0.880,0.220
1932,0.475,0.045
1933,0.015,-0.110
1934,-0.435,-0.205
1935,-0.825,-0.315
1936,-1.050,-0.410
1937,-1.100,-0.490
1938,-1.045,-0.545
1939,-0.885,-0.550
1940,-0.730,-0.545
1941,-0.595,-0.500
1942,-0.500,-0.445
1943,-0.455,-0.380
1944,-0.445,-0.305
1945,-0.470,-0.260
1946,-0.480,-0.235
1947,-0.490,-0.215
1948,-0.500,-0.215
1949,-0.500,-0.220
1950,-0.495,-0.225
1951,-0.485,-0.230
1952,-0.485,-0.230
1953,-0.475,-0.230
1954,-0.485,-0.225
1955,-0.490,-0.230
1956,-0.495,-0.220
1957,-0.515,-0.225
1958,-0.515,-0.220
1959,-0.510,-0.225
1960,-0.510,-0.205
1961,-0.505,-0.205
1962,-0.510,-0.205
1963,-0.515,-0.195
1964,-0.525,-0.200
1965,-0.540,-0.215
1966,-0.550,-0.205
1967,-0.550,-0.210
1968,-0.570,-0.205
1969,-0.580,-0.205
1970,-0.585,-0.190
1971,-0.600,-0.175
1972,-0.595,-0.155
1973,-0.575,-0.150
1974,-0.585,-0.140
1975,-0.585,-0.160
1976,-0.600,-0.160
1977,-0.605,-0.165
1978,-0.620,-0.175
1979,-0.630,-0.170
1980,-0.645,-0.160
1981,-0.645,-0.150
1982,-0.635,-0.145
1983,-0.635,-0.130
1984,-0.630,-0.125
1985,-0.615,-0.120
1986,-0.615,-0.115
1987,-0.625,-0.105
1988,-0.610,-0.120
1989,-0.610,-0.115
1990,-0.615,-0.110
1991,-0.620,-0.105
1992,-0.615,-0.090
1993,-0.610,-0.090
1994,-0.585,-0.070
1995,-0.555,-0.055
1996,-0.550,-0.035
1997,-0.525,-0.025
1998,-0.515,-0.020
1999,-0.500,-0.010
2000,-0.490,0.005
2001,-0.475,0.015
2002,-0.460,0.015
2003,-0.455,0.020
2004,-0.425,0.035
2005,-0.415,0.055
2006,-0.380,0.060
2007,-0.355,0.085
2008,-0.345,0.100
2009,-0.325,0.130
2010,-0.320,0.120
2011,-0.295,0.135
2012,-0.290,0.130
2013,-0.285,0.130
2014,-0.270,0.125
2015,-0.270,0.130
2016,-0.260,0.145
2017,-0.260,0.145
2018,-0.255,0.165
2019,-0.245,0.165
2020,-0.240,0.165
2021,-0.235,0.160
2022,-0.230,0.155
2023,-0.225,0.145
2024,-0.230,0.125
2025,-0.245,0.100
2026,-0.270,0.080
2027,-0.295,0.060
2028,-0.305,0.050
2029,-0.315,0.035
2030,-0.325,0.030
2031,-0.340,0.015
2032,-0.340,0.005
2033,-0.340,0.005
2034,-0.345,-0.015
2035,-0.365,-0.030
2036,-0.375,-0.060
2037,-0.395,-0.070
2038,-0.410,-0.075
2039,-0.410,-0.105
2040,-0.430,-0.095
2041,-0.425,-0.095
2042,-0.425,-0.110
2043,-0.410,-0.105
2044,-0.405,-0.115
2045,-0.400,-0.095
2046,-0.400,-0.100
2047,-0.395,-0.115
2048,-0.400,-0.125
2049,-0.400,-0.130
2050,-0.390,-0.140
2051,-0.405,-0.140
2052,-0.395,-0.155
2053,-0.375,-0.145
2054,-0.375,-0.140
2055,-0.360,-0.135
2056,-0.350,-0.135
2057,-0.350,-0.130
2058,-0.345,-0.120
2059,-0.340,-0.140
2060,-0.335,-0.145
2061,-0.340,-0.145
2062,-0.330,-0.160
2063,-0.335,-0.160
2064,-0.345,-0.165
2065,-0.335,-0.165
2066,-0.330,-0.155
2067,-0.320,-0.150
2068,-0.330,-0.145
2069,-0.320,-0.135
2070,-0.315,-0.150
2071,-0.300,-0.145
2072,-0.310,-0.170
2073,-0.295,-0.165
2074,-0.315,-0.180
2075,-0.325,-0.180
2076,-0.330,-0.175
2077,-0.340,-0.180
2078,-0.340,-0.175
2079,-0.340,-0.175
2080,-0.330,-0.170
2081,-0.325,-0.165
2082,-0.325,-0.170
2083,-0.315,-0.170
2084,-0.330,-0.175
2085,-0.335,-0.180
2086,-0.335,-0.190
2087,-0.355,-0.195
2088,-0.360,-0.215
2089,-0.365,-0.200
2090,-0.365,-0.195
2091,-0.355,-0.190
2092,-0.360,-0.190
2093,-0.355,-0.180
2094,-0.350,-0.175
2095,-0.345,-0.190
2096,-0.360,-0.200
2097,-0.360,-0.215
2098,-0.375,-0.210
2099,-0.380,-0.225
2100,-0.370,-0.220
2101,-0.370,-0.220
2102,-0.380,-0.210
2103,-0.370,-0.200
2104,-0.375,-0.205
2105,-0.380,-0.190
2106,-0.375,-0.195
2107,-0.385,-0.200
2108,-0.375,-0.215
2109,-0.385,-0.200
2110,-0.405,-0.210
2111,-0.405,-0.215
2112,-0.425,-0.220
2113,-0.435,-0.210
2114,-0.435,-0.210
2115,-0.435,-0.200
2116,-0.430,-0.190
2117,-0.420,-0.190
2118,-0.435,-0.190
2119,-0.430,-0.180
2120,-0.430,-0.185
2121,-0.435,-0.190
2122,-0.440,-0.210
2123,-0.450,-0.215
2124,-0.445,-0.205
2125,-0.450,-0.205
2126,-0.435,-0.190
2127,-0.435,-0.190
2128,-0.410,-0.180
2129,-0.390,-0.165
2130,-0.370,-0.170
2131,-0.345,-0.150
2132,-0.330,-0.145
2133,-0.325,-0.145
2134,-0.310,-0.145
2135,-0.305,-0.135
2136,-0.285,-0.110
2137,-0.265,-0.105
2138,-0.245,-0.095
2139,-0.230,-0.065
2140,-0.230,-0.060
2141,-0.210,-0.050
2142,-0.210,-0.055
2143,-0.220,-0.040
2144,-0.220,-0.065
2145,-0.225,-0.090
2146,-0.245,-0.110
2147,-0.245,-0.145
2148,-0.250,-0.160
2149,-0.260,-0.165
2150,-0.260,-0.160
2151,-0.275,-0.155
2152,-0.285,-0.160
2153,-0.285,-0.150
2154,-0.295,-0.160
2155,-0.295,-0.165
2156,-0.290,-0.175
2157,-0.305,-0.190
2158,-0.330,-0.200
2159,-0.350,-0.215
2160,-0.365,-0.225
2161,-0.380,-0.235
2162,-0.385,-0.225
2163,-0.370,-0.230
2164,-0.360,-0.230
2165,-0.345,-0.220
2166,-0.325,-0.225
2167,-0.305,-0.225
2168,-0.285,-0.210
2169,-0.270,-0.220
2170,-0.275,-0.215
2171,-0.280,-0.215
2172,-0.280,-0.205
2173,-0.280,-0.190
2174,-0.255,-0.170
2175,-0.225,-0.145
2176,-0.200,-0.120
2177,-0.190,-0.105
2178,-0.150,-0.095
2179,-0.135,-0.070
2180,-0.115,-0.050
2181,-0.085,-0.040
2182,-0.070,-0.010
2183,-0.040,-0.010
2184,-0.005,0.025
2185,0.035,0.040
2186,0.070,0.065
2187,0.120,0.090
2188,0.160,0.110
2189,0.200,0.145
2190,0.245,0.170
2191,0.310,0.225
2192,0.390,0.280
2193,0.490,0.345
2194,0.630,0.435
2195,0.775,0.545
2196,0.960,0.655
2197,1.140,0.770
2198,1.325,0.860
2199,1.475,0.890
2200,1.560,0.835
2201,1.560,0.695
2202,1.435,0.505
2203,1.225,0.290
2204,0.885,0.105
2205,0.460,-0.045
2206,0.010,-0.150
2207,-0.425,-0.235
2208,-0.750,-0.340
2209,-0.930,-0.430
2210,-0.965,-0.495
2211,-0.870,-0.550
2212,-0.725,-0.565
2213,-0.565,-0.535
2214,-0.425,-0.515
2215,-0.340,-0.435
2216,-0.285,-0.370
2217,-0.280,-0.300
2218,-0.285,-0.255
2219,-0.300,-0.230
2220,-0.335,-0.220
2221,-0.345,-0.210
2222,-0.350,-0.210
2223,-0.340,-0.205
2224,-0.320,-0.210
2225,-0.305,-0.205
2226,-0.310,-0.205
2227,-0.315,-0.205
2228,-0.320,-0.205
2229,-0.320,-0.215
2230,-0.330,-0.210
2231,-0.330,-0.215
2232,-0.330,-0.220
2233,-0.325,-0.230
2234,-0.330,-0.210
2235,-0.330,-0.190
2236,-0.325,-0.190
2237,-0.310,-0.185
2238,-0.320,-0.195
2239,-0.325,-0.190
2240,-0.325,-0.180
2241,-0.335,-0.195
2242,-0.340,-0.205
2243,-0.340,-0.200
2244,-0.355,-0.205
2245,-0.360,-0.195
2246,-0.355,-0.180
2247,-0.355,-0.175
2248,-0.360,-0.160
2249,-0.365,-0.165
2250,-0.345,-0.160
2251,-0.355,-0.165
2252,-0.355,-0.160
2253,-0.355,-0.155
2254,-0.355,-0.155
2255,-0.370,-0.150
2256,-0.375,-0.140
2257,-0.385,-0.120
2258,-0.380,-0.115
2259,-0.370,-0.095
2260,-0.370,-0.085
2261,-0.350,-0.080
2262,-0.340,-0.075
2263,-0.340,-0.070
2264,-0.340,-0.060
2265,-0.355,-0.060
2266,-0.355,-0.060
2267,-0.370,-0.055
2268,-0.360,-0.040
2269,-0.360,-0.035
2270,-0.350,-0.020
2271,-0.340,0.000
2272,-0.325,0.025
2273,-0.315,0.030
2274,-0.320,0.035
2275,-0.310,0.035
2276,-0.305,0.045
2277,-0.310,0.040
2278,-0.315,0.045
2279,-0.310,0.050
2280,-0.310,0.055
2281,-0.305,0.060
2282,-0.305,0.070
2283,-0.290,0.080
2284,-0.285,0.095
2285,-0.285,0.115
2286,-0.280,0.105
2287,-0.260,0.105
2288,-0.270,0.100
2289,-0.255,0.110
2290,-0.245,0.100
2291,-0.265,0.095
2292,-0.270,0.095
2293,-0.270,0.090
2294,-0.275,0.085
2295,-0.280,0.080
2296,-0.285,0.075
2297,-0.285,0.065
2298,-0.275,0.045
2299,-0.275,0.015
2300,-0.280,0.010
2301,-0.300,-0.020
2302,-0.315,-0.040
2303,-0.325,-0.060
2304,-0.325,-0.085
2305,-0.330,-0.090
2306,-0.340,-0.100
2307,-0.340,-0.110
2308,-0.340,-0.105
2309,-0.345,-0.120
2310,-0.340,-0.130
2311,-0.360,-0.140
2312,-0.360,-0.145
2313,-0.370,-0.160
2314,-0.375,-0.165
2315,-0.370,-0.165
2316,-0.375,-0.190
2317,-0.385,-0.195
2318,-0.385,-0.190
2319,-0.380,-0.180
2320,-0.380,-0.180
2321,-0.365,-0.170
2322,-0.375,-0.185
2323,-0.365,-0.185
2324,-0.370,-0.175
2325,-0.385,-0.185
2326,-0.390,-0.195
2327,-0.370,-0.195
2328,-0.380,-0.200
2329,-0.375,-0.200
2330,-0.375,-0.190
2331,-0.365,-0.175
2332,-0.360,-0.170
2333,-0.355,-0.170
2334,-0.345,-0.175
2335,-0.335,-0.185
2336,-0.340,-0.180
2337,-0.320,-0.175
2338,-0.330,-0.175
2339,-0.335,-0.180
2340,-0.325,-0.180
2341,-0.320,-0.175
2342,-0.315,-0.180
2343,-0.310,-0.180
2344,-0.305,-0.175
2345,-0.285,-0.170
2346,-0.270,-0.175
2347,-0.260,-0.180
2348,-0.260,-0.185
2349,-0.250,-0.190
2350,-0.265,-0.200
2351,-0.265,-0.215
2352,-0.280,-0.220
2353,-0.290,-0.225
2354,-0.280,-0.220
2355,-0.270,-0.210
2356,-0.240,-0.210
2357,-0.230,-0.200
2358,-0.220,-0.210
2359,-0.230,-0.230
2360,-0.225,-0.220
2361,-0.230,-0.230
2362,-0.230,-0.245
2363,-0.250,-0.240
2364,-0.260,-0.245
2365,-0.260,-0.240
2366,-0.265,-0.230
2367,-0.270,-0.230
2368,-0.285,-0.225
2369,-0.295,-0.240
2370,-0.290,-0.225
2371,-0.305,-0.240
2372,-0.320,-0.260
2373,-0.335,-0.260
2374,-0.340,-0.265
2375,-0.345,-0.270
2376,-0.350,-0.275
2377,-0.365,-0.270
2378,-0.365,-0.265
2379,-0.370,-0.255
2380,-0.370,-0.235
2381,-0.380,-0.250
2382,-0.390,-0.240
2383,-0.385,-0.255
2384,-0.390,-0.265
2385,-0.395,-0.265
2386,-0.405,-0.275
2387,-0.410,-0.280
2388,-0.420,-0.295
2389,-0.425,-0.270
2390,-0.420,-0.265
2391,-0.420,-0.265
2392,-0.405,-0.250
2393,-0.380,-0.250
2394,-0.375,-0.240
2395,-0.350,-0.240
2396,-0.330,-0.225
2397,-0.325,-0.215
2398,-0.330,-0.225
2399,-0.325,-0.225
2400,-0.325,-0.220
2401,-0.325,-0.205
2402,-0.320,-0.200
2403,-0.310,-0.200
2404,-0.300,-0.165
2405,-0.300,-0.165
2406,-0.295,-0.170
2407,-0.295,-0.175
2408,-0.310,-0.195
2409,-0.325,-0.205
2410,-0.355,-0.215
2411,-0.385,-0.225
2412,-0.390,-0.240
2413,-0.405,-0.240
2414,-0.420,-0.255
2415,-0.425,-0.245
2416,-0.425,-0.255
2417,-0.445,-0.255
2418,-0.445,-0.260
2419,-0.465,-0.270
2420,-0.490,-0.270
2421,-0.505,-0.290
2422,-0.520,-0.300
2423,-0.535,-0.300
2424,-0.555,-0.315
2425,-0.560,-0.325
2426,-0.565,-0.325
2427,-0.560,-0.325
2428,-0.560,-0.330
2429,-0.555,-0.320
2430,-0.540,-0.320
2431,-0.510,-0.310
2432,-0.515,-0.320
2433,-0.495,-0.315
2434,-0.480,-0.315
2435,-0.480,-0.315
2436,-0.455,-0.315
2437,-0.450,-0.295
2438,-0.425,-0.280
2439,-0.405,-0.255
2440,-0.375,-0.230
2441,-0.350,-0.210
2442,-0.325,-0.190
2443,-0.295,-0.175
2444,-0.265,-0.165
2445,-0.245,-0.155
2446,-0.220,-0.140
2447,-0.210,-0.130
2448,-0.175,-0.110
2449,-0.160,-0.085
2450,-0.130,-0.065
2451,-0.080,-0.045
2452,-0.040,-0.015
2453,0.015,0.010
2454,0.060,0.025
2455,0.100,0.040
2456,0.125,0.060
2457,0.165,0.095
2458,0.225,0.140
2459,0.300,0.195
2460,0.425,0.265
2461,0.570,0.360
2462,0.760,0.485
2463,0.970,0.610
2464,1.200,0.745
2465,1.405,0.890
2466,1.560,0.945
2467,1.675,0.905
2468,1.700,0.815
2469,1.610,0.650
2470,1.385,0.455
2471,1.030,0.270
2472,0.580,0.125
2473,0.080,-0.015
2474,-0.420,-0.105
2475,-0.825,-0.225
2476,-1.100,-0.330
2477,-1.175,-0.435
2478,-1.125,-0.520
2479,-0.985,-0.580
2480,-0.810,-0.585
2481,-0.660,-0.570
2482,-0.545,-0.520
2483,-0.470,-0.445
2484,-0.425,-0.370
2485,-0.425,-0.300
2486,-0.435,-0.260
2487,-0.455,-0.235
2488,-0.470,-0.220
2489,-0.485,-0.215
2490,-0.470,-0.225
2491,-0.455,-0.235
2492,-0.440,-0.235
2493,-0.430,-0.235
2494,-0.435,-0.240
2495,-0.445,-0.240
2496,-0.450,-0.240
2497,-0.445,-0.240
2498,-0.450,-0.230
2499,-0.430,-0.230
2500,-0.415,-0.225
2501,-0.410,-0.220
2502,-0.405,-0.225
2503,-0.390,-0.225
2504,-0.400,-0.220
2505,-0.410,-0.230
2506,-0.420,-0.240
2507,-0.405,-0.255
2508,-0.410,-0.250
2509,-0.410,-0.245
2510,-0.405,-0.245
2511,-0.400,-0.235
2512,-0.395,-0.230
2513,-0.390,-0.220
2514,-0.385,-0.230
2515,-0.390,-0.225
2516,-0.395,-0.215
2517,-0.400,-0.235
2518,-0.410,-0.240
2519,-0.435,-0.235
2520,-0.420,-0.235
2521,-0.415,-0.225
2522,-0.420,-0.230
2523,-0.415,-0.215
2524,-0.420,-0.195
2525,-0.405,-0.190
2526,-0.400,-0.190
2527,-0.405,-0.195
2528,-0.405,-0.185
2529,-0.410,-0.190
2530,-0.420,-0.195
2531,-0.405,-0.195
2532,-0.410,-0.180
2533,-0.410,-0.180
2534,-0.395,-0.160
2535,-0.395,-0.145
2536,-0.390,-0.120
2537,-0.370,-0.110
2538,-0.355,-0.105
2539,-0.345,-0.100
2540,-0.325,-0.080
2541,-0.330,-0.085
2542,-0.330,-0.080
2543,-0.320,-0.080
2544,-0.330,-0.060
2545,-0.325,-0.040
2546,-0.320,-0.040
2547,-0.300,-0.020
2548,-0.290,-0.015
2549,-0.275,-0.005
2550,-0.260,0.005
2551,-0.260,0.015
2552,-0.255,0.020
2553,-0.260,0.005
2554,-0.270,0.020
2555,-0.265,0.020
2556,-0.270,0.020
2557,-0.270,0.030
2558,-0.265,0.035
2559,-0.260,0.035
2560,-0.250,0.040
2561,-0.260,0.045
2562,-0.255,0.045
2563,-0.255,0.025
2564,-0.265,0.015
2565,-0.280,-0.010
2566,-0.295,-0.035
2567,-0.305,-0.045
2568,-0.310,-0.055
2569,-0.315,-0.065
2570,-0.330,-0.070
2571,-0.330,-0.080
2572,-0.345,-0.090
2573,-0.340,-0.090
2574,-0.340,-0.105
2575,-0.340,-0.110
2576,-0.340,-0.120
2577,-0.335,-0.145
2578,-0.350,-0.155
2579,-0.360,-0.170
2580,-0.385,-0.175
2581,-0.395,-0.175
2582,-0.395,-0.175
2583,-0.380,-0.180
2584,-0.360,-0.175
2585,-0.350,-0.175
2586,-0.350,-0.175
2587,-0.325,-0.175
2588,-0.330,-0.190
2589,-0.330,-0.190
2590,-0.370,-0.205
2591,-0.370,-0.205
2592,-0.395,-0.215
2593,-0.380,-0.205
2594,-0.375,-0.215
2595,-0.375,-0.200
2596,-0.385,-0.195
2597,-0.355,-0.190
2598,-0.340,-0.205
2599,-0.320,-0.205
2600,-0.315,-0.210
2601,-0.320,-0.215
2602,-0.300,-0.215
2603,-0.310,-0.215
2604,-0.300,-0.230
2605,-0.285,-0.215
2606,-0.275,-0.220
2607,-0.275,-0.220
2608,-0.275,-0.215
2609,-0.285,-0.220
2610,-0.295,-0.215
2611,-0.285,-0.220
2612,-0.285,-0.235
2613,-0.300,-0.235
2614,-0.275,-0.245
2615,-0.290,-0.255
2616,-0.285,-0.260
2617,-0.285,-0.240
2618,-0.290,-0.245
2619,-0.270,-0.235
2620,-0.255,-0.225
2621,-0.270,-0.230
2622,-0.270,-0.220
2623,-0.265,-0.240
2624,-0.260,-0.240
2625,-0.265,-0.250
2626,-0.280,-0.265
2627,-0.295,-0.270
2628,-0.295,-0.265
2629,-0.295,-0.250
2630,-0.300,-0.270
2631,-0.290,-0.250
2632,-0.280,-0.250
2633,-0.265,-0.245
2634,-0.255,-0.245
2635,-0.270,-0.255
2636,-0.260,-0.265
2637,-0.260,-0.275
2638,-0.275,-0.290
2639,-0.280,-0.285
2640,-0.275,-0.290
2641,-0.270,-0.285
2642,-0.265,-0.295
2643,-0.270,-0.275
2644,-0.265,-0.285
2645,-0.265,-0.270
2646,-0.255,-0.265
2647,-0.255,-0.265
2648,-0.255,-0.275
2649,-0.255,-0.280
2650,-0.260,-0.275
2651,-0.250,-0.260
2652,-0.250,-0.265
2653,-0.235,-0.250
2654,-0.220,-0.235
2655,-0.195,-0.220
2656,-0.185,-0.205
2657,-0.180,-0.195
2658,-0.170,-0.185
2659,-0.180,-0.195
2660,-0.155,-0.185
2661,-0.135,-0.190
2662,-0.130,-0.190
2663,-0.115,-0.185
2664,-0.120,-0.190
2665,-0.125,-0.180
2666,-0.130,-0.170
2667,-0.135,-0.175
2668,-0.150,-0.180
2669,-0.155,-0.195
2670,-0.165,-0.200
2671,-0.165,-0.225
2672,-0.170,-0.230
2673,-0.185,-0.235
2674,-0.190,-0.245
2675,-0.220,-0.245
2676,-0.225,-0.245
2677,-0.250,-0.250
2678,-0.275,-0.255
2679,-0.295,-0.255
2680,-0.295,-0.250
2681,-0.290,-0.245
2682,-0.295,-0.260
2683,-0.275,-0.245
2684,-0.280,-0.255
2685,-0.315,-0.270
2686,-0.320,-0.280
2687,-0.335,-0.300
2688,-0.350,-0.310
2689,-0.355,-0.310
2690,-0.335,-0.285
2691,-0.330,-0.280
2692,-0.310,-0.260
2693,-0.295,-0.245
2694,-0.290,-0.245
2695,-0.290,-0.235
2696,-0.280,-0.225
2697,-0.270,-0.225
2698,-0.280,-0.220
2699,-0.265,-0.225
2700,-0.255,-0.200
2701,-0.260,-0.180
2702,-0.255,-0.170
2703,-0.245,-0.145
2704,-0.235,-0.120
2705,-0.220,-0.100
2706,-0.195,-0.065
2707,-0.180,-0.060
2708,-0.155,-0.040
2709,-0.135,-0.035
2710,-0.120,-0.020
2711,-0.090,-0.005
2712,-0.060,0.005
2713,-0.035,0.020
2714,0.005,0.035
2715,0.035,0.080
2716,0.080,0.100
2717,0.150,0.155
2718,0.220,0.235
2719,0.350,0.300
2720,0.510,0.390
2721,0.690,0.505
2722,0.905,0.615
2723,1.115,0.735
2724,1.355,0.850
2725,1.545,0.905
2726,1.700,0.900
2727,1.755,0.800
2728,1.695,0.620
2729,1.520,0.430
2730,1.195,0.225
2731,0.755,0.055
2732,0.215,-0.090
2733,-0.370,-0.210
2734,-0.895,-0.325
2735,-1.270,-0.425
2736,-1.420,-0.525
2737,-1.380,-0.560
2738,-1.195,-0.580
2739,-0.945,-0.560
2740,-0.720,-0.520
2741,-0.545,-0.455
2742,-0.455,-0.400
2743,-0.415,-0.335
2744,-0.410,-0.290
2745,-0.450,-0.255
2746,-0.475,-0.250
2747,-0.495,-0.250
2748,-0.505,-0.250
2749,-0.505,-0.255
2750,-0.495,-0.245
2751,-0.480,-0.240
2752,-0.475,-0.225
2753,-0.470,-0.230
2754,-0.465,-0.220
2755,-0.460,-0.225
2756,-0.445,-0.220
2757,-0.455,-0.225
2758,-0.445,-0.230
2759,-0.455,-0.230
2760,-0.450,-0.235
2761,-0.445,-0.230
2762,-0.450,-0.215
2763,-0.435,-0.200
2764,-0.440,-0.200
2765,-0.430,-0.195
2766,-0.420,-0.190
2767,-0.415,-0.200
2768,-0.415,-0.195
2769,-0.425,-0.205
2770,-0.415,-0.200
2771,-0.425,-0.215
2772,-0.430,-0.200
2773,-0.420,-0.200
2774,-0.415,-0.195
2775,-0.405,-0.180
2776,-0.395,-0.180
2777,-0.380,-0.170
2778,-0.380,-0.170
2779,-0.370,-0.175
2780,-0.370,-0.170
2781,-0.370,-0.165
2782,-0.360,-0.170
2783,-0.365,-0.170
2784,-0.355,-0.155
2785,-0.340,-0.145
2786,-0.330,-0.125
2787,-0.315,-0.110
2788,-0.300,-0.095
2789,-0.295,-0.090
2790,-0.280,-0.060
2791,-0.270,-0.055
2792,-0.255,-0.070
2793,-0.255,-0.050
2794,-0.245,-0.040
2795,-0.245,-0.040
2796,-0.225,-0.045
2797,-0.210,-0.030
2798,-0.200,-0.015
2799,-0.200,0.015
2800,-0.195,0.010
2801,-0.180,0.035
2802,-0.160,0.035
2803,-0.150,0.040
2804,-0.155,0.035
2805,-0.160,0.040
2806,-0.160,0.055
2807,-0.145,0.050
2808,-0.150,0.055
2809,-0.165,0.080
2810,-0.175,0.090
2811,-0.185,0.100
2812,-0.180,0.110
2813,-0.190,0.105
2814,-0.190,0.120
2815,-0.205,0.120
2816,-0.210,0.115
2817,-0.220,0.095
2818,-0.240,0.090
2819,-0.245,0.075
2820,-0.250,0.065
2821,-0.250,0.060
2822,-0.250,0.040
2823,-0.265,0.035
2824,-0.260,0.025
2825,-0.280,0.010
2826,-0.285,0.005
2827,-0.295,-0.020
2828,-0.320,-0.050
2829,-0.320,-0.055
2830,-0.335,-0.090
2831,-0.345,-0.095
2832,-0.350,-0.125
2833,-0.360,-0.140
2834,-0.370,-0.140
2835,-0.375,-0.145
2836,-0.380,-0.155
2837,-0.380,-0.155
2838,-0.385,-0.160
2839,-0.395,-0.170
2840,-0.400,-0.185
2841,-0.410,-0.205
2842,-0.410,-0.205
2843,-0.425,-0.225
2844,-0.430,-0.220
2845,-0.435,-0.205
2846,-0.430,-0.215
2847,-0.430,-0.215
2848,-0.430,-0.205
2849,-0.425,-0.205
2850,-0.410,-0.205
2851,-0.385,-0.200
2852,-0.385,-0.210
2853,-0.380,-0.215
2854,-0.390,-0.210
2855,-0.395,-0.220
2856,-0.405,-0.230
2857,-0.425,-0.210
2858,-0.430,-0.215
2859,-0.425,-0.210
2860,-0.420,-0.195
2861,-0.410,-0.200
2862,-0.405,-0.190
2863,-0.415,-0.210
2864,-0.410,-0.200
2865,-0.425,-0.215
2866,-0.445,-0.215
2867,-0.450,-0.230
2868,-0.475,-0.235
2869,-0.490,-0.230
2870,-0.500,-0.235
2871,-0.475,-0.225
2872,-0.485,-0.225
2873,-0.475,-0.210
2874,-0.460,-0.215
2875,-0.470,-0.230
2876,-0.470,-0.230
2877,-0.470,-0.250
2878,-0.465,-0.250
2879,-0.475,-0.270
2880,-0.450,-0.265
2881,-0.450,-0.265
2882,-0.445,-0.270
2883,-0.450,-0.255
2884,-0.450,-0.260
2885,-0.430,-0.250
2886,-0.430,-0.255
2887,-0.415,-0.265
2888,-0.420,-0.260
2889,-0.400,-0.260
2890,-0.395,-0.270
2891,-0.405,-0.275
2892,-0.400,-0.280
2893,-0.390,-0.280
2894,-0.400,-0.270
2895,-0.380,-0.280
2896,-0.375,-0.275
2897,-0.375,-0.265
2898,-0.365,-0.270
2899,-0.355,-0.270
2900,-0.360,-0.270
2901,-0.365,-0.280
2902,-0.365,-0.280
2903,-0.380,-0.290
2904,-0.390,-0.290
2905,-0.390,-0.270
2906,-0.400,-0.270
2907,-0.375,-0.255
2908,-0.355,-0.245
2909,-0.370,-0.230
2910,-0.330,-0.230
2911,-0.330,-0.225
2912,-0.315,-0.220
2913,-0.330,-0.215
2914,-0.325,-0.210
2915,-0.330,-0.200
2916,-0.320,-0.200
2917,-0.325,-0.195
2918,-0.310,-0.175
2919,-0.290,-0.170
2920,-0.280,-0.165
2921,-0.260,-0.140
2922,-0.255,-0.145
2923,-0.255,-0.130
2924,-0.255,-0.135
2925,-0.265,-0.135
2926,-0.270,-0.150
2927,-0.280,-0.165
2928,-0.290,-0.180
2929,-0.300,-0.200
2930,-0.300,-0.195
2931,-0.305,-0.195
2932,-0.305,-0.185
2933,-0.305,-0.180
2934,-0.310,-0.185
2935,-0.340,-0.210
2936,-0.355,-0.205
2937,-0.345,-0.215
2938,-0.365,-0.240
2939,-0.370,-0.250
2940,-0.385,-0.240
2941,-0.405,-0.245
2942,-0.410,-0.240
2943,-0.430,-0.250
2944,-0.445,-0.255
2945,-0.450,-0.260
2946,-0.440,-0.280
2947,-0.450,-0.275
2948,-0.445,-0.275
2949,-0.430,-0.290
2950,-0.430,-0.290
2951,-0.430,-0.295
2952,-0.425,-0.295
2953,-0.425,-0.285
2954,-0.400,-0.280
2955,-0.385,-0.255
2956,-0.355,-0.240
2957,-0.335,-0.225
2958,-0.310,-0.205
2959,-0.290,-0.205
2960,-0.265,-0.185
2961,-0.260,-0.170
2962,-0.245,-0.170
2963,-0.230,-0.155
2964,-0.210,-0.130
2965,-0.190,-0.120
2966,-0.170,-0.080
2967,-0.125,-0.060
2968,-0.090,-0.035
2969,-0.065,-0.020
2970,-0.020,0.010
2971,0.025,0.015
2972,0.060,0.035
2973,0.080,0.050
2974,0.105,0.060
2975,0.145,0.100
2976,0.210,0.140
2977,0.280,0.210
2978,0.400,0.290
2979,0.545,0.390
2980,0.730,0.510
2981,0.935,0.630
2982,1.155,0.760
2983,1.375,0.855
2984,1.570,0.910
2985,1.710,0.875
2986,1.770,0.775
2987,1.720,0.580
2988,1.545,0.365
2989,1.215,0.170
2990,0.755,0.015
2991,0.225,-0.100
2992,-0.335,-0.195
2993,-0.840,-0.295
2994,-1.185,-0.385
2995,-1.305,-0.485
2996,-1.255,-0.550
2997,-1.100,-0.590
2998,-0.895,-0.590
2999,-0.710,-0.550
3000,-0.570,-0.470
3001,-0.475,-0.405
3002,-0.460,-0.330
3003,-0.440,-0.270
3004,-0.460,-0.235
3005,-0.475,-0.210
3006,-0.505,-0.200
3007,-0.505,-0.210
3008,-0.520,-0.205
3009,-0.515,-0.215
3010,-0.510,-0.220
3011,-0.505,-0.225
3012,-0.500,-0.220
3013,-0.485,-0.215
3014,-0.490,-0.205
3015,-0.490,-0.195
3016,-0.480,-0.200
3017,-0.470,-0.185
3018,-0.475,-0.165
3019,-0.465,-0.180
3020,-0.475,-0.180
3021,-0.470,-0.180
3022,-0.475,-0.190
3023,-0.465,-0.195
3024,-0.465,-0.195
3025,-0.460,-0.175
3026,-0.470,-0.185
3027,-0.460,-0.170
3028,-0.445,-0.155
3029,-0.440,-0.160
3030,-0.425,-0.160
3031,-0.410,-0.150
3032,-0.415,-0.145
3033,-0.395,-0.140
3034,-0.410,-0.145
3035,-0.420,-0.140
3036,-0.425,-0.145
3037,-0.435,-0.140
3038,-0.440,-0.135
3039,-0.425,-0.140
3040,-0.415,-0.110
3041,-0.400,-0.100
3042,-0.380,-0.090
3043,-0.370,-0.095
3044,-0.370,-0.085
3045,-0.385,-0.090
3046,-0.385,-0.075
3047,-0.390,-0.070
3048,-0.395,-0.075
3049,-0.395,-0.075
3050,-0.395,-0.065
3051,-0.390,-0.055
3052,-0.380,-0.025
3053,-0.365,-0.015
3054,-0.355,0.000
3055,-0.350,0.000
3056,-0.330,0.025
3057,-0.320,0.025
3058,-0.305,0.035
3059,-0.290,0.040
3060,-0.290,0.035
3061,-0.275,0.050
3062,-0.285,0.065
3063,-0.270,0.085
3064,-0.265,0.100
3065,-0.260,0.100
3066,-0.260,0.120
3067,-0.265,0.110
3068,-0.260,0.120
3069,-0.255,0.110
3070,-0.260,0.110
3071,-0.235,0.120
3072,-0.240,0.115
3073,-0.240,0.120
3074,-0.245,0.105
3075,-0.230,0.125
3076,-0.220,0.125
3077,-0.210,0.130
3078,-0.195,0.120
3079,-0.195,0.110
3080,-0.200,0.100
3081,-0.215,0.085
3082,-0.225,0.060
3083,-0.240,0.035
3084,-0.255,0.020
3085,-0.290,0.010
3086,-0.295,-0.015
3087,-0.295,-0.030
3088,-0.285,-0.045
3089,-0.295,-0.045
3090,-0.265,-0.060
3091,-0.280,-0.085
3092,-0.295,-0.095
3093,-0.315,-0.125
3094,-0.335,-0.125
3095,-0.340,-0.145
3096,-0.340,-0.160
3097,-0.330,-0.155
3098,-0.325,-0.170
3099,-0.310,-0.165
3100,-0.310,-0.150
3101,-0.290,-0.155
3102,-0.290,-0.160
3103,-0.305,-0.170
3104,-0.295,-0.170
3105,-0.300,-0.170
3106,-0.300,-0.180
3107,-0.290,-0.180
3108,-0.285,-0.195
3109,-0.300,-0.180
3110,-0.300,-0.185
3111,-0.280,-0.180
3112,-0.280,-0.170
3113,-0.275,-0.175
3114,-0.265,-0.165
3115,-0.255,-0.165
3116,-0.250,-0.170
3117,-0.225,-0.185
3118,-0.230,-0.175
3119,-0.235,-0.195
3120,-0.245,-0.205
3121,-0.235,-0.195
3122,-0.230,-0.185
3123,-0.220,-0.175
3124,-0.225,-0.185
3125,-0.220,-0.170
3126,-0.200,-0.160
3127,-0.195,-0.175
3128,-0.195,-0.175
3129,-0.205,-0.205
3130,-0.220,-0.210
3131,-0.230,-0.215
3132,-0.250,-0.215
3133,-0.265,-0.220
3134,-0.270,-0.220
3135,-0.260,-0.205
3136,-0.260,-0.205
3137,-0.270,-0.200
3138,-0.255,-0.195
3139,-0.270,-0.195
3140,-0.260,-0.210
3141,-0.280,-0.215
3142,-0.290,-0.220
3143,-0.310,-0.225
3144,-0.310,-0.230
3145,-0.320,-0.230
3146,-0.320,-0.230
3147,-0.315,-0.225
3148,-0.320,-0.215
3149,-0.305,-0.200
3150,-0.310,-0.205
3151,-0.305,-0.215
3152,-0.315,-0.210
3153,-0.330,-0.230
3154,-0.330,-0.220
3155,-0.335,-0.235
3156,-0.350,-0.235
3157,-0.350,-0.235
3158,-0.355,-0.220
3159,-0.345,-0.205
3160,-0.350,-0.215
3161,-0.350,-0.205
3162,-0.340,-0.200
3163,-0.345,-0.215
3164,-0.335,-0.210
3165,-0.355,-0.215
3166,-0.355,-0.215
3167,-0.350,-0.210
3168,-0.350,-0.205
3169,-0.365,-0.200
3170,-0.360,-0.185
3171,-0.350,-0.180
3172,-0.340,-0.150
3173,-0.325,-0.125
3174,-0.320,-0.120
3175,-0.310,-0.120
3176,-0.305,-0.115
3177,-0.310,-0.115
3178,-0.310,-0.130
3179,-0.305,-0.130
3180,-0.310,-0.120
3181,-0.305,-0.120
3182,-0.300,-0.100
3183,-0.290,-0.100
3184,-0.295,-0.095
3185,-0.295,-0.110
3186,-0.300,-0.110
3187,-0.315,-0.130
3188,-0.335,-0.155
3189,-0.340,-0.165
3190,-0.360,-0.190
3191,-0.365,-0.190
3192,-0.375,-0.200
3193,-0.380,-0.210
3194,-0.390,-0.210
3195,-0.410,-0.215
3196,-0.415,-0.225
3197,-0.415,-0.215
3198,-0.415,-0.215
3199,-0.420,-0.210
3200,-0.410,-0.230
3201,-0.440,-0.225
3202,-0.440,-0.245
3203,-0.470,-0.265
3204,-0.480,-0.280
3205,-0.480,-0.285
3206,-0.485,-0.275
3207,-0.485,-0.275
3208,-0.480,-0.280
3209,-0.475,-0.260
3210,-0.460,-0.245
3211,-0.440,-0.250
3212,-0.435,-0.245
3213,-0.425,-0.250
3214,-0.420,-0.250
3215,-0.415,-0.230
3216,-0.410,-0.220
3217,-0.395,-0.205
3218,-0.395,-0.185
3219,-0.375,-0.165
3220,-0.350,-0.135
3221,-0.330,-0.115
3222,-0.305,-0.095
3223,-0.270,-0.080
3224,-0.250,-0.055
3225,-0.235,-0.040
3226,-0.210,-0.025
3227,-0.180,0.000
3228,-0.145,0.015
3229,-0.115,0.035
3230,-0.070,0.065
3231,-0.015,0.090
3232,0.035,0.125
3233,0.075,0.160
3234,0.120,0.225
3235,0.195,0.270
3236,0.300,0.350
3237,0.440,0.440
3238,0.605,0.535
3239,0.810,0.660
3240,1.040,0.800
3241,1.280,0.920
3242,1.480,0.995
3243,1.640,0.975
3244,1.700,0.850
3245,1.665,0.655
3246,1.485,0.430
3247,1.160,0.190
3248,0.705,0.010
3249,0.155,-0.145
3250,-0.415,-0.255
3251,-0.915,-0.370
3252,-1.250,-0.455
3253,-1.350,-0.530
3254,-1.270,-0.565
3255,-1.050,-0.580
3256,-0.815,-0.555
3257,-0.585,-0.500
3258,-0.390,-0.430
3259,-0.295,-0.350
3260,-0.235,-0.290
3261,-0.245,-0.225
3262,-0.280,-0.220
3263,-0.310,-0.220
3264,-0.355,-0.210
3265,-0.370,-0.215
3266,-0.380,-0.225
3267,-0.355,-0.215
3268,-0.345,-0.210
3269,-0.340,-0.185
3270,-0.330,-0.185
3271,-0.340,-0.185
3272,-0.340,-0.190
3273,-0.355,-0.200
3274,-0.370,-0.210
3275,-0.380,-0.230
3276,-0.400,-0.225
3277,-0.410,-0.205
3278,-0.395,-0.220
3279,-0.405,-0.195
3280,-0.405,-0.200
3281,-0.410,-0.185
3282,-0.420,-0.175
3283,-0.430,-0.185
3284,-0.445,-0.185
3285,-0.455,-0.180
3286,-0.470,-0.185
3287,-0.485,-0.190
3288,-0.490,-0.195
3289,-0.485,-0.185
3290,-0.475,-0.185
3291,-0.480,-0.190
3292,-0.480,-0.170
3293,-0.480,-0.165
3294,-0.470,-0.165
3295,-0.475,-0.160
3296,-0.475,-0.165
3297,-0.475,-0.165
3298,-0.495,-0.175
3299,-0.500,-0.170
3300,-0.505,-0.175
3301,-0.505,-0.175
3302,-0.510,-0.160
3303,-0.500,-0.150
3304,-0.480,-0.135
3305,-0.460,-0.115
3306,-0.445,-0.100
3307,-0.435,-0.105
3308,-0.425,-0.095
3309,-0.425,-0.090
3310,-0.435,-0.090
3311,-0.445,-0.095
3312,-0.450,-0.090
3313,-0.445,-0.080
3314,-0.455,-0.070
3315,-0.445,-0.050
3316,-0.435,-0.040
3317,-0.425,-0.025
3318,-0.420,-0.010
3319,-0.405,0.000
3320,-0.405,0.000
3321,-0.395,0.015
3322,-0.415,0.010
3323,-0.415,0.015
3324,-0.415,0.020
3325,-0.425,0.035
3326,-0.425,0.035
3327,-0.415,0.045
3328,-0.415,0.050
3329,-0.400,0.065
3330,-0.400,0.065
3331,-0.395,0.070
3332,-0.390,0.080
3333,-0.395,0.055
3334,-0.390,0.050
3335,-0.390,0.040
3336,-0.400,0.045
3337,-0.385,0.040
3338,-0.390,0.035
3339,-0.385,0.035
3340,-0.385,0.025
3341,-0.385,0.005
3342,-0.375,0.000
3343,-0.385,-0.015
3344,-0.390,-0.030
3345,-0.375,-0.055
3346,-0.385,-0.085
3347,-0.395,-0.110
3348,-0.385,-0.120
3349,-0.400,-0.135
3350,-0.400,-0.145
3351,-0.380,-0.150
3352,-0.380,-0.140
3353,-0.385,-0.155
3354,-0.365,-0.155
3355,-0.365,-0.155
3356,-0.370,-0.165
3357,-0.360,-0.180
3358,-0.365,-0.190
3359,-0.365,-0.200
3360,-0.370,-0.200
3361,-0.380,-0.190
3362,-0.385,-0.200
3363,-0.395,-0.175
3364,-0.385,-0.190
3365,-0.385,-0.170
3366,-0.365,-0.175
3367,-0.355,-0.175
3368,-0.365,-0.175
3369,-0.375,-0.185
3370,-0.360,-0.190
3371,-0.360,-0.200
3372,-0.375,-0.200
3373,-0.370,-0.205
3374,-0.365,-0.195
3375,-0.365,-0.195
3376,-0.350,-0.180
3377,-0.350,-0.175
3378,-0.355,-0.180
3379,-0.345,-0.180
3380,-0.340,-0.185
3381,-0.340,-0.185
3382,-0.335,-0.195
3383,-0.345,-0.200
3384,-0.345,-0.210
3385,-0.360,-0.205
3386,-0.365,-0.210
3387,-0.360,-0.200
3388,-0.370,-0.210
3389,-0.370,-0.185
3390,-0.370,-0.185
3391,-0.360,-0.195
3392,-0.355,-0.195
3393,-0.370,-0.210
3394,-0.370,-0.215
3395,-0.385,-0.210
3396,-0.395,-0.240
3397,-0.385,-0.235
3398,-0.405,-0.240
3399,-0.400,-0.220
3400,-0.390,-0.225
3401,-0.390,-0.225
3402,-0.380,-0.225
3403,-0.380,-0.230
3404,-0.385,-0.235
3405,-0.385,-0.255
3406,-0.395,-0.250
3407,-0.405,-0.265
3408,-0.410,-0.270
3409,-0.425,-0.270
3410,-0.435,-0.275
3411,-0.435,-0.260
3412,-0.420,-0.260
3413,-0.410,-0.255
3414,-0.395,-0.260
3415,-0.390,-0.250
3416,-0.380,-0.260
3417,-0.400,-0.275
3418,-0.410,-0.275
3419,-0.400,-0.280
3420,-0.415,-0.290
3421,-0.400,-0.285
3422,-0.420,-0.275
3423,-0.400,-0.270
3424,-0.390,-0.265
3425,-0.370,-0.250
3426,-0.360,-0.235
3427,-0.360,-0.225
3428,-0.350,-0.230
3429,-0.335,-0.225
3430,-0.335,-0.215
3431,-0.325,-0.220
3432,-0.335,-0.210
3433,-0.315,-0.210
3434,-0.315,-0.200
3435,-0.295,-0.190
3436,-0.275,-0.175
3437,-0.275,-0.170
3438,-0.250,-0.160
3439,-0.245,-0.160
3440,-0.245,-0.150
3441,-0.245,-0.175
3442,-0.275,-0.200
3443,-0.295,-0.215
3444,-0.310,-0.230
3445,-0.320,-0.245
3446,-0.330,-0.245
3447,-0.330,-0.235
3448,-0.325,-0.240
3449,-0.345,-0.215
3450,-0.345,-0.220
3451,-0.355,-0.245
3452,-0.370,-0.240
3453,-0.385,-0.260
3454,-0.395,-0.280
3455,-0.410,-0.275
3456,-0.415,-0.280
3457,-0.435,-0.275
3458,-0.440,-0.285
3459,-0.450,-0.285
3460,-0.480,-0.285
3461,-0.485,-0.290
3462,-0.495,-0.295
3463,-0.495,-0.300
3464,-0.500,-0.310
3465,-0.505,-0.300
3466,-0.495,-0.305
3467,-0.495,-0.305
3468,-0.485,-0.300
3469,-0.490,-0.285
3470,-0.495,-0.280
3471,-0.475,-0.245
3472,-0.460,-0.250
3473,-0.440,-0.225
3474,-0.435,-0.205
3475,-0.425,-0.190
3476,-0.400,-0.175
3477,-0.400,-0.180
3478,-0.380,-0.160
3479,-0.365,-0.155
3480,-0.350,-0.140
3481,-0.325,-0.115
3482,-0.295,-0.090
3483,-0.260,-0.060
3484,-0.230,-0.040
3485,-0.175,-0.015
3486,-0.135,0.000
3487,-0.085,0.005
3488,-0.045,0.005
3489,-0.005,0.025
3490,0.040,0.035
3491,0.080,0.055
3492,0.120,0.095
3493,0.185,0.130
3494,0.260,0.190
3495,0.395,0.260
3496,0.550,0.375
3497,0.760,0.480
3498,0.980,0.620
3499,1.225,0.750
3500,1.465,0.875
3501,1.680,0.975
3502,1.840,0.995
3503,1.920,0.940
3504,1.910,0.820
3505,1.765,0.655
3506,1.460,0.470
3507,1.040,0.300
3508,0.535,0.170
3509,-0.030,0.045
3510,-0.565,-0.070
3511,-0.985,-0.195
3512,-1.235,-0.330
3513,-1.305,-0.460
3514,-1.220,-0.550
3515,-1.045,-0.590
3516,-0.870,-0.590
3517,-0.685,-0.545
3518,-0.555,-0.490
3519,-0.480,-0.395
3520,-0.430,-0.330
3521,-0.425,-0.265
3522,-0.435,-0.225
3523,-0.450,-0.220
3524,-0.465,-0.225
3525,-0.475,-0.230
3526,-0.480,-0.250
3527,-0.485,-0.265
3528,-0.490,-0.260
3529,-0.490,-0.270
3530,-0.495,-0.265
3531,-0.505,-0.255
3532,-0.510,-0.260
3533,-0.490,-0.245
3534,-0.490,-0.245
3535,-0.480,-0.240
3536,-0.480,-0.250
3537,-0.475,-0.230
3538,-0.480,-0.240
3539,-0.480,-0.260
3540,-0.495,-0.250
3541,-0.495,-0.255
3542,-0.490,-0.240
3543,-0.495,-0.250
3544,-0.485,-0.230
3545,-0.475,-0.225
3546,-0.475,-0.220
3547,-0.465,-0.215
3548,-0.460,-0.230
3549,-0.460,-0.240
3550,-0.465,-0.240
3551,-0.465,-0.255
3552,-0.475,-0.260
3553,-0.480,-0.265
3554,-0.485,-0.250
3555,-0.475,-0.250
3556,-0.475,-0.245
3557,-0.470,-0.230
3558,-0.445,-0.235
3559,-0.450,-0.230
3560,-0.425,-0.235
3561,-0.430,-0.235
3562,-0.440,-0.255
3563,-0.430,-0.265
3564,-0.420,-0.255
3565,-0.420,-0.250
3566,-0.420,-0.240
3567,-0.410,-0.230
3568,-0.395,-0.225
3569,-0.380,-0.210
3570,-0.365,-0.190
3571,-0.350,-0.195
3572,-0.345,-0.190
3573,-0.335,-0.190
3574,-0.340,-0.200
3575,-0.350,-0.185
3576,-0.335,-0.185
3577,-0.325,-0.175
3578,-0.320,-0.160
3579,-0.320,-0.145
3580,-0.310,-0.135
3581,-0.305,-0.115
3582,-0.300,-0.110
3583,-0.285,-0.105
3584,-0.280,-0.100
3585,-0.270,-0.100
3586,-0.275,-0.100
3587,-0.280,-0.110
3588,-0.270,-0.100
3589,-0.260,-0.090
3590,-0.260,-0.075
3591,-0.250,-0.070
3592,-0.240,-0.055
3593,-0.225,-0.050
3594,-0.215,-0.030
3595,-0.215,-0.030
3596,-0.205,-0.035
3597,-0.200,-0.035
3598,-0.200,-0.040
3599,-0.210,-0.060
3600,-0.215,-0.060
3601,-0.230,-0.075
3602,-0.250,-0.080
3603,-0.250,-0.075
3604,-0.255,-0.095
3605,-0.260,-0.085
3606,-0.270,-0.080
3607,-0.270,-0.105
3608,-0.270,-0.125
3609,-0.290,-0.135
3610,-0.310,-0.155
3611,-0.320,-0.170
3612,-0.335,-0.190
3613,-0.350,-0.180
3614,-0.360,-0.180
3615,-0.360,-0.200
3616,-0.355,-0.195
3617,-0.355,-0.195
3618,-0.350,-0.195
3619,-0.350,-0.195
3620,-0.355,-0.210
3621,-0.355,-0.200
3622,-0.360,-0.220
3623,-0.370,-0.220
3624,-0.385,-0.235
3625,-0.400,-0.240
3626,-0.405,-0.230
3627,-0.395,-0.215
3628,-0.390,-0.225
3629,-0.390,-0.205
3630,-0.380,-0.210
3631,-0.380,-0.205
3632,-0.380,-0.215
3633,-0.380,-0.215
3634,-0.385,-0.215
3635,-0.400,-0.220
3636,-0.410,-0.235
3637,-0.410,-0.230
3638,-0.405,-0.225
3639,-0.410,-0.225
3640,-0.405,-0.215
3641,-0.400,-0.210
3642,-0.390,-0.205
3643,-0.375,-0.210
3644,-0.380,-0.215
3645,-0.385,-0.215
3646,-0.385,-0.225
3647,-0.390,-0.235
3648,-0.395,-0.240
3649,-0.395,-0.240
3650,-0.410,-0.240
3651,-0.400,-0.225
3652,-0.415,-0.230
3653,-0.390,-0.225
3654,-0.385,-0.225
3655,-0.375,-0.235
3656,-0.370,-0.235
3657,-0.365,-0.245
3658,-0.375,-0.255
3659,-0.390,-0.270
3660,-0.385,-0.285
3661,-0.395,-0.270
3662,-0.400,-0.270
3663,-0.400,-0.270
3664,-0.395,-0.275
3665,-0.385,-0.265
3666,-0.380,-0.265
3667,-0.385,-0.270
3668,-0.380,-0.280
3669,-0.390,-0.280
3670,-0.390,-0.280
3671,-0.400,-0.290
3672,-0.415,-0.305
3673,-0.415,-0.285
3674,-0.410,-0.295
3675,-0.415,-0.290
3676,-0.405,-0.280
3677,-0.405,-0.275
3678,-0.395,-0.275
3679,-0.405,-0.275
3680,-0.405,-0.280
3681,-0.405,-0.280
3682,-0.415,-0.290
3683,-0.415,-0.280
3684,-0.420,-0.280
3685,-0.410,-0.290
3686,-0.405,-0.270
3687,-0.395,-0.260
3688,-0.380,-0.250
3689,-0.365,-0.230
3690,-0.340,-0.210
3691,-0.325,-0.220
3692,-0.320,-0.205
3693,-0.300,-0.205
3694,-0.295,-0.205
3695,-0.290,-0.210
3696,-0.295,-0.210
3697,-0.270,-0.210
3698,-0.260,-0.210
3699,-0.235,-0.195
3700,-0.215,-0.180
3701,-0.200,-0.170
3702,-0.190,-0.170
3703,-0.180,-0.175
3704,-0.190,-0.185
3705,-0.185,-0.210
3706,-0.200,-0.240
3707,-0.210,-0.250
3708,-0.220,-0.255
3709,-0.230,-0.265
3710,-0.240,-0.260
3711,-0.225,-0.250
3712,-0.235,-0.260
3713,-0.240,-0.260
3714,-0.250,-0.255
3715,-0.260,-0.270
3716,-0.265,-0.270
3717,-0.280,-0.280
3718,-0.280,-0.290
3719,-0.305,-0.315
3720,-0.310,-0.310
3721,-0.325,-0.320
3722,-0.345,-0.325
3723,-0.340,-0.325
3724,-0.340,-0.335
3725,-0.340,-0.320
3726,-0.340,-0.325
3727,-0.340,-0.320
3728,-0.340,-0.300
3729,-0.350,-0.325
3730,-0.355,-0.305
3731,-0.350,-0.300
3732,-0.350,-0.305
3733,-0.345,-0.285
3734,-0.340,-0.270
3735,-0.325,-0.250
3736,-0.325,-0.235
3737,-0.305,-0.225
3738,-0.295,-0.205
3739,-0.285,-0.195
3740,-0.280,-0.170
3741,-0.270,-0.155
3742,-0.255,-0.130
3743,-0.240,-0.120
3744,-0.235,-0.100
3745,-0.210,-0.080
3746,-0.175,-0.070
3747,-0.145,-0.050
3748,-0.100,-0.025
3749,-0.050,0.005
3750,-0.005,0.025
3751,0.040,0.040
3752,0.070,0.060
3753,0.105,0.090
3754,0.160,0.150
3755,0.220,0.195
3756,0.325,0.280
3757,0.475,0.385
3758,0.645,0.515
3759,0.850,0.645
3760,1.075,0.785
3761,1.270,0.895
3762,1.460,0.945
3763,1.595,0.905
3764,1.655,0.805
3765,1.605,0.635
3766,1.430,0.430
3767,1.120,0.230
3768,0.725,0.055
3769,0.265,-0.080
3770,-0.240,-0.185
3771,-0.705,-0.280
3772,-1.045,-0.385
3773,-1.215,-0.480
3774,-1.230,-0.545
3775,-1.130,-0.595
3776,-0.960,-0.595
3777,-0.810,-0.570
3778,-0.670,-0.535
3779,-0.580,-0.480
3780,-0.530,-0.415
3781,-0.520,-0.370
3782,-0.535,-0.330
3783,-0.550,-0.305
3784,-0.575,-0.285
3785,-0.585,-0.280
3786,-0.580,-0.270
3787,-0.580,-0.275
3788,-0.570,-0.270
3789,-0.580,-0.270
3790,-0.575,-0.275
3791,-0.590,-0.275
3792,-0.590,-0.290
3793,-0.590,-0.285
3794,-0.595,-0.270
3795,-0.590,-0.265
3796,-0.575,-0.275
3797,-0.570,-0.265
3798,-0.545,-0.250
3799,-0.550,-0.245
3800,-0.525,-0.260
3801,-0.525,-0.270
3802,-0.515,-0.280
3803,-0.525,-0.285
3804,-0.535,-0.295
3805,-0.520,-0.290
3806,-0.520,-0.285
3807,-0.510,-0.275
3808,-0.505,-0.250
3809,-0.490,-0.240
3810,-0.470,-0.245
3811,-0.455,-0.235
3812,-0.440,-0.240
3813,-0.430,-0.240
3814,-0.445,-0.235
3815,-0.435,-0.250
3816,-0.435,-0.245
3817,-0.435,-0.250
3818,-0.440,-0.235
3819,-0.435,-0.220
3820,-0.420,-0.205
3821,-0.410,-0.195
3822,-0.405,-0.180
3823,-0.405,-0.160
3824,-0.400,-0.175
3825,-0.390,-0.155
3826,-0.390,-0.165
3827,-0.395,-0.165
3828,-0.395,-0.150
3829,-0.405,-0.155
3830,-0.405,-0.135
3831,-0.405,-0.120
3832,-0.385,-0.115
3833,-0.375,-0.090
3834,-0.360,-0.075
3835,-0.355,-0.070
3836,-0.345,-0.070
3837,-0.335,-0.060
3838,-0.340,-0.065
3839,-0.335,-0.055
3840,-0.355,-0.050
3841,-0.350,-0.035
3842,-0.345,-0.025
3843,-0.335,0.000
3844,-0.325,0.000
3845,-0.300,0.020
3846,-0.270,0.040
3847,-0.250,0.040
3848,-0.250,0.040
3849,-0.235,0.035
3850,-0.225,0.045
3851,-0.230,0.035
3852,-0.255,0.030
3853,-0.255,0.015
3854,-0.230,0.025
3855,-0.235,0.035
3856,-0.230,0.025
3857,-0.225,0.020
3858,-0.225,0.020
3859,-0.235,0.005
3860,-0.240,-0.015
3861,-0.250,-0.030
3862,-0.260,-0.045
3863,-0.285,-0.065
3864,-0.290,-0.080
3865,-0.305,-0.095
3866,-0.315,-0.100
3867,-0.305,-0.115
3868,-0.315,-0.120
3869,-0.320,-0.125
3870,-0.315,-0.135
3871,-0.310,-0.125
3872,-0.315,-0.150
3873,-0.320,-0.165
3874,-0.320,-0.160
3875,-0.330,-0.185
3876,-0.335,-0.200
3877,-0.340,-0.210
3878,-0.335,-0.200
3879,-0.345,-0.190
3880,-0.335,-0.180
3881,-0.325,-0.190
3882,-0.310,-0.190
3883,-0.305,-0.180
3884,-0.310,-0.185
3885,-0.300,-0.200
3886,-0.295,-0.205
3887,-0.305,-0.210
3888,-0.305,-0.220
3889,-0.300,-0.210
3890,-0.310,-0.215
3891,-0.305,-0.210
3892,-0.310,-0.215
3893,-0.290,-0.205
3894,-0.275,-0.190
3895,-0.270,-0.195
3896,-0.270,-0.195
3897,-0.270,-0.200
3898,-0.285,-0.215
3899,-0.280,-0.215
3900,-0.305,-0.230
3901,-0.310,-0.230
3902,-0.305,-0.230
3903,-0.310,-0.225
3904,-0.315,-0.215
3905,-0.305,-0.210
3906,-0.300,-0.205
3907,-0.290,-0.210
3908,-0.295,-0.215
3909,-0.305,-0.220
3910,-0.310,-0.225
3911,-0.320,-0.235
3912,-0.320,-0.245
3913,-0.325,-0.240
3914,-0.330,-0.245
3915,-0.335,-0.240
3916,-0.345,-0.235
3917,-0.345,-0.235
3918,-0.350,-0.220
3919,-0.340,-0.220
3920,-0.350,-0.235
3921,-0.350,-0.225
3922,-0.350,-0.245
3923,-0.370,-0.235
3924,-0.390,-0.250
3925,-0.390,-0.255
3926,-0.405,-0.255
3927,-0.405,-0.245
3928,-0.405,-0.245
3929,-0.390,-0.240
3930,-0.395,-0.235
3931,-0.380,-0.235
3932,-0.395,-0.245
3933,-0.400,-0.230
3934,-0.415,-0.240
3935,-0.415,-0.255
3936,-0.425,-0.255
3937,-0.430,-0.260
3938,-0.430,-0.255
3939,-0.435,-0.255
3940,-0.450,-0.250
3941,-0.420,-0.245
3942,-0.420,-0.240
3943,-0.415,-0.235
3944,-0.425,-0.240
3945,-0.420,-0.245
3946,-0.410,-0.235
3947,-0.420,-0.245
3948,-0.425,-0.255
3949,-0.420,-0.250
3950,-0.410,-0.235
3951,-0.400,-0.220
3952,-0.380,-0.210
3953,-0.365,-0.195
3954,-0.350,-0.185
3955,-0.310,-0.160
3956,-0.300,-0.155
3957,-0.290,-0.155
3958,-0.285,-0.150
3959,-0.285,-0.155
3960,-0.275,-0.155
3961,-0.275,-0.160
3962,-0.275,-0.135
3963,-0.275,-0.125
3964,-0.270,-0.125
3965,-0.280,-0.125
3966,-0.290,-0.125
3967,-0.295,-0.145
3968,-0.315,-0.165
3969,-0.325,-0.175
3970,-0.340,-0.200
3971,-0.345,-0.215
3972,-0.355,-0.235
3973,-0.350,-0.230
3974,-0.360,-0.225
3975,-0.380,-0.220
3976,-0.395,-0.245
3977,-0.400,-0.225
3978,-0.380,-0.235
3979,-0.360,-0.235
3980,-0.355,-0.245
3981,-0.360,-0.245
3982,-0.355,-0.255
3983,-0.375,-0.270
3984,-0.390,-0.295
3985,-0.410,-0.285
3986,-0.410,-0.285
3987,-0.400,-0.300
3988,-0.385,-0.290
3989,-0.355,-0.290
3990,-0.335,-0.275
3991,-0.325,-0.275
3992,-0.320,-0.280
3993,-0.310,-0.270
3994,-0.295,-0.265
3995,-0.300,-0.260
3996,-0.285,-0.265
3997,-0.270,-0.245
3998,-0.265,-0.220
3999,-0.245,-0.200
4000,-0.225,-0.190
4001,-0.215,-0.160
4002,-0.195,-0.140
4003,-0.165,-0.110
4004,-0.135,-0.095
4005,-0.115,-0.085
4006,-0.095,-0.060
4007,-0.080,-0.050
4008,-0.055,-0.035
4009,-0.020,-0.020
4010,0.015,-0.005
4011,0.060,0.005
4012,0.090,0.025
4013,0.130,0.045
4014,0.170,0.070
4015,0.205,0.100
4016,0.230,0.120
4017,0.295,0.170
4018,0.375,0.240
4019,0.490,0.310
4020,0.635,0.410
4021,0.800,0.515
4022,0.990,0.640
4023,1.200,0.755
4024,1.415,0.855
4025,1.610,0.905
4026,1.775,0.860
4027,1.840,0.740
4028,1.780,0.550
4029,1.610,0.345
4030,1.310,0.145
4031,0.880,-0.010
4032,0.395,-0.130
4033,-0.110,-0.230
4034,-0.595,-0.325
4035,-0.955,-0.420
4036,-1.130,-0.500
4037,-1.120,-0.555
4038,-0.980,-0.580
4039,-0.800,-0.580
4040,-0.600,-0.550
4041,-0.450,-0.495
4042,-0.330,-0.440
4043,-0.285,-0.380
4044,-0.280,-0.350
4045,-0.295,-0.295
4046,-0.335,-0.275
4047,-0.355,-0.275
4048,-0.365,-0.265
4049,-0.365,-0.270
4050,-0.355,-0.260
4051,-0.345,-0.255
4052,-0.345,-0.255
4053,-0.345,-0.250
4054,-0.345,-0.255
4055,-0.350,-0.260
4056,-0.370,-0.270
4057,-0.380,-0.285
4058,-0.385,-0.265
4059,-0.385,-0.260
4060,-0.390,-0.245
4061,-0.385,-0.240
4062,-0.375,-0.230
4063,-0.360,-0.220
4064,-0.365,-0.235
4065,-0.365,-0.230
4066,-0.375,-0.230
4067,-0.385,-0.215
4068,-0.385,-0.230
4069,-0.390,-0.235
4070,-0.390,-0.235
4071,-0.380,-0.220
4072,-0.385,-0.210
4073,-0.370,-0.190
4074,-0.365,-0.195
4075,-0.355,-0.190
4076,-0.345,-0.180
4077,-0.335,-0.180
4078,-0.345,-0.180
4079,-0.355,-0.190
4080,-0.350,-0.190
4081,-0.365,-0.195
4082,-0.365,-0.180
4083,-0.365,-0.175
4084,-0.355,-0.165
4085,-0.350,-0.150
4086,-0.355,-0.140
4087,-0.340,-0.140
4088,-0.350,-0.135
4089,-0.350,-0.125
4090,-0.360,-0.120
4091,-0.365,-0.135
4092,-0.370,-0.130
4093,-0.370,-0.115
4094,-0.360,-0.105
4095,-0.355,-0.095
4096,-0.360,-0.075
4097,-0.340,-0.055
4098,-0.340,-0.045
4099,-0.325,-0.025
4100,-0.330,-0.025
4101,-0.320,-0.015
4102,-0.300,-0.015
4103,-0.300,-0.015
4104,-0.320,-0.020
4105,-0.310,-0.020
4106,-0.300,0.000
4107,-0.300,0.010
4108,-0.295,0.025
4109,-0.290,0.035
4110,-0.275,0.045
4111,-0.255,0.055
4112,-0.250,0.055
4113,-0.245,0.060
4114,-0.230,0.050
4115,-0.230,0.045
4116,-0.225,0.055
4117,-0.210,0.025
4118,-0.215,0.050
4119,-0.215,0.060
4120,-0.210,0.040
4121,-0.195,0.045
4122,-0.190,0.045
4123,-0.190,0.045
4124,-0.200,0.020
4125,-0.220,0.005
4126,-0.230,-0.020
4127,-0.235,-0.035
4128,-0.265,-0.060
4129,-0.285,-0.080
4130,-0.320,-0.080
4131,-0.305,-0.095
4132,-0.300,-0.105
4133,-0.295,-0.115
4134,-0.285,-0.110
4135,-0.300,-0.120
4136,-0.295,-0.140
4137,-0.315,-0.155
4138,-0.330,-0.165
4139,-0.345,-0.170
4140,-0.350,-0.190
4141,-0.365,-0.200
4142,-0.370,-0.195
4143,-0.350,-0.195
4144,-0.345,-0.185
4145,-0.340,-0.180
4146,-0.335,-0.185
4147,-0.330,-0.175
4148,-0.330,-0.185
4149,-0.315,-0.200
4150,-0.315,-0.210
4151,-0.320,-0.200
4152,-0.335,-0.205
4153,-0.320,-0.215
4154,-0.330,-0.210
4155,-0.320,-0.215
4156,-0.310,-0.210
4157,-0.300,-0.195
4158,-0.290,-0.180
4159,-0.260,-0.180
4160,-0.265,-0.200
4161,-0.250,-0.200
4162,-0.235,-0.205
4163,-0.245,-0.200
4164,-0.245,-0.200
4165,-0.245,-0.215
4166,-0.230,-0.220
4167,-0.230,-0.210
4168,-0.225,-0.200
4169,-0.220,-0.200
4170,-0.215,-0.205
4171,-0.205,-0.200
4172,-0.195,-0.210
4173,-0.185,-0.205
4174,-0.205,-0.220
4175,-0.195,-0.235
4176,-0.205,-0.230
4177,-0.210,-0.250
4178,-0.210,-0.240
4179,-0.220,-0.230
4180,-0.210,-0.240
4181,-0.205,-0.235
4182,-0.205,-0.240
4183,-0.200,-0.240
4184,-0.200,-0.245
4185,-0.215,-0.250
4186,-0.220,-0.260
4187,-0.230,-0.275
4188,-0.220,-0.280
4189,-0.240,-0.285
4190,-0.255,-0.290
4191,-0.270,-0.280
4192,-0.280,-0.275
4193,-0.290,-0.275
4194,-0.290,-0.275
4195,-0.295,-0.275
4196,-0.315,-0.275
4197,-0.330,-0.275
4198,-0.330,-0.280
4199,-0.350,-0.290
4200,-0.360,-0.305
4201,-0.375,-0.300
4202,-0.370,-0.295
4203,-0.380,-0.300
4204,-0.390,-0.290
4205,-0.385,-0.275
4206,-0.380,-0.275
4207,-0.385,-0.280
4208,-0.395,-0.295
4209,-0.390,-0.285
4210,-0.390,-0.295
4211,-0.410,-0.310
4212,-0.405,-0.305
4213,-0.420,-0.320
4214,-0.425,-0.320
4215,-0.425,-0.320
4216,-0.415,-0.320
4217,-0.415,-0.315
4218,-0.400,-0.310
4219,-0.400,-0.305
4220,-0.390,-0.325
4221,-0.385,-0.310
4222,-0.385,-0.325
4223,-0.390,-0.330
4224,-0.390,-0.335
4225,-0.385,-0.340
4226,-0.380,-0.330
4227,-0.365,-0.325
4228,-0.340,-0.305
4229,-0.320,-0.290
4230,-0.305,-0.275
4231,-0.285,-0.270
4232,-0.275,-0.260
4233,-0.260,-0.240
4234,-0.255,-0.245
4235,-0.260,-0.250
4236,-0.250,-0.250
4237,-0.250,-0.230
4238,-0.255,-0.220
4239,-0.260,-0.200
4240,-0.265,-0.200
4241,-0.275,-0.190
4242,-0.285,-0.175
4243,-0.295,-0.195
4244,-0.305,-0.185
4245,-0.320,-0.210
4246,-0.335,-0.225
4247,-0.375,-0.245
4248,-0.390,-0.255
4249,-0.410,-0.270
4250,-0.430,-0.275
4251,-0.455,-0.285
4252,-0.465,-0.285
4253,-0.470,-0.290
4254,-0.490,-0.285
4255,-0.475,-0.280
4256,-0.470,-0.280
4257,-0.465,-0.305
4258,-0.470,-0.295
4259,-0.490,-0.315
4260,-0.500,-0.335
4261,-0.515,-0.350
4262,-0.530,-0.350
4263,-0.525,-0.350
4264,-0.510,-0.340
4265,-0.475,-0.335
4266,-0.460,-0.320
4267,-0.435,-0.325
4268,-0.415,-0.315
4269,-0.400,-0.305
4270,-0.375,-0.300
4271,-0.380,-0.290
4272,-0.365,-0.290
4273,-0.345,-0.285
4274,-0.325,-0.255
4275,-0.300,-0.245
4276,-0.275,-0.220
4277,-0.260,-0.185
4278,-0.225,-0.165
4279,-0.210,-0.140
4280,-0.175,-0.115
4281,-0.155,-0.090
4282,-0.125,-0.080
4283,-0.100,-0.060
4284,-0.065,-0.055
4285,-0.035,-0.040
4286,0.005,-0.015
4287,0.045,0.010
4288,0.085,0.030
4289,0.125,0.080
4290,0.175,0.120
4291,0.235,0.170
4292,0.325,0.250
4293,0.445,0.330
4294,0.595,0.415
4295,0.755,0.525
4296,0.950,0.640
4297,1.160,0.755
4298,1.380,0.830
4299,1.580,0.840
4300,1.740,0.745
4301,1.805,0.570
4302,1.735,0.365
4303,1.510,0.160
4304,1.145,-0.010
4305,0.640,-0.145
4306,0.055,-0.255
4307,-0.520,-0.365
4308,-0.965,-0.470
4309,-1.200,-0.555
4310,-1.235,-0.585
4311,-1.110,-0.620
4312,-0.910,-0.605
4313,-0.690,-0.560
4314,-0.515,-0.475
4315,-0.400,-0.400
4316,-0.350,-0.335
4317,-0.330,-0.285
4318,-0.360,-0.260
4319,-0.395,-0.255
4320,-0.415,-0.260
4321,-0.445,-0.275
4322,-0.435,-0.270
4323,-0.435,-0.275
4324,-0.425,-0.250
4325,-0.405,-0.265
4326,-0.390,-0.250
4327,-0.390,-0.245
4328,-0.385,-0.250
4329,-0.375,-0.240
4330,-0.365,-0.250
4331,-0.390,-0.260
4332,-0.390,-0.275
4333,-0.390,-0.270
4334,-0.395,-0.255
4335,-0.405,-0.265
4336,-0.400,-0.240
4337,-0.395,-0.245
4338,-0.385,-0.235
4339,-0.375,-0.225
4340,-0.375,-0.235
4341,-0.380,-0.240
4342,-0.385,-0.245
4343,-0.390,-0.240
4344,-0.405,-0.245
4345,-0.405,-0.250
4346,-0.405,-0.245
4347,-0.405,-0.240
4348,-0.400,-0.230
4349,-0.385,-0.225
4350,-0.385,-0.220
4351,-0.385,-0.220
4352,-0.380,-0.200
4353,-0.390,-0.205
4354,-0.400,-0.205
4355,-0.410,-0.195
4356,-0.405,-0.200
4357,-0.410,-0.195
4358,-0.390,-0.195
4359,-0.385,-0.180
4360,-0.375,-0.170
4361,-0.370,-0.160
4362,-0.355,-0.150
4363,-0.350,-0.130
4364,-0.340,-0.130
4365,-0.325,-0.125
4366,-0.340,-0.115
4367,-0.320,-0.115
4368,-0.310,-0.105
4369,-0.315,-0.100
4370,-0.310,-0.090
4371,-0.310,-0.075
4372,-0.295,-0.070
4373,-0.290,-0.050
4374,-0.280,-0.035
4375,-0.265,-0.025
4376,-0.270,-0.025
4377,-0.265,-0.010
4378,-0.265,-0.025
4379,-0.255,-0.015
4380,-0.255,-0.020
4381,-0.255,-0.010
4382,-0.260,-0.010
4383,-0.260,0.000
4384,-0.250,0.010
4385,-0.235,0.030
4386,-0.230,0.030
4387,-0.235,0.020
4388,-0.230,0.020
4389,-0.230,0.005
4390,-0.240,-0.015
4391,-0.255,-0.025
4392,-0.265,-0.045
4393,-0.285,-0.055
4394,-0.300,-0.080
4395,-0.300,-0.085
4396,-0.310,-0.085
4397,-0.320,-0.095
4398,-0.335,-0.105
4399,-0.330,-0.115
4400,-0.325,-0.120
4401,-0.325,-0.140
4402,-0.330,-0.155
4403,-0.330,-0.165
4404,-0.335,-0.180
4405,-0.345,-0.195
4406,-0.355,-0.200
4407,-0.355,-0.215
4408,-0.350,-0.205
4409,-0.345,-0.190
4410,-0.345,-0.190
4411,-0.345,-0.180
4412,-0.355,-0.205
4413,-0.350,-0.210
4414,-0.360,-0.205
4415,-0.365,-0.220
4416,-0.375,-0.235
4417,-0.370,-0.235
4418,-0.370,-0.230
4419,-0.375,-0.220
4420,-0.360,-0.215
4421,-0.360,-0.215
4422,-0.355,-0.210
4423,-0.345,-0.205
4424,-0.345,-0.210
4425,-0.345,-0.205
4426,-0.360,-0.205
4427,-0.350,-0.220
4428,-0.355,-0.225
4429,-0.355,-0.225
4430,-0.340,-0.230
4431,-0.350,-0.220
4432,-0.340,-0.215
4433,-0.320,-0.200
4434,-0.320,-0.205
4435,-0.300,-0.185
4436,-0.300,-0.195
4437,-0.305,-0.195
4438,-0.310,-0.210
4439,-0.325,-0.220
4440,-0.325,-0.225
4441,-0.325,-0.235
4442,-0.330,-0.225
4443,-0.320,-0.235
4444,-0.315,-0.240
4445,-0.300,-0.240
4446,-0.295,-0.225
4447,-0.295,-0.230
4448,-0.295,-0.245
4449,-0.285,-0.245
4450,-0.285,-0.265
4451,-0.295,-0.275
4452,-0.290,-0.290
4453,-0.305,-0.290
4454,-0.305,-0.290
4455,-0.310,-0.290
4456,-0.305,-0.285
4457,-0.305,-0.280
4458,-0.305,-0.285
4459,-0.290,-0.270
4460,-0.295,-0.290
4461,-0.300,-0.290
4462,-0.310,-0.290
4463,-0.310,-0.305
4464,-0.320,-0.310
4465,-0.330,-0.315
4466,-0.325,-0.315
4467,-0.320,-0.310
4468,-0.315,-0.305
4469,-0.295,-0.295
4470,-0.295,-0.285
4471,-0.265,-0.290
4472,-0.270,-0.295
4473,-0.265,-0.290
4474,-0.265,-0.300
4475,-0.270,-0.310
4476,-0.275,-0.340
4477,-0.270,-0.320
4478,-0.270,-0.325
4479,-0.280,-0.330
4480,-0.270,-0.320
4481,-0.270,-0.315
4482,-0.250,-0.310
4483,-0.245,-0.310
4484,-0.230,-0.310
4485,-0.240,-0.315
4486,-0.245,-0.315
4487,-0.255,-0.325
4488,-0.260,-0.330
4489,-0.270,-0.340
4490,-0.270,-0.335
4491,-0.285,-0.325
4492,-0.265,-0.320
4493,-0.250,-0.325
4494,-0.240,-0.315
4495,-0.225,-0.295
4496,-0.230,-0.300
4497,-0.220,-0.300
4498,-0.220,-0.295
4499,-0.215,-0.290
4500,-0.210,-0.295
4501,-0.210,-0.300
4502,-0.220,-0.275
4503,-0.215,-0.280
4504,-0.205,-0.250
4505,-0.175,-0.245
4506,-0.160,-0.230
4507,-0.145,-0.215
4508,-0.140,-0.220
4509,-0.145,-0.200
4510,-0.170,-0.215
4511,-0.180,-0.225
4512,-0.185,-0.235
4513,-0.195,-0.240
4514,-0.200,-0.240
4515,-0.215,-0.245
4516,-0.225,-0.245
4517,-0.200,-0.255
4518,-0.215,-0.250
4519,-0.215,-0.265
4520,-0.220,-0.270
4521,-0.235,-0.280
4522,-0.250,-0.290
4523,-0.265,-0.295
4524,-0.280,-0.305
4525,-0.275,-0.305
4526,-0.285,-0.310
4527,-0.295,-0.305
4528,-0.305,-0.310
4529,-0.315,-0.310
4530,-0.325,-0.305
4531,-0.325,-0.310
4532,-0.320,-0.315
4533,-0.320,-0.310
4534,-0.310,-0.320
4535,-0.315,-0.315
4536,-0.315,-0.325
4537,-0.305,-0.325
4538,-0.305,-0.310
4539,-0.310,-0.305
4540,-0.290,-0.280
4541,-0.280,-0.255
4542,-0.270,-0.240
4543,-0.260,-0.220
4544,-0.255,-0.220
4545,-0.240,-0.205
4546,-0.225,-0.190
4547,-0.225,-0.180
4548,-0.215,-0.170
4549,-0.210,-0.155
4550,-0.185,-0.135
4551,-0.180,-0.110
4552,-0.140,-0.080
4553,-0.115,-0.060
4554,-0.085,-0.040
4555,-0.040,-0.025
4556,-0.005,-0.020
4557,0.040,0.005
4558,0.070,0.010
4559,0.100,0.045
4560,0.135,0.075
4561,0.195,0.115
4562,0.290,0.180
4563,0.415,0.270
4564,0.580,0.370
4565,0.770,0.475
4566,0.985,0.590
4567,1.230,0.700
4568,1.460,0.770
4569,1.660,0.790
4570,1.800,0.720
4571,1.835,0.590
4572,1.745,0.425
4573,1.490,0.250
4574,1.105,0.100
4575,0.580,-0.035
4576,-0.005,-0.150
4577,-0.575,-0.280
4578,-1.005,-0.375
4579,-1.250,-0.470
4580,-1.280,-0.535
4581,-1.165,-0.565
4582,-0.970,-0.600
4583,-0.765,-0.570
4584,-0.610,-0.540
4585,-0.485,-0.485
4586,-0.425,-0.420
4587,-0.400,-0.360
4588,-0.395,-0.315
4589,-0.410,-0.280
4590,-0.440,-0.265
4591,-0.435,-0.265
4592,-0.445,-0.270
4593,-0.435,-0.280
4594,-0.445,-0.285
4595,-0.420,-0.280
4596,-0.425,-0.285
4597,-0.425,-0.290
4598,-0.420,-0.285
4599,-0.430,-0.285
4600,-0.420,-0.265
4601,-0.415,-0.260
4602,-0.405,-0.260
4603,-0.390,-0.250
4604,-0.390,-0.255
4605,-0.385,-0.255
4606,-0.390,-0.255
4607,-0.385,-0.265
4608,-0.410,-0.270
4609,-0.420,-0.280
4610,-0.405,-0.270
4611,-0.415,-0.260
4612,-0.410,-0.255
4613,-0.395,-0.250
4614,-0.390,-0.245
4615,-0.380,-0.245
4616,-0.380,-0.250
4617,-0.370,-0.245
4618,-0.380,-0.245
4619,-0.370,-0.255
4620,-0.370,-0.265
4621,-0.375,-0.270
4622,-0.365,-0.250
4623,-0.350,-0.245
4624,-0.345,-0.235
4625,-0.340,-0.225
4626,-0.330,-0.220
4627,-0.315,-0.210
4628,-0.310,-0.210
4629,-0.300,-0.210
4630,-0.295,-0.205
4631,-0.285,-0.205
4632,-0.295,-0.205
4633,-0.280,-0.190
4634,-0.280,-0.180
4635,-0.265,-0.165
4636,-0.255,-0.145
4637,-0.245,-0.140
4638,-0.235,-0.120
4639,-0.220,-0.110
4640,-0.205,-0.105
4641,-0.200,-0.110
4642,-0.190,-0.105
4643,-0.190,-0.105
4644,-0.185,-0.100
4645,-0.185,-0.105
4646,-0.190,-0.090
4647,-0.185,-0.100
4648,-0.175,-0.065
4649,-0.165,-0.050
4650,-0.160,-0.050
4651,-0.160,-0.030
4652,-0.160,-0.030
4653,-0.165,-0.020
4654,-0.175,-0.015
4655,-0.190,-0.020
4656,-0.190,-0.035
4657,-0.215,-0.030
4658,-0.225,-0.035
4659,-0.235,-0.035
4660,-0.235,-0.030
4661,-0.220,-0.025
4662,-0.230,-0.025
4663,-0.215,-0.035
4664,-0.215,-0.055
4665,-0.210,-0.065
4666,-0.215,-0.085
4667,-0.230,-0.105
4668,-0.235,-0.135
4669,-0.255,-0.135
4670,-0.275,-0.155
4671,-0.280,-0.165
4672,-0.285,-0.170
4673,-0.290,-0.175
4674,-0.290,-0.180
4675,-0.295,-0.195
4676,-0.315,-0.205
4677,-0.325,-0.210
4678,-0.315,-0.230
4679,-0.320,-0.230
4680,-0.335,-0.255
4681,-0.350,-0.260
4682,-0.345,-0.255
4683,-0.355,-0.270
4684,-0.370,-0.255
4685,-0.355,-0.250
4686,-0.350,-0.265
4687,-0.365,-0.260
4688,-0.345,-0.255
4689,-0.350,-0.260
4690,-0.345,-0.275
4691,-0.350,-0.275
4692,-0.350,-0.290
4693,-0.345,-0.285
4694,-0.360,-0.280
4695,-0.350,-0.265
4696,-0.345,-0.260
4697,-0.340,-0.265
4698,-0.320,-0.255
4699,-0.325,-0.245
4700,-0.330,-0.250
4701,-0.320,-0.245
4702,-0.330,-0.265
4703,-0.325,-0.275
4704,-0.335,-0.280
4705,-0.355,-0.290
4706,-0.360,-0.290
4707,-0.370,-0.290
4708,-0.365,-0.275
4709,-0.375,-0.265
4710,-0.375,-0.275
4711,-0.370,-0.260
4712,-0.370,-0.275
4713,-0.370,-0.285
4714,-0.375,-0.275
4715,-0.395,-0.295
4716,-0.390,-0.310
4717,-0.390,-0.305
4718,-0.390,-0.305
4719,-0.390,-0.305
4720,-0.380,-0.310
4721,-0.370,-0.295
4722,-0.365,-0.305
4723,-0.355,-0.290
4724,-0.350,-0.300
4725,-0.335,-0.310
4726,-0.335,-0.315
4727,-0.340,-0.320
4728,-0.345,-0.320
4729,-0.345,-0.335
4730,-0.355,-0.335
4731,-0.350,-0.330
4732,-0.340,-0.320
4733,-0.340,-0.310
4734,-0.335,-0.315
4735,-0.320,-0.305
4736,-0.320,-0.310
4737,-0.340,-0.315
4738,-0.320,-0.315
4739,-0.335,-0.320
4740,-0.330,-0.330
4741,-0.335,-0.335
4742,-0.340,-0.335
4743,-0.345,-0.335
4744,-0.340,-0.335
4745,-0.320,-0.325
4746,-0.335,-0.320
4747,-0.340,-0.310
4748,-0.335,-0.320
4749,-0.330,-0.315
4750,-0.340,-0.330
4751,-0.325,-0.320
4752,-0.345,-0.340
4753,-0.345,-0.330
4754,-0.340,-0.345
4755,-0.345,-0.335
4756,-0.345,-0.325
4757,-0.335,-0.330
4758,-0.335,-0.315
4759,-0.330,-0.310
4760,-0.330,-0.310
4761,-0.325,-0.310
4762,-0.315,-0.310
4763,-0.320,-0.335
4764,-0.320,-0.325
4765,-0.345,-0.325
4766,-0.340,-0.325
4767,-0.335,-0.310
4768,-0.330,-0.310
4769,-0.300,-0.295
4770,-0.300,-0.280
4771,-0.275,-0.265
4772,-0.250,-0.260
4773,-0.245,-0.250
4774,-0.230,-0.245
4775,-0.220,-0.250
4776,-0.215,-0.245
4777,-0.220,-0.235
4778,-0.210,-0.230
4779,-0.195,-0.200
4780,-0.185,-0.185
4781,-0.190,-0.185
4782,-0.175,-0.175
4783,-0.175,-0.180
4784,-0.175,-0.185
4785,-0.185,-0.195
4786,-0.195,-0.220
4787,-0.205,-0.245
4788,-0.215,-0.265
4789,-0.235,-0.275
4790,-0.245,-0.285
4791,-0.255,-0.285
4792,-0.255,-0.275
4793,-0.260,-0.290
4794,-0.275,-0.275
4795,-0.280,-0.280
4796,-0.270,-0.290
4797,-0.275,-0.285
4798,-0.275,-0.300
4799,-0.280,-0.315
4800,-0.305,-0.335
4801,-0.320,-0.350
4802,-0.360,-0.345
4803,-0.360,-0.365
4804,-0.365,-0.350
4805,-0.360,-0.345
4806,-0.330,-0.335
4807,-0.320,-0.330
4808,-0.305,-0.310
4809,-0.300,-0.320
4810,-0.290,-0.320
4811,-0.295,-0.315
4812,-0.295,-0.300
4813,-0.280,-0.300
4814,-0.265,-0.285
4815,-0.265,-0.260
4816,-0.245,-0.245
4817,-0.230,-0.220
4818,-0.215,-0.215
4819,-0.180,-0.175
4820,-0.135,-0.160
4821,-0.125,-0.140
4822,-0.115,-0.125
4823,-0.090,-0.110
4824,-0.045,-0.095
4825,-0.010,-0.075
4826,0.015,-0.060
4827,0.060,-0.040
4828,0.100,-0.010
4829,0.150,0.025
4830,0.195,0.075
4831,0.255,0.110
4832,0.325,0.185
4833,0.420,0.250
4834,0.545,0.325
4835,0.685,0.425
4836,0.870,0.525
4837,1.050,0.610
4838,1.255,0.695
4839,1.440,0.740
4840,1.585,0.730
4841,1.680,0.670
4842,1.690,0.535
4843,1.610,0.380
4844,1.410,0.215
4845,1.105,0.065
4846,0.705,-0.060
4847,0.250,-0.175
4848,-0.230,-0.280
4849,-0.650,-0.365
4850,-0.950,-0.455
4851,-1.085,-0.530
4852,-1.065,-0.565
4853,-0.945,-0.570
4854,-0.785,-0.545
4855,-0.615,-0.490
4856,-0.480,-0.450
4857,-0.405,-0.390
4858,-0.360,-0.350
4859,-0.345,-0.320
4860,-0.360,-0.295
4861,-0.390,-0.285
4862,-0.410,-0.280
4863,-0.420,-0.270
4864,-0.420,-0.260
4865,-0.395,-0.265
4866,-0.385,-0.255
4867,-0.370,-0.240
4868,-0.355,-0.240
4869,-0.345,-0.250
4870,-0.355,-0.245
4871,-0.350,-0.250
4872,-0.360,-0.255
4873,-0.370,-0.265
4874,-0.375,-0.255
4875,-0.385,-0.250
4876,-0.380,-0.240
4877,-0.380,-0.245
4878,-0.375,-0.230
4879,-0.370,-0.225
4880,-0.355,-0.240
4881,-0.355,-0.225
4882,-0.350,-0.240
4883,-0.360,-0.235
4884,-0.355,-0.230
4885,-0.350,-0.235
4886,-0.355,-0.230
4887,-0.340,-0.225
4888,-0.330,-0.220
4889,-0.320,-0.205
4890,-0.315,-0.185
4891,-0.310,-0.195
4892,-0.305,-0.180
4893,-0.295,-0.190
4894,-0.290,-0.195
4895,-0.285,-0.195
4896,-0.285,-0.180
4897,-0.285,-0.185
4898,-0.285,-0.190
4899,-0.275,-0.175
4900,-0.265,-0.175
4901,-0.255,-0.150
4902,-0.245,-0.130
4903,-0.225,-0.120
4904,-0.225,-0.120
4905,-0.230,-0.120
4906,-0.225,-0.110
4907,-0.230,-0.105
4908,-0.230,-0.105
4909,-0.240,-0.105
4910,-0.240,-0.075
4911,-0.240,-0.075
4912,-0.225,-0.065
4913,-0.215,-0.045
4914,-0.200,-0.030
4915,-0.190,-0.020
4916,-0.175,-0.010
4917,-0.165,0.000
4918,-0.160,-0.005
4919,-0.160,0.000
4920,-0.145,0.005
4921,-0.145,0.005
4922,-0.145,0.010
4923,-0.145,0.020
4924,-0.115,0.040
4925,-0.110,0.040
4926,-0.100,0.055
4927,-0.085,0.065
4928,-0.065,0.055
4929,-0.070,0.055
4930,-0.070,0.050
4931,-0.065,0.040
4932,-0.075,0.025
4933,-0.075,0.030
4934,-0.070,0.030
4935,-0.055,0.030
4936,-0.050,0.015
4937,-0.045,0.010
4938,-0.040,0.010
4939,-0.045,-0.010
4940,-0.065,-0.025
4941,-0.065,-0.040
4942,-0.090,-0.060
4943,-0.100,-0.075
4944,-0.100,-0.100
4945,-0.120,-0.125
4946,-0.135,-0.150
4947,-0.150,-0.150
4948,-0.160,-0.170
4949,-0.175,-0.170
4950,-0.180,-0.175
4951,-0.185,-0.190
4952,-0.200,-0.190
4953,-0.205,-0.210
4954,-0.215,-0.210
4955,-0.235,-0.210
4956,-0.240,-0.230
4957,-0.255,-0.245
4958,-0.260,-0.250
4959,-0.270,-0.230
4960,-0.275,-0.230
4961,-0.265,-0.245
4962,-0.260,-0.235
4963,-0.265,-0.225
4964,-0.255,-0.230
4965,-0.250,-0.230
4966,-0.255,-0.235
4967,-0.260,-0.250
4968,-0.270,-0.250
4969,-0.280,-0.250
4970,-0.290,-0.245
4971,-0.290,-0.245
4972,-0.285,-0.235
4973,-0.280,-0.220
4974,-0.280,-0.220
4975,-0.260,-0.215
4976,-0.265,-0.220
4977,-0.260,-0.220
4978,-0.260,-0.215
4979,-0.260,-0.225
4980,-0.260,-0.225
4981,-0.280,-0.220
4982,-0.285,-0.230
4983,-0.275,-0.235
4984,-0.270,-0.225
4985,-0.285,-0.225
4986,-0.290,-0.225
4987,-0.280,-0.215
4988,-0.260,-0.230
4989,-0.265,-0.220
4990,-0.270,-0.225
4991,-0.290,-0.230
4992,-0.290,-0.250
4993,-0.300,-0.250
4994,-0.305,-0.245
4995,-0.315,-0.245
4996,-0.320,-0.250
4997,-0.310,-0.250
4998,-0.295,-0.235
4999,-0.295,-0.230
5000,-0.300,-0.245
5001,-0.305,-0.260
5002,-0.300,-0.255
5003,-0.310,-0.270
5004,-0.315,-0.265
5005,-0.325,-0.280
5006,-0.325,-0.280
5007,-0.325,-0.285
5008,-0.325,-0.290
5009,-0.310,-0.280
5010,-0.305,-0.280
5011,-0.305,-0.280
5012,-0.295,-0.275
5013,-0.305,-0.285
5014,-0.305,-0.305
5015,-0.320,-0.305
5016,-0.320,-0.310
5017,-0.320,-0.305
5018,-0.335,-0.310
5019,-0.340,-0.310
5020,-0.325,-0.310
5021,-0.330,-0.300
5022,-0.325,-0.295
5023,-0.315,-0.295
5024,-0.315,-0.295
5025,-0.310,-0.300
5026,-0.310,-0.305
5027,-0.320,-0.305
5028,-0.325,-0.315
5029,-0.330,-0.325
5030,-0.330,-0.325
5031,-0.335,-0.320
5032,-0.335,-0.325
5033,-0.325,-0.325
5034,-0.315,-0.315
5035,-0.320,-0.305
5036,-0.310,-0.315
5037,-0.310,-0.305
5038,-0.310,-0.315
5039,-0.300,-0.315
5040,-0.315,-0.325
5041,-0.325,-0.325
5042,-0.325,-0.305
5043,-0.305,-0.305
5044,-0.305,-0.285
5045,-0.285,-0.270
5046,-0.280,-0.265
5047,-0.260,-0.250
5048,-0.260,-0.240
5049,-0.230,-0.240
5050,-0.230,-0.245
5051,-0.210,-0.230
5052,-0.210,-0.215
5053,-0.210,-0.215
5054,-0.210,-0.205
5055,-0.205,-0.190
5056,-0.205,-0.180
5057,-0.210,-0.175
5058,-0.225,-0.160
5059,-0.220,-0.170
5060,-0.210,-0.165
5061,-0.220,-0.185
5062,-0.225,-0.200
5063,-0.235,-0.225
5064,-0.235,-0.235
5065,-0.260,-0.265
5066,-0.275,-0.265
5067,-0.285,-0.265
5068,-0.300,-0.275
5069,-0.305,-0.270
5070,-0.300,-0.275
5071,-0.300,-0.255
5072,-0.305,-0.260
5073,-0.300,-0.265
5074,-0.315,-0.265
5075,-0.340,-0.290
5076,-0.345,-0.315
5077,-0.360,-0.325
5078,-0.365,-0.335
5079,-0.375,-0.325
5080,-0.350,-0.305
5081,-0.335,-0.305
5082,-0.325,-0.290
5083,-0.305,-0.285
5084,-0.285,-0.275
5085,-0.285,-0.260
5086,-0.275,-0.265
5087,-0.260,-0.260
5088,-0.255,-0.255
5089,-0.245,-0.250
5090,-0.225,-0.225
5091,-0.220,-0.205
5092,-0.200,-0.185
5093,-0.175,-0.155
5094,-0.150,-0.125
5095,-0.125,-0.100
5096,-0.100,-0.080
5097,-0.070,-0.065
5098,-0.045,-0.055
5099,-0.015,-0.040
5100,0.010,-0.030
5101,0.035,-0.020
5102,0.075,0.000
5103,0.110,0.025
5104,0.155,0.050
5105,0.190,0.100
5106,0.220,0.155
5107,0.305,0.215
5108,0.390,0.295
5109,0.505,0.375
5110,0.665,0.485
5111,0.825,0.580
5112,1.015,0.690
5113,1.215,0.745
5114,1.385,0.745
5115,1.510,0.665
5116,1.575,0.505
5117,1.535,0.290
5118,1.375,0.090
5119,1.100,-0.090
5120,0.695,-0.240
5121,0.185,-0.365
5122,-0.330,-0.445
5123,-0.785,-0.530
5124,-1.055,-0.595
5125,-1.140,-0.635
5126,-1.075,-0.620
5127,-0.900,-0.590
5128,-0.705,-0.540
5129,-0.540,-0.475
5130,-0.420,-0.410
5131,-0.350,-0.350
5132,-0.320,-0.300
5133,-0.335,-0.285
5134,-0.365,-0.275
5135,-0.375,-0.285
5136,-0.390,-0.280
5137,-0.390,-0.280
5138,-0.385,-0.290
5139,-0.370,-0.280
5140,-0.355,-0.270
5141,-0.340,-0.260
5142,-0.325,-0.250
5143,-0.315,-0.240
5144,-0.305,-0.245
5145,-0.315,-0.240
5146,-0.320,-0.255
5147,-0.320,-0.245
5148,-0.310,-0.265
5149,-0.315,-0.270
5150,-0.330,-0.260
5151,-0.330,-0.255
5152,-0.315,-0.255
5153,-0.315,-0.245
5154,-0.315,-0.235
5155,-0.305,-0.235
5156,-0.315,-0.235
5157,-0.310,-0.235
5158,-0.315,-0.230
5159,-0.320,-0.225
5160,-0.335,-0.235
5161,-0.350,-0.235
5162,-0.355,-0.220
5163,-0.365,-0.215
5164,-0.375,-0.195
5165,-0.380,-0.185
5166,-0.380,-0.175
5167,-0.375,-0.165
5168,-0.390,-0.155
5169,-0.385,-0.150
5170,-0.395,-0.145
5171,-0.400,-0.150
5172,-0.420,-0.145
5173,-0.430,-0.135
5174,-0.440,-0.130
5175,-0.435,-0.125
5176,-0.430,-0.115
5177,-0.420,-0.080
5178,-0.400,-0.065
5179,-0.385,-0.060
5180,-0.375,-0.050
5181,-0.380,-0.055
5182,-0.370,-0.040
5183,-0.355,-0.045
5184,-0.350,-0.040
5185,-0.345,-0.035
5186,-0.335,-0.030
5187,-0.330,-0.020
5188,-0.310,-0.005
5189,-0.280,0.010
5190,-0.265,0.010
5191,-0.250,0.030
5192,-0.220,0.035
5193,-0.200,0.025
5194,-0.185,0.035
5195,-0.165,0.025
5196,-0.170,0.030
5197,-0.165,0.035
5198,-0.160,0.030
5199,-0.145,0.045
5200,-0.135,0.040
5201,-0.125,0.035
5202,-0.120,0.055
5203,-0.090,0.070
5204,-0.085,0.065
5205,-0.080,0.040
5206,-0.080,0.030
5207,-0.080,0.015
5208,-0.080,0.000
5209,-0.095,-0.005
5210,-0.100,-0.030
5211,-0.110,-0.035
5212,-0.130,-0.050
5213,-0.140,-0.060
5214,-0.150,-0.070
5215,-0.150,-0.090
5216,-0.175,-0.090
5217,-0.185,-0.120
5218,-0.185,-0.115
5219,-0.205,-0.150
5220,-0.215,-0.155
5221,-0.240,-0.170
5222,-0.255,-0.190
5223,-0.255,-0.190
5224,-0.270,-0.190
5225,-0.265,-0.190
5226,-0.285,-0.190
5227,-0.290,-0.190
5228,-0.290,-0.190
5229,-0.280,-0.205
5230,-0.295,-0.200
5231,-0.310,-0.225
5232,-0.315,-0.230
5233,-0.320,-0.240
5234,-0.330,-0.240
5235,-0.330,-0.235
5236,-0.325,-0.235
5237,-0.320,-0.235
5238,-0.320,-0.235
5239,-0.305,-0.220
5240,-0.305,-0.235
5241,-0.300,-0.230
5242,-0.305,-0.230
5243,-0.295,-0.245
5244,-0.310,-0.255
5245,-0.290,-0.255
5246,-0.290,-0.255
5247,-0.275,-0.245
5248,-0.280,-0.250
5249,-0.275,-0.245
5250,-0.260,-0.235
5251,-0.250,-0.230
5252,-0.245,-0.245
5253,-0.240,-0.245
5254,-0.235,-0.235
5255,-0.245,-0.255
5256,-0.250,-0.265
5257,-0.255,-0.280
5258,-0.250,-0.275
5259,-0.260,-0.265
5260,-0.240,-0.260
5261,-0.235,-0.250
5262,-0.225,-0.245
5263,-0.225,-0.260
5264,-0.225,-0.250
5265,-0.220,-0.260
5266,-0.220,-0.270
5267,-0.220,-0.275
5268,-0.230,-0.270
5269,-0.230,-0.285
5270,-0.230,-0.295
5271,-0.240,-0.295
5272,-0.235,-0.285
5273,-0.235,-0.285
5274,-0.235,-0.285
5275,-0.225,-0.280
5276,-0.220,-0.285
5277,-0.220,-0.285
5278,-0.210,-0.295
5279,-0.225,-0.290
5280,-0.235,-0.310
5281,-0.245,-0.315
5282,-0.245,-0.335
5283,-0.260,-0.330
5284,-0.255,-0.320
5285,-0.265,-0.320
5286,-0.260,-0.330
5287,-0.265,-0.315
5288,-0.265,-0.325
5289,-0.250,-0.330
5290,-0.250,-0.320
5291,-0.255,-0.320
5292,-0.260,-0.350
5293,-0.280,-0.360
5294,-0.280,-0.345
5295,-0.295,-0.350
5296,-0.285,-0.340
5297,-0.275,-0.345
5298,-0.285,-0.335
5299,-0.275,-0.325
5300,-0.265,-0.325
5301,-0.255,-0.335
5302,-0.260,-0.340
5303,-0.275,-0.335
5304,-0.280,-0.355
5305,-0.285,-0.355
5306,-0.290,-0.350
5307,-0.295,-0.355
5308,-0.305,-0.345
5309,-0.300,-0.340
5310,-0.295,-0.330
5311,-0.290,-0.330
5312,-0.275,-0.325
5313,-0.270,-0.315
5314,-0.255,-0.325
5315,-0.255,-0.320
5316,-0.250,-0.335
5317,-0.245,-0.320
5318,-0.240,-0.310
5319,-0.225,-0.290
5320,-0.215,-0.280
5321,-0.205,-0.270
5322,-0.185,-0.250
5323,-0.165,-0.240
5324,-0.145,-0.235
5325,-0.140,-0.225
5326,-0.130,-0.210
5327,-0.125,-0.225
5328,-0.125,-0.220
5329,-0.130,-0.220
5330,-0.135,-0.225
5331,-0.135,-0.220
5332,-0.140,-0.215
5333,-0.140,-0.220
5334,-0.150,-0.225
5335,-0.150,-0.240
5336,-0.160,-0.245
5337,-0.170,-0.280
5338,-0.190,-0.275
5339,-0.195,-0.300
5340,-0.225,-0.310
5341,-0.245,-0.320
5342,-0.260,-0.335
5343,-0.270,-0.320
5344,-0.270,-0.325
5345,-0.285,-0.320
5346,-0.290,-0.315
5347,-0.305,-0.330
5348,-0.310,-0.340
5349,-0.315,-0.355
5350,-0.325,-0.360
5351,-0.335,-0.360
5352,-0.330,-0.365
5353,-0.320,-0.360
5354,-0.315,-0.365
5355,-0.310,-0.350
5356,-0.295,-0.330
5357,-0.275,-0.330
5358,-0.245,-0.305
5359,-0.230,-0.295
5360,-0.205,-0.270
5361,-0.180,-0.255
5362,-0.145,-0.240
5363,-0.135,-0.235
5364,-0.125,-0.215
5365,-0.095,-0.210
5366,-0.080,-0.185
5367,-0.065,-0.160
5368,-0.045,-0.140
5369,-0.015,-0.110
5370,0.020,-0.080
5371,0.055,-0.065
5372,0.090,-0.040
5373,0.120,-0.035
5374,0.155,-0.010
5375,0.195,0.000
5376,0.230,0.025
5377,0.245,0.030
5378,0.300,0.085
5379,0.350,0.155
5380,0.450,0.225
5381,0.590,0.320
5382,0.760,0.435
5383,0.970,0.550
5384,1.215,0.675
5385,1.465,0.780
5386,1.695,0.835
5387,1.905,0.815
5388,2.030,0.710
5389,2.035,0.550
5390,1.885,0.360
5391,1.580,0.170
5392,1.145,0.005
5393,0.570,-0.130
5394,-0.060,-0.255
5395,-0.615,-0.360
5396,-1.010,-0.475
5397,-1.165,-0.565
5398,-1.125,-0.615
5399,-0.930,-0.625
5400,-0.705,-0.600
5401,-0.495,-0.535
5402,-0.315,-0.475
5403,-0.220,-0.405
5404,-0.160,-0.350
5405,-0.175,-0.295
5406,-0.215,-0.265
5407,-0.245,-0.255
5408,-0.265,-0.260
5409,-0.275,-0.270
5410,-0.265,-0.265
5411,-0.255,-0.285
5412,-0.245,-0.290
5413,-0.245,-0.295
5414,-0.240,-0.285
5415,-0.225,-0.285
5416,-0.225,-0.280
5417,-0.210,-0.270
5418,-0.200,-0.270
5419,-0.200,-0.265
5420,-0.200,-0.255
5421,-0.215,-0.265
5422,-0.225,-0.265
5423,-0.245,-0.270
5424,-0.250,-0.270
5425,-0.250,-0.270
5426,-0.230,-0.260
5427,-0.210,-0.270
5428,-0.205,-0.265
5429,-0.200,-0.265
5430,-0.205,-0.255
5431,-0.205,-0.245
5432,-0.200,-0.245
5433,-0.190,-0.255
5434,-0.200,-0.245
5435,-0.205,-0.255
5436,-0.255,-0.255
5437,-0.260,-0.260
5438,-0.285,-0.255
5439,-0.285,-0.245
5440,-0.280,-0.235
5441,-0.250,-0.235
5442,-0.230,-0.225
5443,-0.210,-0.215
5444,-0.205,-0.220
5445,-0.190,-0.205
5446,-0.185,-0.205
5447,-0.195,-0.205
5448,-0.200,-0.215
5449,-0.195,-0.205
5450,-0.195,-0.195
5451,-0.180,-0.180
5452,-0.180,-0.175
5453,-0.170,-0.155
5454,-0.150,-0.135
5455,-0.130,-0.125
5456,-0.110,-0.110
5457,-0.100,-0.105
5458,-0.110,-0.095
5459,-0.100,-0.090
5460,-0.095,-0.075
5461,-0.095,-0.080
5462,-0.100,-0.080
5463,-0.100,-0.055
5464,-0.085,-0.055
5465,-0.080,-0.035
5466,-0.065,-0.010
5467,-0.060,-0.005
5468,-0.045,0.000
5469,-0.040,0.005
5470,-0.040,0.005
5471,-0.030,0.020
5472,-0.040,0.015
5473,-0.045,0.015
5474,-0.055,0.015
5475,-0.060,0.010
5476,-0.055,0.025
5477,-0.040,0.025
5478,-0.030,0.030
5479,-0.015,0.020
5480,-0.010,0.020
5481,-0.015,0.000
5482,-0.005,-0.010
5483,-0.025,-0.040
5484,-0.040,-0.050
5485,-0.060,-0.060
5486,-0.075,-0.080
5487,-0.085,-0.105
5488,-0.090,-0.105
5489,-0.100,-0.115
5490,-0.100,-0.120
5491,-0.095,-0.130
5492,-0.100,-0.155
5493,-0.110,-0.160
5494,-0.125,-0.170
5495,-0.135,-0.190
5496,-0.140,-0.195
5497,-0.160,-0.210
5498,-0.165,-0.210
5499,-0.175,-0.215
5500,-0.170,-0.215
5501,-0.160,-0.210
5502,-0.160,-0.210
5503,-0.175,-0.210
5504,-0.165,-0.210
5505,-0.170,-0.205
5506,-0.175,-0.210
5507,-0.175,-0.205
5508,-0.185,-0.220
5509,-0.185,-0.230
5510,-0.190,-0.225
5511,-0.195,-0.230
5512,-0.200,-0.235
5513,-0.195,-0.215
5514,-0.180,-0.210
5515,-0.170,-0.205
5516,-0.170,-0.200
5517,-0.155,-0.200
5518,-0.160,-0.205
5519,-0.160,-0.210
5520,-0.165,-0.215
5521,-0.175,-0.220
5522,-0.175,-0.220
5523,-0.180,-0.200
5524,-0.170,-0.200
5525,-0.165,-0.195
5526,-0.155,-0.185
5527,-0.145,-0.175
5528,-0.150,-0.180
5529,-0.140,-0.190
5530,-0.155,-0.200
5531,-0.150,-0.205
5532,-0.160,-0.210
5533,-0.160,-0.220
5534,-0.160,-0.215
5535,-0.170,-0.230
5536,-0.175,-0.220
5537,-0.165,-0.220
5538,-0.160,-0.210
5539,-0.165,-0.215
5540,-0.145,-0.210
5541,-0.150,-0.215
5542,-0.160,-0.230
5543,-0.170,-0.230
5544,-0.185,-0.240
5545,-0.190,-0.245
5546,-0.205,-0.255
5547,-0.215,-0.260
5548,-0.205,-0.260
5549,-0.195,-0.250
5550,-0.200,-0.240
5551,-0.200,-0.230
5552,-0.195,-0.245
5553,-0.200,-0.245
5554,-0.195,-0.250
5555,-0.200,-0.255
5556,-0.195,-0.260
5557,-0.205,-0.275
5558,-0.220,-0.280
5559,-0.225,-0.270
5560,-0.235,-0.280
5561,-0.225,-0.270
5562,-0.235,-0.260
5563,-0.225,-0.255
5564,-0.220,-0.255
5565,-0.225,-0.265
5566,-0.235,-0.265
5567,-0.240,-0.270
5568,-0.265,-0.275
5569,-0.260,-0.285
5570,-0.265,-0.290
5571,-0.270,-0.285
5572,-0.280,-0.275
5573,-0.280,-0.275
5574,-0.255,-0.265
5575,-0.240,-0.250
5576,-0.245,-0.260
5577,-0.245,-0.255
5578,-0.250,-0.270
5579,-0.250,-0.280
5580,-0.260,-0.270
5581,-0.265,-0.285
5582,-0.275,-0.275
5583,-0.270,-0.285
5584,-0.275,-0.280
5585,-0.270,-0.270
5586,-0.270,-0.265
5587,-0.255,-0.265
5588,-0.245,-0.255
5589,-0.245,-0.250
5590,-0.230,-0.245
5591,-0.225,-0.245
5592,-0.230,-0.245
5593,-0.215,-0.230
5594,-0.205,-0.240
5595,-0.200,-0.225
5596,-0.190,-0.210
5597,-0.175,-0.205
5598,-0.155,-0.180
5599,-0.145,-0.165
5600,-0.120,-0.145
5601,-0.110,-0.155
5602,-0.105,-0.145
5603,-0.115,-0.155
5604,-0.120,-0.155
5605,-0.130,-0.170
5606,-0.155,-0.190
5607,-0.145,-0.185
5608,-0.160,-0.200
5609,-0.160,-0.195
5610,-0.155,-0.195
5611,-0.150,-0.205
5612,-0.160,-0.215
5613,-0.180,-0.230
5614,-0.200,-0.230
5615,-0.215,-0.250
5616,-0.230,-0.255
5617,-0.240,-0.270
5618,-0.255,-0.275
5619,-0.255,-0.275
5620,-0.260,-0.260
5621,-0.280,-0.270
5622,-0.285,-0.285
5623,-0.300,-0.290
5624,-0.300,-0.280
5625,-0.300,-0.285
5626,-0.295,-0.300
5627,-0.305,-0.290
5628,-0.315,-0.305
5629,-0.325,-0.305
5630,-0.335,-0.320
5631,-0.345,-0.320
5632,-0.350,-0.320
5633,-0.350,-0.305
5634,-0.350,-0.310
5635,-0.355,-0.305
5636,-0.355,-0.305
5637,-0.360,-0.295
5638,-0.360,-0.290
5639,-0.370,-0.295
5640,-0.345,-0.295
5641,-0.350,-0.300
5642,-0.340,-0.305
5643,-0.335,-0.290
5644,-0.335,-0.290
5645,-0.315,-0.275
5646,-0.305,-0.265
5647,-0.285,-0.270
5648,-0.265,-0.240
5649,-0.260,-0.235
5650,-0.240,-0.220
5651,-0.225,-0.200
5652,-0.205,-0.175
5653,-0.160,-0.135
5654,-0.080,-0.085
5655,0.040,-0.010
5656,0.195,0.075
5657,0.400,0.185
5658,0.640,0.290
5659,0.890,0.380
5660,1.125,0.405
5661,1.310,0.355
5662,1.445,0.225
5663,1.470,0.015
5664,1.375,-0.215
5665,1.160,-0.440
5666,0.815,-0.640
5667,0.390,-0.785
5668,-0.105,-0.885
5669,-0.620,-0.955
5670,-1.065,-1.000
5671,-1.355,-1.050
5672,-1.460,-1.050
5673,-1.355,-1.020
5674,-1.130,-0.960
5675,-0.860,-0.880
5676,-0.610,-0.780
5677,-0.415,-0.660
5678,-0.285,-0.545
5679,-0.210,-0.410
5680,-0.180,-0.310
5681,-0.175,-0.225
5682,-0.165,-0.175
5683,-0.175,-0.140
5684,-0.165,-0.130
5685,-0.160,-0.125
5686,-0.160,-0.115
5687,-0.135,-0.115
5688,-0.135,-0.110
5689,-0.125,-0.115
5690,-0.120,-0.095
5691,-0.100,-0.095
5692,-0.095,-0.070
5693,-0.075,-0.070
5694,-0.055,-0.055
5695,-0.050,-0.045
5696,-0.040,-0.040
5697,-0.050,-0.045
5698,-0.040,-0.045
5699,-0.050,-0.055
5700,-0.035,-0.055
5701,-0.025,-0.060
5702,-0.020,-0.075
5703,-0.020,-0.055
5704,-0.010,-0.035
5705,0.010,-0.020
5706,0.020,-0.005
5707,0.035,0.015
5708,0.045,0.030
5709,0.055,0.020
5710,0.060,0.020
5711,0.055,0.025
5712,0.055,0.015
5713,0.060,0.025
5714,0.055,0.030
5715,0.060,0.050
5716,0.065,0.055
5717,0.085,0.080
5718,0.075,0.115
5719,0.095,0.130
5720,0.105,0.140
5721,0.115,0.160
5722,0.130,0.175
5723,0.125,0.190
5724,0.125,0.200
5725,0.125,0.210
5726,0.130,0.230
5727,0.150,0.250
5728,0.165,0.280
5729,0.185,0.315
5730,0.195,0.340
5731,0.220,0.355
5732,0.245,0.375
5733,0.255,0.395
5734,0.270,0.410
5735,0.265,0.415
5736,0.260,0.435
5737,0.260,0.435
5738,0.275,0.460
5739,0.280,0.465
5740,0.295,0.485
5741,0.320,0.505
5742,0.345,0.515
5743,0.360,0.515
5744,0.380,0.520
5745,0.390,0.520
5746,0.395,0.520
5747,0.395,0.510
5748,0.375,0.500
5749,0.370,0.490
5750,0.360,0.480
5751,0.355,0.480
5752,0.345,0.475
5753,0.340,0.465
5754,0.340,0.445
5755,0.345,0.445
5756,0.340,0.435
5757,0.340,0.405
5758,0.335,0.375
5759,0.320,0.340
5760,0.305,0.305
5761,0.285,0.260
5762,0.265,0.215
5763,0.245,0.180
5764,0.215,0.150
5765,0.195,0.120
5766,0.190,0.095
5767,0.180,0.065
5768,0.160,0.035
5769,0.125,0.000
5770,0.110,-0.040
5771,0.065,-0.060
5772,0.025,-0.100
5773,-0.010,-0.115
5774,-0.035,-0.145
5775,-0.070,-0.150
5776,-0.095,-0.155
5777,-0.100,-0.175
5778,-0.115,-0.170
5779,-0.125,-0.180
5780,-0.120,-0.185
5781,-0.130,-0.195
5782,-0.135,-0.195
5783,-0.130,-0.205
5784,-0.140,-0.205
5785,-0.140,-0.215
5786,-0.160,-0.215
5787,-0.160,-0.220
5788,-0.155,-0.220
5789,-0.160,-0.190
5790,-0.155,-0.175
5791,-0.135,-0.190
5792,-0.135,-0.185
5793,-0.140,-0.175
5794,-0.160,-0.175
5795,-0.160,-0.180
5796,-0.175,-0.180
5797,-0.195,-0.200
5798,-0.200,-0.195
5799,-0.210,-0.200
5800,-0.230,-0.185
5801,-0.220,-0.175
5802,-0.220,-0.165
5803,-0.220,-0.160
5804,-0.225,-0.165
5805,-0.220,-0.165
5806,-0.220,-0.155
5807,-0.230,-0.175
5808,-0.235,-0.175
5809,-0.245,-0.190
5810,-0.260,-0.195
5811,-0.260,-0.195
5812,-0.240,-0.190
5813,-0.220,-0.190
5814,-0.200,-0.185
5815,-0.200,-0.170
5816,-0.185,-0.170
5817,-0.175,-0.175
5818,-0.170,-0.180
5819,-0.170,-0.195
5820,-0.175,-0.195
5821,-0.185,-0.195
5822,-0.185,-0.210
5823,-0.190,-0.210
5824,-0.190,-0.210
5825,-0.180,-0.210
5826,-0.195,-0.205
5827,-0.210,-0.205
5828,-0.195,-0.200
5829,-0.210,-0.195
5830,-0.210,-0.200
5831,-0.225,-0.215
5832,-0.225,-0.220
5833,-0.230,-0.225
5834,-0.230,-0.230
5835,-0.225,-0.230
5836,-0.230,-0.230
5837,-0.225,-0.220
5838,-0.220,-0.210
5839,-0.195,-0.220
5840,-0.200,-0.215
5841,-0.190,-0.225
5842,-0.185,-0.225
5843,-0.195,-0.230
5844,-0.205,-0.245
5845,-0.200,-0.250
5846,-0.195,-0.250
5847,-0.205,-0.245
5848,-0.185,-0.245
5849,-0.190,-0.230
5850,-0.185,-0.230
5851,-0.180,-0.210
5852,-0.160,-0.200
5853,-0.165,-0.200
5854,-0.155,-0.195
5855,-0.150,-0.200
5856,-0.140,-0.215
5857,-0.140,-0.195
5858,-0.130,-0.190
5859,-0.135,-0.175
5860,-0.125,-0.175
5861,-0.115,-0.150
5862,-0.100,-0.135
5863,-0.085,-0.120
5864,-0.070,-0.095
5865,-0.055,-0.095
5866,-0.055,-0.090
5867,-0.060,-0.095
5868,-0.080,-0.105
5869,-0.085,-0.120
5870,-0.100,-0.115
5871,-0.130,-0.125
5872,-0.145,-0.125
5873,-0.150,-0.135
5874,-0.145,-0.140
5875,-0.140,-0.145
5876,-0.140,-0.145
5877,-0.155,-0.160
5878,-0.180,-0.180
5879,-0.195,-0.185
5880,-0.210,-0.185
5881,-0.215,-0.195
5882,-0.225,-0.200
5883,-0.230,-0.200
5884,-0.235,-0.205
5885,-0.245,-0.205
5886,-0.260,-0.210
5887,-0.265,-0.215
5888,-0.270,-0.215
5889,-0.275,-0.230
5890,-0.260,-0.220
5891,-0.255,-0.235
5892,-0.265,-0.240
5893,-0.275,-0.250
5894,-0.265,-0.255
5895,-0.270,-0.255
5896,-0.280,-0.250
5897,-0.285,-0.240
5898,-0.280,-0.240
5899,-0.270,-0.225
5900,-0.255,-0.230
5901,-0.260,-0.230
5902,-0.260,-0.235
5903,-0.270,-0.230
5904,-0.280,-0.235
5905,-0.280,-0.245
5906,-0.280,-0.235
5907,-0.285,-0.235
5908,-0.280,-0.220
5909,-0.280,-0.225
5910,-0.260,-0.220
5911,-0.250,-0.190
5912,-0.250,-0.190
5913,-0.245,-0.180
5914,-0.250,-0.170
5915,-0.235,-0.165
5916,-0.230,-0.150
5917,-0.200,-0.120
5918,-0.155,-0.075
5919,-0.065,-0.005
5920,0.055,0.070
5921,0.215,0.165
5922,0.430,0.255
5923,0.675,0.370
5924,0.905,0.410
5925,1.120,0.415
5926,1.275,0.335
5927,1.370,0.175
5928,1.340,-0.035
5929,1.180,-0.255
5930,0.885,-0.445
5931,0.470,-0.605
5932,-0.020,-0.735
5933,-0.555,-0.820
5934,-1.045,-0.895
5935,-1.390,-0.940
5936,-1.530,-0.950
5937,-1.435,-0.915
5938,-1.180,-0.870
5939,-0.890,-0.780
5940,-0.595,-0.685
5941,-0.370,-0.575
5942,-0.215,-0.435
5943,-0.135,-0.320
5944,-0.105,-0.215
5945,-0.115,-0.135
5946,-0.120,-0.085
5947,-0.150,-0.050
5948,-0.160,-0.040
5949,-0.165,-0.025
5950,-0.170,-0.020
5951,-0.170,-0.025
5952,-0.185,-0.025
5953,-0.205,-0.025
5954,-0.205,-0.020
5955,-0.200,0.015
5956,-0.195,0.015
5957,-0.200,0.030
5958,-0.200,0.050
5959,-0.200,0.065
5960,-0.185,0.080
5961,-0.190,0.065
5962,-0.185,0.070
5963,-0.190,0.060
5964,-0.200,0.065
5965,-0.210,0.065
5966,-0.205,0.065
5967,-0.210,0.075
5968,-0.205,0.075
5969,-0.205,0.095
5970,-0.195,0.105
5971,-0.190,0.120
5972,-0.185,0.135
5973,-0.170,0.135
5974,-0.165,0.140
5975,-0.160,0.135
5976,-0.175,0.145
5977,-0.180,0.155
5978,-0.175,0.155
5979,-0.165,0.175
5980,-0.165,0.200
5981,-0.180,0.215
5982,-0.175,0.250
5983,-0.150,0.260
5984,-0.130,0.285
5985,-0.125,0.300
5986,-0.100,0.320
5987,-0.095,0.320
5988,-0.085,0.340
5989,-0.085,0.360
5990,-0.070,0.365
5991,-0.050,0.395
5992,-0.040,0.430
5993,-0.005,0.435
5994,0.025,0.460
5995,0.055,0.485
5996,0.070,0.515
5997,0.095,0.515
5998,0.110,0.540
5999,0.115,0.540
6000,0.120,0.560
6001,0.130,0.565
6002,0.140,0.575
6003,0.170,0.590
6004,0.185,0.595
6005,0.210,0.610
6006,0.230,0.610
6007,0.230,0.635
6008,0.270,0.650
6009,0.265,0.635
6010,0.280,0.630
6011,0.280,0.625
6012,0.290,0.600
6013,0.290,0.595
6014,0.285,0.585
6015,0.280,0.570
6016,0.265,0.560
6017,0.270,0.540
6018,0.270,0.525
6019,0.255,0.495
6020,0.255,0.485
6021,0.230,0.430
6022,0.210,0.400
6023,0.190,0.350
6024,0.155,0.305
6025,0.110,0.270
6026,0.065,0.245
6027,0.040,0.210
6028,0.010,0.185
6029,-0.005,0.155
6030,-0.025,0.140
6031,-0.055,0.125
6032,-0.080,0.090
6033,-0.105,0.055
6034,-0.120,0.035
6035,-0.130,0.005
6036,-0.150,-0.010
6037,-0.180,-0.035
6038,-0.190,-0.050
6039,-0.200,-0.055
6040,-0.210,-0.065
6041,-0.215,-0.065
6042,-0.225,-0.060
6043,-0.210,-0.055
6044,-0.220,-0.065
6045,-0.225,-0.065
6046,-0.215,-0.075
6047,-0.215,-0.095
6048,-0.215,-0.095
6049,-0.230,-0.095
6050,-0.220,-0.100
6051,-0.225,-0.090
6052,-0.215,-0.080
6053,-0.210,-0.090
6054,-0.205,-0.075
6055,-0.205,-0.085
6056,-0.205,-0.070
6057,-0.210,-0.075
6058,-0.200,-0.085
6059,-0.195,-0.085
6060,-0.210,-0.090
6061,-0.215,-0.095
6062,-0.210,-0.095
6063,-0.200,-0.095
6064,-0.210,-0.100
6065,-0.205,-0.085
6066,-0.200,-0.085
6067,-0.200,-0.080
6068,-0.195,-0.085
6069,-0.200,-0.090
6070,-0.195,-0.085
6071,-0.200,-0.090
6072,-0.200,-0.110
6073,-0.190,-0.100
6074,-0.215,-0.105
6075,-0.215,-0.100
6076,-0.225,-0.115
6077,-0.225,-0.110
6078,-0.220,-0.110
6079,-0.225,-0.110
6080,-0.230,-0.095
6081,-0.225,-0.110
6082,-0.215,-0.120
6083,-0.220,-0.130
6084,-0.240,-0.135
6085,-0.240,-0.150
6086,-0.255,-0.160
6087,-0.250,-0.155
6088,-0.260,-0.165
6089,-0.275,-0.155
6090,-0.255,-0.150
6091,-0.250,-0.150
6092,-0.245,-0.140
6093,-0.250,-0.145
6094,-0.245,-0.160
6095,-0.255,-0.155
6096,-0.250,-0.190
6097,-0.255,-0.185
6098,-0.270,-0.180
6099,-0.260,-0.180
6100,-0.255,-0.185
6101,-0.255,-0.180
6102,-0.255,-0.175
6103,-0.255,-0.170
6104,-0.245,-0.165
6105,-0.245,-0.180
6106,-0.255,-0.190
6107,-0.265,-0.190
6108,-0.265,-0.195
6109,-0.265,-0.205
6110,-0.280,-0.210
6111,-0.285,-0.215
6112,-0.280,-0.210
6113,-0.295,-0.205
6114,-0.290,-0.200
6115,-0.305,-0.200
6116,-0.285,-0.195
6117,-0.285,-0.195
6118,-0.285,-0.205
6119,-0.285,-0.215
6120,-0.295,-0.215
6121,-0.295,-0.215
6122,-0.290,-0.210
6123,-0.290,-0.210
6124,-0.280,-0.195
6125,-0.260,-0.185
6126,-0.240,-0.160
6127,-0.230,-0.150
6128,-0.215,-0.145
6129,-0.195,-0.145
6130,-0.180,-0.140
6131,-0.180,-0.135
6132,-0.170,-0.145
6133,-0.160,-0.125
6134,-0.160,-0.120
6135,-0.150,-0.110
6136,-0.155,-0.110
6137,-0.170,-0.120
6138,-0.175,-0.115
6139,-0.190,-0.130
6140,-0.195,-0.130
6141,-0.190,-0.145
6142,-0.180,-0.160
6143,-0.205,-0.175
6144,-0.235,-0.190
6145,-0.240,-0.205
6146,-0.255,-0.210
6147,-0.275,-0.220
6148,-0.295,-0.220
6149,-0.300,-0.215
6150,-0.300,-0.210
6151,-0.310,-0.205
6152,-0.310,-0.210
6153,-0.305,-0.220
6154,-0.320,-0.225
6155,-0.325,-0.240
6156,-0.340,-0.265
6157,-0.345,-0.270
6158,-0.360,-0.285
6159,-0.360,-0.280
6160,-0.360,-0.270
6161,-0.355,-0.270
6162,-0.355,-0.265
6163,-0.355,-0.265
6164,-0.355,-0.260
6165,-0.340,-0.265
6166,-0.340,-0.270
6167,-0.325,-0.260
6168,-0.335,-0.270
6169,-0.330,-0.285
6170,-0.335,-0.275
6171,-0.325,-0.280
6172,-0.315,-0.265
6173,-0.310,-0.265
6174,-0.320,-0.250
6175,-0.290,-0.235
6176,-0.270,-0.215
6177,-0.275,-0.215
6178,-0.275,-0.215
6179,-0.265,-0.220
6180,-0.275,-0.215
6181,-0.280,-0.220
6182,-0.280,-0.190
6183,-0.270,-0.160
6184,-0.240,-0.125
6185,-0.175,-0.050
6186,-0.080,0.010
6187,0.055,0.090
6188,0.225,0.175
6189,0.435,0.270
6190,0.670,0.345
6191,0.905,0.370
6192,1.120,0.345
6193,1.270,0.235
6194,1.345,0.060
6195,1.310,-0.155
6196,1.150,-0.375
6197,0.840,-0.580
6198,0.425,-0.740
6199,-0.095,-0.855
6200,-0.665,-0.930
6201,-1.200,-1.015
6202,-1.600,-1.090
6203,-1.760,-1.100
6204,-1.645,-1.040
6205,-1.345,-0.940
6206,-1.010,-0.830
6207,-0.700,-0.695
6208,-0.455,-0.550
6209,-0.300,-0.410
6210,-0.235,-0.290
6211,-0.225,-0.205
6212,-0.235,-0.145
6213,-0.270,-0.120
6214,-0.285,-0.115
6215,-0.290,-0.100
6216,-0.285,-0.105
6217,-0.275,-0.110
6218,-0.270,-0.090
6219,-0.255,-0.080
6220,-0.245,-0.070
6221,-0.235,-0.070
6222,-0.215,-0.040
6223,-0.215,-0.020
6224,-0.210,-0.020
6225,-0.205,-0.015
6226,-0.210,-0.020
6227,-0.215,-0.010
6228,-0.225,-0.030
6229,-0.230,-0.035
6230,-0.235,-0.020
6231,-0.230,-0.015
6232,-0.225,0.005
6233,-0.225,0.025
6234,-0.210,0.030
6235,-0.200,0.050
6236,-0.195,0.050
6237,-0.185,0.065
6238,-0.180,0.075
6239,-0.175,0.070
6240,-0.180,0.080
6241,-0.170,0.085
6242,-0.165,0.090
6243,-0.150,0.100
6244,-0.160,0.115
6245,-0.150,0.145
6246,-0.130,0.155
6247,-0.125,0.180
6248,-0.105,0.215
6249,-0.080,0.220
6250,-0.070,0.240
6251,-0.060,0.260
6252,-0.040,0.275
6253,-0.035,0.285
6254,-0.030,0.300
6255,-0.030,0.310
6256,-0.015,0.340
6257,0.000,0.365
6258,0.010,0.395
6259,0.045,0.420
6260,0.065,0.445
6261,0.075,0.465
6262,0.085,0.470
6263,0.105,0.485
6264,0.105,0.490
6265,0.115,0.505
6266,0.100,0.515
6267,0.110,0.525
6268,0.125,0.530
6269,0.130,0.540
6270,0.130,0.560
6271,0.140,0.570
6272,0.130,0.585
6273,0.135,0.570
6274,0.135,0.570
6275,0.130,0.555
6276,0.135,0.550
6277,0.130,0.530
6278,0.105,0.525
6279,0.115,0.500
6280,0.100,0.480
6281,0.095,0.465
6282,0.085,0.450
6283,0.085,0.435
6284,0.075,0.405
6285,0.060,0.375
6286,0.045,0.340
6287,0.025,0.310
6288,-0.005,0.260
6289,-0.035,0.215
6290,-0.065,0.175
6291,-0.090,0.130
6292,-0.135,0.115
6293,-0.150,0.080
6294,-0.165,0.055
6295,-0.185,0.035
6296,-0.185,0.020
6297,-0.195,-0.005
6298,-0.210,-0.030
6299,-0.225,-0.055
6300,-0.235,-0.080
6301,-0.260,-0.090
6302,-0.280,-0.115
6303,-0.290,-0.125
6304,-0.295,-0.140
6305,-0.300,-0.125
6306,-0.310,-0.135
6307,-0.295,-0.125
6308,-0.295,-0.115
6309,-0.285,-0.140
6310,-0.270,-0.150
6311,-0.280,-0.140
6312,-0.275,-0.150
6313,-0.295,-0.160
6314,-0.290,-0.155
6315,-0.300,-0.160
6316,-0.300,-0.150
6317,-0.295,-0.145
6318,-0.295,-0.130
6319,-0.285,-0.125
6320,-0.290,-0.120
6321,-0.280,-0.125
6322,-0.280,-0.125
6323,-0.285,-0.120
6324,-0.290,-0.130
6325,-0.305,-0.145
6326,-0.305,-0.145
6327,-0.305,-0.145
6328,-0.310,-0.150
6329,-0.300,-0.140
6330,-0.300,-0.160
6331,-0.295,-0.130
6332,-0.295,-0.140
6333,-0.290,-0.125
6334,-0.290,-0.135
6335,-0.285,-0.140
6336,-0.305,-0.150
6337,-0.310,-0.160
6338,-0.330,-0.175
6339,-0.340,-0.180
6340,-0.350,-0.170
6341,-0.330,-0.165
6342,-0.320,-0.180
6343,-0.315,-0.165
6344,-0.315,-0.160
6345,-0.310,-0.165
6346,-0.305,-0.170
6347,-0.305,-0.170
6348,-0.305,-0.190
6349,-0.320,-0.190
6350,-0.325,-0.195
6351,-0.325,-0.210
6352,-0.330,-0.190
6353,-0.330,-0.205
6354,-0.320,-0.185
6355,-0.325,-0.185
6356,-0.320,-0.190
6357,-0.335,-0.190
6358,-0.320,-0.210
6359,-0.325,-0.205
6360,-0.330,-0.220
6361,-0.350,-0.225
6362,-0.355,-0.235
6363,-0.360,-0.230
6364,-0.355,-0.230
6365,-0.360,-0.235
6366,-0.350,-0.240
6367,-0.340,-0.220
6368,-0.335,-0.215
6369,-0.335,-0.220
6370,-0.345,-0.235
6371,-0.355,-0.240
6372,-0.345,-0.235
6373,-0.355,-0.250
6374,-0.360,-0.235
6375,-0.370,-0.255
6376,-0.365,-0.235
6377,-0.360,-0.230
6378,-0.360,-0.225
6379,-0.355,-0.230
6380,-0.350,-0.215
6381,-0.350,-0.220
6382,-0.360,-0.225
6383,-0.355,-0.225
6384,-0.370,-0.240
6385,-0.370,-0.245
6386,-0.370,-0.240
6387,-0.360,-0.230
6388,-0.355,-0.225
6389,-0.350,-0.210
6390,-0.335,-0.200
6391,-0.305,-0.190
6392,-0.290,-0.175
6393,-0.275,-0.165
6394,-0.270,-0.165
6395,-0.265,-0.155
6396,-0.255,-0.160
6397,-0.250,-0.150
6398,-0.235,-0.125
6399,-0.230,-0.140
6400,-0.220,-0.110
6401,-0.220,-0.110
6402,-0.210,-0.100
6403,-0.225,-0.100
6404,-0.225,-0.100
6405,-0.230,-0.125
6406,-0.245,-0.140
6407,-0.250,-0.140
6408,-0.250,-0.165
6409,-0.265,-0.175
6410,-0.295,-0.195
6411,-0.300,-0.215
6412,-0.320,-0.215
6413,-0.350,-0.220
6414,-0.350,-0.220
6415,-0.350,-0.210
6416,-0.345,-0.215
6417,-0.350,-0.220
6418,-0.360,-0.225
6419,-0.375,-0.240
6420,-0.410,-0.255
6421,-0.430,-0.265
6422,-0.455,-0.285
6423,-0.455,-0.285
6424,-0.450,-0.275
6425,-0.450,-0.280
6426,-0.440,-0.280
6427,-0.425,-0.275
6428,-0.410,-0.260
6429,-0.410,-0.265
6430,-0.410,-0.280
6431,-0.415,-0.270
6432,-0.415,-0.290
6433,-0.430,-0.280
6434,-0.435,-0.295
6435,-0.430,-0.285
6436,-0.440,-0.270
6437,-0.430,-0.280
6438,-0.425,-0.270
6439,-0.420,-0.260
6440,-0.405,-0.255
6441,-0.395,-0.245
6442,-0.400,-0.250
6443,-0.395,-0.255
6444,-0.385,-0.255
6445,-0.405,-0.245
6446,-0.415,-0.245
6447,-0.415,-0.240
6448,-0.400,-0.195
6449,-0.390,-0.155
6450,-0.340,-0.100
6451,-0.245,-0.035
6452,-0.125,0.045
6453,0.040,0.120
6454,0.260,0.205
6455,0.480,0.295
6456,0.720,0.350
6457,0.935,0.350
6458,1.105,0.280
6459,1.195,0.120
6460,1.190,-0.080
6461,1.055,-0.295
6462,0.805,-0.505
6463,0.415,-0.670
6464,-0.055,-0.795
6465,-0.610,-0.890
6466,-1.135,-0.990
6467,-1.545,-1.080
6468,-1.755,-1.090
6469,-1.695,-1.060
6470,-1.425,-0.970
