'sample interval','MLII','V1'
'0.00277778 sec','mV','mV'
0,-0.095,0.010
1,-0.095,0.010
2,-0.095,0.010
3,-0.095,0.010
4,-0.095,0.010
5,-0.095,0.010
6,-0.095,0.010
7,-0.095,0.010
8,-0.095,0.010
9,-0.090,0.020
10,-0.085,0.040
11,-0.070,0.030
12,-0.060,0.035
13,-0.040,0.020
14,-0.030,0.015
15,-0.015,0.000
16,0.010,0.000
17,0.055,0.005
18,0.095,0.005
19,0.150,0.000
20,0.215,0.010
21,0.290,0.010
22,0.365,0.005
23,0.445,-0.010
24,0.545,-0.005
25,0.640,-0.025
26,0.755,-0.035
27,0.850,-0.055
28,0.895,-0.100
29,0.875,-0.150
30,0.745,-0.205
31,0.490,-0.280
32,0.130,-0.340
33,-0.325,-0.390
34,-0.765,-0.400
35,-1.150,-0.410
36,-1.450,-0.400
37,-1.670,-0.400
38,-1.825,-0.435
39,-1.955,-0.455
40,-2.065,-0.470
41,-2.150,-0.460
42,-2.230,-0.415
43,-2.265,-0.320
44,-2.290,-0.210
45,-2.255,-0.045
46,-2.215,0.120
47,-2.140,0.300
48,-2.050,0.455
49,-1.930,0.595
50,-1.820,0.715
51,-1.715,0.805
52,-1.590,0.870
53,-1.505,0.915
54,-1.430,0.955
55,-1.360,0.995
56,-1.290,1.025
57,-1.210,1.035
58,-1.110,1.005
59,-0.995,0.955
60,-0.880,0.850
61,-0.780,0.680
62,-0.700,0.460
63,-0.630,0.225
64,-0.575,-0.010
65,-0.530,-0.205
66,-0.490,-0.350
67,-0.445,-0.425
68,-0.345,-0.440
69,-0.230,-0.420
70,-0.090,-0.360
71,0.035,-0.310
72,0.185,-0.260
73,0.270,-0.205
74,0.330,-0.170
75,0.350,-0.130
76,0.350,-0.115
77,0.325,-0.110
78,0.300,-0.110
79,0.310,-0.130
80,0.315,-0.115
81,0.330,-0.110
82,0.350,-0.105
83,0.375,-0.105
84,0.395,-0.090
85,0.390,-0.090
86,0.410,-0.095
87,0.435,-0.095
88,0.445,-0.110
89,0.450,-0.115
90,0.460,-0.130
91,0.465,-0.135
92,0.480,-0.140
93,0.480,-0.140
94,0.510,-0.130
95,0.535,-0.110
96,0.560,-0.100
97,0.575,-0.115
98,0.610,-0.105
99,0.630,-0.110
100,0.635,-0.130
101,0.640,-0.135
102,0.655,-0.145
103,0.670,-0.155
104,0.685,-0.150
105,0.705,-0.145
106,0.725,-0.140
107,0.750,-0.130
108,0.775,-0.130
109,0.805,-0.120
110,0.825,-0.140
111,0.850,-0.150
112,0.860,-0.170
113,0.865,-0.180
114,0.875,-0.170
115,0.895,-0.175
116,0.910,-0.185
117,0.925,-0.170
118,0.935,-0.185
119,0.945,-0.180
120,0.950,-0.195
121,0.950,-0.200
122,0.945,-0.210
123,0.940,-0.220
124,0.940,-0.225
125,0.925,-0.240
126,0.905,-0.250
127,0.880,-0.265
128,0.850,-0.260
129,0.820,-0.260
130,0.810,-0.260
131,0.780,-0.270
132,0.760,-0.260
133,0.735,-0.255
134,0.700,-0.255
135,0.665,-0.245
136,0.625,-0.245
137,0.585,-0.255
138,0.550,-0.265
139,0.505,-0.265
140,0.470,-0.255
141,0.430,-0.230
142,0.400,-0.220
143,0.390,-0.195
144,0.360,-0.170
145,0.340,-0.160
146,0.310,-0.140
147,0.280,-0.120
148,0.240,-0.120
149,0.210,-0.100
150,0.180,-0.095
151,0.155,-0.080
152,0.130,-0.070
153,0.105,-0.055
154,0.090,-0.035
155,0.085,-0.015
156,0.065,0.005
157,0.060,0.020
158,0.040,0.030
159,0.025,0.015
160,0.015,0.020
161,-0.005,0.010
162,-0.020,0.005
163,-0.010,0.010
164,-0.020,0.020
165,-0.020,0.020
166,-0.020,0.035
167,-0.010,0.035
168,0.000,0.045
169,0.010,0.025
170,0.000,0.025
171,-0.005,0.035
172,-0.005,0.030
173,-0.010,0.035
174,-0.010,0.025
175,-0.020,0.020
176,-0.010,0.025
177,-0.010,0.030
178,-0.015,0.030
179,-0.005,0.025
180,-0.005,0.030
181,0.005,0.050
182,-0.005,0.040
183,-0.010,0.035
184,-0.015,0.020
185,-0.025,0.025
186,-0.040,0.025
187,-0.040,0.010
188,-0.040,0.020
189,-0.050,0.020
190,-0.045,0.025
191,-0.050,0.040
192,-0.030,0.050
193,-0.030,0.055
194,-0.025,0.045
195,-0.035,0.045
196,-0.050,0.035
197,-0.055,0.020
198,-0.060,0.005
199,-0.070,-0.005
200,-0.070,-0.005
201,-0.065,0.015
202,-0.055,0.025
203,-0.045,0.040
204,-0.040,0.045
205,-0.040,0.050
206,-0.050,0.035
207,-0.055,0.030
208,-0.060,0.010
209,-0.065,0.005
210,-0.080,0.000
211,-0.080,-0.005
212,-0.075,0.015
213,-0.095,0.015
214,-0.085,0.015
215,-0.070,0.025
216,-0.065,0.030
217,-0.055,0.025
218,-0.060,0.005
219,-0.075,0.005
220,-0.075,0.010
221,-0.095,0.000
222,-0.085,0.015
223,-0.100,0.005
224,-0.100,0.000
225,-0.090,0.005
226,-0.090,0.005
227,-0.085,0.010
228,-0.085,0.000
229,-0.070,0.005
230,-0.100,0.015
231,-0.085,0.010
232,-0.075,-0.005
233,-0.085,-0.010
234,-0.085,0.000
235,-0.100,-0.020
236,-0.100,-0.015
237,-0.100,-0.010
238,-0.090,-0.020
239,-0.100,-0.010
240,-0.085,0.005
241,-0.080,0.015
242,-0.090,0.010
243,-0.095,0.020
244,-0.085,0.005
245,-0.085,-0.015
246,-0.085,-0.015
247,-0.095,-0.020
248,-0.095,-0.015
249,-0.090,-0.005
250,-0.090,0.000
251,-0.090,0.015
252,-0.080,0.000
253,-0.075,0.010
254,-0.080,0.010
255,-0.060,0.005
256,-0.040,0.005
257,-0.035,0.025
258,-0.030,0.055
259,-0.010,0.070
260,0.010,0.115
261,0.025,0.145
262,0.045,0.185
263,0.065,0.185
264,0.080,0.175
265,0.100,0.190
266,0.120,0.165
267,0.145,0.155
268,0.180,0.125
269,0.200,0.085
270,0.215,0.065
271,0.215,0.040
272,0.215,0.010
273,0.180,0.000
274,0.155,-0.015
275,0.145,0.005
276,0.155,0.000
277,0.165,0.010
278,0.170,0.010
279,0.170,-0.015
280,0.150,-0.050
281,0.125,-0.080
282,0.095,-0.110
283,0.055,-0.115
284,0.030,-0.115
285,0.000,-0.080
286,-0.025,-0.045
287,-0.035,-0.030
288,-0.045,-0.020
289,-0.045,-0.005
290,-0.065,-0.020
291,-0.085,-0.015
292,-0.115,-0.040
293,-0.140,-0.040
294,-0.145,-0.050
295,-0.145,-0.045
296,-0.155,-0.040
297,-0.135,-0.035
298,-0.135,-0.040
299,-0.135,-0.045
300,-0.130,-0.045
301,-0.105,-0.045
302,-0.105,-0.055
303,-0.095,-0.045
304,-0.105,-0.040
305,-0.110,-0.020
306,-0.115,0.000
307,-0.100,0.020
308,-0.050,0.080
309,0.030,0.105
310,0.170,0.130
311,0.360,0.075
312,0.545,0.005
313,0.755,-0.125
314,0.955,-0.325
315,1.135,-0.560
316,1.300,-0.855
317,1.460,-1.215
318,1.580,-1.570
319,1.655,-1.890
320,1.680,-2.120
321,1.650,-2.220
322,1.570,-2.205
323,1.420,-2.110
324,1.195,-1.960
325,0.910,-1.765
326,0.610,-1.550
327,0.340,-1.305
328,0.130,-1.060
329,-0.015,-0.855
330,-0.090,-0.680
331,-0.135,-0.575
332,-0.150,-0.475
333,-0.170,-0.410
334,-0.180,-0.325
335,-0.200,-0.265
336,-0.235,-0.185
337,-0.280,-0.120
338,-0.300,-0.085
339,-0.310,-0.040
340,-0.320,-0.025
341,-0.330,-0.005
342,-0.330,0.005
343,-0.340,0.000
344,-0.345,0.005
345,-0.350,0.030
346,-0.345,0.040
347,-0.345,0.055
348,-0.350,0.060
349,-0.355,0.085
350,-0.350,0.070
351,-0.355,0.085
352,-0.355,0.075
353,-0.355,0.090
354,-0.365,0.085
355,-0.380,0.095
356,-0.380,0.100
357,-0.385,0.095
358,-0.380,0.110
359,-0.370,0.115
360,-0.370,0.140
361,-0.360,0.165
362,-0.370,0.175
363,-0.375,0.190
364,-0.385,0.175
365,-0.385,0.175
366,-0.385,0.175
367,-0.405,0.165
368,-0.400,0.170
369,-0.405,0.190
370,-0.410,0.215
371,-0.410,0.230
372,-0.420,0.245
373,-0.425,0.275
374,-0.420,0.260
375,-0.425,0.240
376,-0.445,0.250
377,-0.455,0.255
378,-0.475,0.250
379,-0.490,0.270
380,-0.495,0.265
381,-0.510,0.295
382,-0.525,0.325
383,-0.525,0.325
384,-0.535,0.330
385,-0.555,0.345
386,-0.560,0.340
387,-0.575,0.345
388,-0.600,0.345
389,-0.630,0.350
390,-0.655,0.360
391,-0.665,0.360
392,-0.665,0.375
393,-0.680,0.390
394,-0.695,0.405
395,-0.695,0.405
396,-0.700,0.410
397,-0.700,0.415
398,-0.700,0.420
399,-0.705,0.420
400,-0.720,0.420
401,-0.720,0.420
402,-0.715,0.425
403,-0.715,0.415
404,-0.705,0.415
405,-0.685,0.405
406,-0.670,0.405
407,-0.650,0.400
408,-0.635,0.405
409,-0.605,0.400
410,-0.590,0.385
411,-0.555,0.365
412,-0.545,0.345
413,-0.520,0.320
414,-0.500,0.290
415,-0.475,0.255
416,-0.435,0.235
417,-0.410,0.230
418,-0.370,0.225
419,-0.345,0.210
420,-0.325,0.205
421,-0.295,0.195
422,-0.275,0.155
423,-0.255,0.150
424,-0.245,0.120
425,-0.230,0.090
426,-0.220,0.070
427,-0.220,0.060
428,-0.200,0.050
429,-0.190,0.060
430,-0.185,0.065
431,-0.180,0.070
432,-0.170,0.065
433,-0.170,0.055
434,-0.165,0.045
435,-0.150,0.035
436,-0.160,0.030
437,-0.165,0.020
438,-0.180,0.025
439,-0.175,0.020
440,-0.170,0.025
441,-0.175,0.035
442,-0.160,0.040
443,-0.155,0.035
444,-0.165,0.035
445,-0.150,0.035
446,-0.150,0.035
447,-0.165,0.040
448,-0.165,0.025
449,-0.185,0.035
450,-0.175,0.030
451,-0.190,0.035
452,-0.195,0.035
453,-0.190,0.035
454,-0.195,0.040
455,-0.170,0.040
456,-0.160,0.035
457,-0.160,0.045
458,-0.165,0.055
459,-0.165,0.050
460,-0.160,0.055
461,-0.185,0.045
462,-0.190,0.050
463,-0.195,0.050
464,-0.185,0.035
465,-0.190,0.035
466,-0.150,0.045
467,-0.135,0.055
468,-0.105,0.070
469,-0.075,0.080
470,-0.050,0.085
471,-0.025,0.100
472,-0.005,0.125
473,0.000,0.145
474,0.025,0.175
475,0.035,0.195
476,0.065,0.235
477,0.085,0.275
478,0.125,0.305
479,0.175,0.320
480,0.225,0.355
481,0.300,0.370
482,0.380,0.375
483,0.495,0.380
484,0.600,0.335
485,0.715,0.280
486,0.800,0.220
487,0.870,0.155
488,0.930,0.105
489,0.980,0.065
490,1.020,0.025
491,1.105,0.000
492,1.195,-0.025
493,1.285,-0.075
494,1.390,-0.135
495,1.465,-0.220
496,1.515,-0.335
497,1.550,-0.460
498,1.545,-0.605
499,1.500,-0.730
500,1.385,-0.855
501,1.195,-0.950
502,0.885,-1.030
503,0.495,-1.105
504,0.040,-1.195
505,-0.460,-1.310
506,-0.905,-1.420
507,-1.265,-1.565
508,-1.545,-1.660
509,-1.680,-1.705
510,-1.700,-1.710
511,-1.655,-1.650
512,-1.565,-1.575
513,-1.440,-1.475
514,-1.300,-1.340
515,-1.200,-1.235
516,-1.100,-1.080
517,-1.010,-0.925
518,-0.920,-0.765
519,-0.805,-0.595
520,-0.700,-0.445
521,-0.585,-0.330
522,-0.500,-0.250
523,-0.455,-0.175
524,-0.430,-0.130
525,-0.420,-0.100
526,-0.420,-0.065
527,-0.425,-0.040
528,-0.430,-0.020
529,-0.420,-0.005
530,-0.410,0.010
531,-0.410,0.005
532,-0.405,0.015
533,-0.405,0.015
534,-0.415,0.000
535,-0.410,0.010
536,-0.420,0.015
537,-0.430,0.045
538,-0.430,0.055
539,-0.415,0.060
540,-0.415,0.075
541,-0.390,0.075
542,-0.400,0.070
543,-0.400,0.080
544,-0.405,0.085
545,-0.420,0.085
546,-0.415,0.095
547,-0.415,0.080
548,-0.425,0.100
549,-0.425,0.110
550,-0.425,0.120
551,-0.430,0.120
552,-0.430,0.125
553,-0.420,0.135
554,-0.415,0.145
555,-0.415,0.150
556,-0.420,0.170
557,-0.420,0.175
558,-0.430,0.160
559,-0.435,0.170
560,-0.435,0.175
561,-0.430,0.195
562,-0.430,0.220
563,-0.415,0.245
564,-0.410,0.265
565,-0.405,0.275
566,-0.405,0.285
567,-0.375,0.295
568,-0.370,0.300
569,-0.375,0.310
570,-0.360,0.325
571,-0.350,0.330
572,-0.330,0.340
573,-0.325,0.370
574,-0.305,0.385
575,-0.285,0.410
576,-0.270,0.425
577,-0.245,0.440
578,-0.235,0.435
579,-0.225,0.440
580,-0.205,0.430
581,-0.200,0.420
582,-0.200,0.425
583,-0.190,0.435
584,-0.185,0.435
585,-0.175,0.445
586,-0.170,0.435
587,-0.170,0.445
588,-0.160,0.445
589,-0.145,0.430
590,-0.155,0.425
591,-0.150,0.415
592,-0.160,0.395
593,-0.175,0.380
594,-0.190,0.350
595,-0.200,0.345
596,-0.230,0.325
597,-0.245,0.315
598,-0.240,0.295
599,-0.245,0.285
600,-0.250,0.260
601,-0.275,0.255
602,-0.285,0.240
603,-0.305,0.220
604,-0.315,0.205
605,-0.335,0.175
606,-0.350,0.145
607,-0.350,0.140
608,-0.365,0.120
609,-0.360,0.110
610,-0.370,0.110
611,-0.365,0.120
612,-0.365,0.130
613,-0.365,0.130
614,-0.355,0.115
615,-0.375,0.110
616,-0.380,0.090
617,-0.380,0.085
618,-0.380,0.080
619,-0.390,0.075
620,-0.395,0.075
621,-0.410,0.080
622,-0.400,0.090
623,-0.400,0.100
624,-0.395,0.090
625,-0.390,0.110
626,-0.380,0.105
627,-0.380,0.105
628,-0.375,0.085
629,-0.395,0.075
630,-0.400,0.065
631,-0.415,0.065
632,-0.420,0.065
633,-0.415,0.080
634,-0.400,0.095
635,-0.400,0.110
636,-0.385,0.115
637,-0.375,0.105
638,-0.370,0.105
639,-0.380,0.105
640,-0.380,0.085
641,-0.385,0.085
642,-0.395,0.090
643,-0.410,0.085
644,-0.415,0.090
645,-0.400,0.085
646,-0.400,0.085
647,-0.390,0.095
648,-0.395,0.100
649,-0.375,0.100
650,-0.385,0.095
651,-0.385,0.090
652,-0.390,0.085
653,-0.395,0.090
654,-0.405,0.070
655,-0.410,0.055
656,-0.410,0.060
657,-0.420,0.065
658,-0.430,0.085
659,-0.425,0.080
660,-0.415,0.085
661,-0.405,0.095
662,-0.400,0.095
663,-0.405,0.095
664,-0.410,0.065
665,-0.415,0.060
666,-0.425,0.055
667,-0.415,0.060
668,-0.435,0.055
669,-0.425,0.050
670,-0.425,0.060
671,-0.415,0.085
672,-0.415,0.085
673,-0.410,0.080
674,-0.410,0.095
675,-0.420,0.070
676,-0.410,0.065
677,-0.420,0.055
678,-0.430,0.040
679,-0.435,0.055
680,-0.420,0.055
681,-0.405,0.070
682,-0.390,0.095
683,-0.370,0.115
684,-0.355,0.145
685,-0.330,0.170
686,-0.320,0.195
687,-0.310,0.225
688,-0.300,0.240
689,-0.280,0.240
690,-0.280,0.235
691,-0.275,0.235
692,-0.265,0.240
693,-0.235,0.220
694,-0.195,0.205
695,-0.175,0.200
696,-0.145,0.185
697,-0.115,0.155
698,-0.110,0.125
699,-0.135,0.105
700,-0.155,0.075
701,-0.185,0.065
702,-0.205,0.070
703,-0.205,0.060
704,-0.220,0.045
705,-0.200,0.045
706,-0.195,0.030
707,-0.195,0.005
708,-0.200,-0.005
709,-0.225,-0.015
710,-0.270,-0.035
711,-0.300,-0.035
712,-0.335,-0.040
713,-0.375,-0.015
714,-0.400,-0.010
715,-0.415,0.000
716,-0.435,0.010
717,-0.445,0.005
718,-0.450,0.015
719,-0.465,0.025
720,-0.475,0.035
721,-0.465,0.045
722,-0.490,0.040
723,-0.495,0.040
724,-0.495,0.025
725,-0.510,0.005
726,-0.500,0.005
727,-0.510,0.000
728,-0.515,0.000
729,-0.505,0.000
730,-0.500,0.015
731,-0.495,0.015
732,-0.485,0.035
733,-0.480,0.020
734,-0.490,0.045
735,-0.470,0.070
736,-0.460,0.090
737,-0.430,0.130
738,-0.360,0.160
739,-0.245,0.195
740,-0.090,0.170
741,0.110,0.080
742,0.315,-0.030
743,0.515,-0.195
744,0.695,-0.395
745,0.865,-0.650
746,1.035,-0.980
747,1.165,-1.350
748,1.285,-1.715
749,1.340,-2.015
750,1.345,-2.210
751,1.290,-2.265
752,1.165,-2.220
753,1.000,-2.110
754,0.760,-1.940
755,0.470,-1.760
756,0.190,-1.530
757,-0.055,-1.270
758,-0.235,-1.020
759,-0.360,-0.770
760,-0.440,-0.615
761,-0.480,-0.475
762,-0.510,-0.405
763,-0.530,-0.345
764,-0.550,-0.275
765,-0.580,-0.210
766,-0.620,-0.120
767,-0.630,-0.050
768,-0.650,0.025
769,-0.660,0.065
770,-0.660,0.075
771,-0.665,0.090
772,-0.670,0.080
773,-0.680,0.070
774,-0.695,0.085
775,-0.690,0.090
776,-0.710,0.110
777,-0.715,0.120
778,-0.705,0.140
779,-0.705,0.155
780,-0.700,0.180
781,-0.705,0.175
782,-0.700,0.180
783,-0.705,0.175
784,-0.700,0.180
785,-0.720,0.190
786,-0.735,0.175
787,-0.735,0.200
788,-0.745,0.200
789,-0.740,0.225
790,-0.725,0.235
791,-0.725,0.240
792,-0.715,0.245
793,-0.725,0.260
794,-0.715,0.245
795,-0.720,0.265
796,-0.720,0.255
797,-0.740,0.260
798,-0.745,0.280
799,-0.745,0.275
800,-0.755,0.280
801,-0.755,0.295
802,-0.755,0.295
803,-0.760,0.315
804,-0.755,0.330
805,-0.750,0.345
806,-0.760,0.345
807,-0.770,0.355
808,-0.790,0.365
809,-0.800,0.375
810,-0.810,0.375
811,-0.830,0.380
812,-0.840,0.380
813,-0.845,0.390
814,-0.865,0.410
815,-0.870,0.410
816,-0.875,0.435
817,-0.870,0.445
818,-0.900,0.455
819,-0.905,0.465
820,-0.925,0.480
821,-0.940,0.465
822,-0.950,0.465
823,-0.970,0.465
824,-0.985,0.470
825,-1.005,0.480
826,-1.000,0.495
827,-1.000,0.520
828,-1.000,0.530
829,-1.010,0.540
830,-1.010,0.530
831,-1.005,0.525
832,-1.000,0.505
833,-0.995,0.505
834,-0.985,0.490
835,-0.985,0.490
836,-0.985,0.485
837,-0.955,0.490
838,-0.935,0.485
839,-0.915,0.480
840,-0.875,0.475
841,-0.850,0.445
842,-0.825,0.430
843,-0.805,0.405
844,-0.780,0.370
845,-0.760,0.355
846,-0.735,0.330
847,-0.715,0.315
848,-0.705,0.290
849,-0.685,0.290
850,-0.660,0.265
851,-0.625,0.245
852,-0.605,0.220
853,-0.575,0.215
854,-0.565,0.195
855,-0.560,0.175
856,-0.560,0.170
857,-0.555,0.155
858,-0.555,0.125
859,-0.550,0.120
860,-0.545,0.120
861,-0.545,0.115
862,-0.535,0.125
863,-0.530,0.120
864,-0.525,0.115
865,-0.510,0.125
866,-0.510,0.130
867,-0.515,0.120
868,-0.510,0.100
869,-0.510,0.095
870,-0.525,0.080
871,-0.530,0.090
872,-0.530,0.095
873,-0.530,0.085
874,-0.520,0.100
875,-0.530,0.115
876,-0.520,0.130
877,-0.505,0.130
878,-0.500,0.130
879,-0.500,0.115
880,-0.520,0.115
881,-0.515,0.105
882,-0.525,0.100
883,-0.530,0.100
884,-0.530,0.100
885,-0.530,0.115
886,-0.525,0.125
887,-0.520,0.120
888,-0.510,0.135
889,-0.505,0.140
890,-0.500,0.135
891,-0.500,0.140
892,-0.520,0.125
893,-0.520,0.125
894,-0.535,0.120
895,-0.540,0.130
896,-0.520,0.135
897,-0.510,0.150
898,-0.500,0.155
899,-0.485,0.175
900,-0.465,0.200
901,-0.440,0.230
902,-0.415,0.260
903,-0.400,0.295
904,-0.380,0.300
905,-0.380,0.295
906,-0.360,0.305
907,-0.360,0.300
908,-0.335,0.290
909,-0.315,0.300
910,-0.275,0.285
911,-0.230,0.280
912,-0.185,0.265
913,-0.160,0.230
914,-0.170,0.185
915,-0.180,0.160
916,-0.205,0.120
917,-0.225,0.100
918,-0.245,0.095
919,-0.245,0.095
920,-0.240,0.085
921,-0.235,0.070
922,-0.235,0.070
923,-0.250,0.050
924,-0.275,0.025
925,-0.295,0.010
926,-0.335,0.005
927,-0.375,0.025
928,-0.410,0.045
929,-0.440,0.055
930,-0.465,0.065
931,-0.470,0.065
932,-0.500,0.070
933,-0.500,0.070
934,-0.525,0.075
935,-0.535,0.085
936,-0.530,0.080
937,-0.525,0.075
938,-0.525,0.060
939,-0.530,0.060
940,-0.510,0.065
941,-0.525,0.045
942,-0.525,0.055
943,-0.535,0.030
944,-0.535,0.040
945,-0.525,0.035
946,-0.505,0.045
947,-0.515,0.045
948,-0.505,0.065
949,-0.485,0.095
950,-0.480,0.135
951,-0.460,0.175
952,-0.415,0.220
953,-0.325,0.235
954,-0.185,0.235
955,0.000,0.175
956,0.195,0.060
957,0.400,-0.090
958,0.610,-0.255
959,0.790,-0.510
960,0.945,-0.795
961,1.105,-1.150
962,1.225,-1.540
963,1.315,-1.885
964,1.335,-2.130
965,1.305,-2.280
966,1.225,-2.305
967,1.095,-2.220
968,0.900,-2.085
969,0.655,-1.910
970,0.370,-1.700
971,0.095,-1.460
972,-0.120,-1.200
973,-0.275,-0.935
974,-0.380,-0.735
975,-0.445,-0.560
976,-0.475,-0.450
977,-0.500,-0.365
978,-0.525,-0.295
979,-0.540,-0.215
980,-0.570,-0.145
981,-0.600,-0.065
982,-0.625,-0.010
983,-0.630,0.040
984,-0.625,0.085
985,-0.630,0.105
986,-0.620,0.110
987,-0.630,0.120
988,-0.625,0.125
989,-0.650,0.135
990,-0.645,0.135
991,-0.650,0.125
992,-0.655,0.140
993,-0.655,0.150
994,-0.655,0.170
995,-0.650,0.175
996,-0.645,0.195
997,-0.630,0.215
998,-0.630,0.210
999,-0.650,0.230
1000,-0.660,0.220
1001,-0.665,0.215
1002,-0.670,0.220
1003,-0.675,0.230
1004,-0.680,0.220
1005,-0.670,0.245
1006,-0.650,0.270
1007,-0.650,0.280
1008,-0.635,0.285
1009,-0.645,0.295
1010,-0.645,0.300
1011,-0.645,0.300
1012,-0.665,0.300
1013,-0.665,0.310
1014,-0.685,0.315
1015,-0.690,0.330
1016,-0.695,0.340
1017,-0.685,0.365
1018,-0.695,0.370
1019,-0.700,0.395
1020,-0.685,0.405
1021,-0.695,0.405
1022,-0.715,0.425
1023,-0.720,0.415
1024,-0.735,0.430
1025,-0.750,0.440
1026,-0.765,0.450
1027,-0.770,0.475
1028,-0.775,0.475
1029,-0.785,0.505
1030,-0.790,0.515
1031,-0.795,0.525
1032,-0.805,0.535
1033,-0.795,0.545
1034,-0.820,0.550
1035,-0.810,0.560
1036,-0.805,0.565
1037,-0.820,0.570
1038,-0.835,0.570
1039,-0.835,0.565
1040,-0.845,0.565
1041,-0.840,0.580
1042,-0.830,0.580
1043,-0.815,0.595
1044,-0.800,0.595
1045,-0.780,0.590
1046,-0.770,0.575
1047,-0.750,0.570
1048,-0.740,0.545
1049,-0.720,0.520
1050,-0.715,0.500
1051,-0.695,0.480
1052,-0.680,0.440
1053,-0.645,0.435
1054,-0.625,0.420
1055,-0.605,0.405
1056,-0.575,0.385
1057,-0.550,0.360
1058,-0.540,0.330
1059,-0.520,0.295
1060,-0.515,0.270
1061,-0.505,0.240
1062,-0.490,0.215
1063,-0.485,0.225
1064,-0.480,0.190
1065,-0.465,0.185
1066,-0.465,0.175
1067,-0.445,0.175
1068,-0.435,0.175
1069,-0.420,0.155
1070,-0.430,0.145
1071,-0.420,0.130
1072,-0.425,0.110
1073,-0.415,0.105
1074,-0.410,0.110
1075,-0.415,0.105
1076,-0.395,0.105
1077,-0.375,0.115
1078,-0.360,0.120
1079,-0.340,0.110
1080,-0.295,0.120
1081,-0.270,0.105
1082,-0.230,0.115
1083,-0.190,0.110
1084,-0.145,0.105
1085,-0.105,0.100
1086,-0.045,0.085
1087,0.020,0.080
1088,0.100,0.070
1089,0.190,0.065
1090,0.280,0.045
1091,0.400,0.050
1092,0.500,0.035
1093,0.555,-0.005
1094,0.530,-0.040
1095,0.420,-0.110
1096,0.180,-0.180
1097,-0.185,-0.260
1098,-0.625,-0.320
1099,-1.085,-0.345
1100,-1.480,-0.360
1101,-1.780,-0.345
1102,-2.005,-0.355
1103,-2.140,-0.355
1104,-2.230,-0.385
1105,-2.320,-0.410
1106,-2.380,-0.405
1107,-2.435,-0.355
1108,-2.470,-0.265
1109,-2.470,-0.135
1110,-2.455,0.035
1111,-2.420,0.230
1112,-2.335,0.420
1113,-2.240,0.605
1114,-2.130,0.750
1115,-2.015,0.895
1116,-1.895,0.995
1117,-1.790,1.090
1118,-1.680,1.170
1119,-1.600,1.205
1120,-1.550,1.240
1121,-1.490,1.240
1122,-1.405,1.220
1123,-1.290,1.140
1124,-1.160,0.965
1125,-1.020,0.725
1126,-0.925,0.435
1127,-0.860,0.110
1128,-0.820,-0.160
1129,-0.790,-0.355
1130,-0.740,-0.440
1131,-0.650,-0.430
1132,-0.520,-0.380
1133,-0.365,-0.300
1134,-0.180,-0.245
1135,-0.025,-0.190
1136,0.080,-0.160
1137,0.150,-0.135
1138,0.170,-0.120
1139,0.150,-0.095
1140,0.135,-0.080
1141,0.115,-0.070
1142,0.105,-0.050
1143,0.115,-0.050
1144,0.135,-0.050
1145,0.155,-0.055
1146,0.165,-0.050
1147,0.185,-0.055
1148,0.200,-0.040
1149,0.205,-0.035
1150,0.220,-0.020
1151,0.245,-0.020
1152,0.275,-0.015
1153,0.290,-0.015
1154,0.310,-0.035
1155,0.315,-0.040
1156,0.335,-0.060
1157,0.340,-0.060
1158,0.355,-0.060
1159,0.370,-0.060
1160,0.380,-0.050
1161,0.405,-0.050
1162,0.435,-0.040
1163,0.455,-0.040
1164,0.490,-0.035
1165,0.500,-0.055
1166,0.530,-0.050
1167,0.555,-0.065
1168,0.555,-0.075
1169,0.570,-0.070
1170,0.585,-0.065
1171,0.610,-0.075
1172,0.645,-0.080
1173,0.665,-0.085
1174,0.690,-0.085
1175,0.710,-0.090
1176,0.735,-0.075
1177,0.755,-0.085
1178,0.770,-0.090
1179,0.775,-0.100
1180,0.775,-0.115
1181,0.780,-0.125
1182,0.770,-0.135
1183,0.760,-0.150
1184,0.760,-0.155
1185,0.745,-0.160
1186,0.755,-0.155
1187,0.745,-0.165
1188,0.730,-0.175
1189,0.710,-0.180
1190,0.685,-0.175
1191,0.650,-0.190
1192,0.605,-0.215
1193,0.560,-0.220
1194,0.515,-0.210
1195,0.475,-0.210
1196,0.445,-0.205
1197,0.415,-0.185
1198,0.375,-0.165
1199,0.345,-0.150
1200,0.305,-0.145
1201,0.260,-0.135
1202,0.230,-0.110
1203,0.185,-0.110
1204,0.140,-0.090
1205,0.100,-0.075
1206,0.065,-0.065
1207,0.030,-0.035
1208,0.005,-0.005
1209,-0.020,0.015
1210,-0.050,0.020
1211,-0.060,0.040
1212,-0.060,0.055
1213,-0.080,0.070
1214,-0.110,0.075
1215,-0.125,0.085
1216,-0.145,0.085
1217,-0.160,0.080
1218,-0.180,0.080
1219,-0.190,0.090
1220,-0.185,0.085
1221,-0.190,0.095
1222,-0.200,0.110
1223,-0.190,0.115
1224,-0.180,0.120
1225,-0.195,0.105
1226,-0.190,0.115
1227,-0.205,0.100
1228,-0.215,0.105
1229,-0.215,0.090
1230,-0.225,0.080
1231,-0.240,0.085
1232,-0.230,0.090
1233,-0.220,0.115
1234,-0.215,0.115
1235,-0.210,0.120
1236,-0.200,0.120
1237,-0.195,0.125
1238,-0.195,0.115
1239,-0.190,0.100
1240,-0.210,0.090
1241,-0.210,0.095
1242,-0.215,0.075
1243,-0.225,0.095
1244,-0.220,0.100
1245,-0.220,0.110
1246,-0.225,0.105
1247,-0.225,0.115
1248,-0.210,0.120
1249,-0.210,0.100
1250,-0.205,0.100
1251,-0.210,0.100
1252,-0.220,0.090
1253,-0.235,0.085
1254,-0.235,0.095
1255,-0.245,0.090
1256,-0.250,0.095
1257,-0.240,0.085
1258,-0.240,0.095
1259,-0.235,0.095
1260,-0.220,0.100
1261,-0.225,0.110
1262,-0.230,0.100
1263,-0.240,0.095
1264,-0.240,0.080
1265,-0.255,0.075
1266,-0.260,0.075
1267,-0.260,0.065
1268,-0.270,0.070
1269,-0.270,0.080
1270,-0.255,0.075
1271,-0.260,0.090
1272,-0.245,0.095
1273,-0.250,0.085
1274,-0.235,0.095
1275,-0.235,0.085
1276,-0.240,0.070
1277,-0.240,0.070
1278,-0.255,0.060
1279,-0.260,0.065
1280,-0.265,0.070
1281,-0.245,0.065
1282,-0.245,0.070
1283,-0.235,0.065
1284,-0.230,0.075
1285,-0.230,0.060
1286,-0.240,0.065
1287,-0.245,0.055
1288,-0.245,0.045
1289,-0.255,0.050
1290,-0.255,0.050
1291,-0.245,0.050
1292,-0.240,0.055
1293,-0.245,0.060
1294,-0.250,0.060
1295,-0.240,0.060
1296,-0.230,0.075
1297,-0.220,0.070
1298,-0.230,0.080
1299,-0.220,0.075
1300,-0.225,0.055
1301,-0.235,0.040
1302,-0.245,0.030
1303,-0.230,0.040
1304,-0.230,0.035
1305,-0.240,0.055
1306,-0.235,0.065
1307,-0.225,0.065
1308,-0.200,0.065
1309,-0.200,0.060
1310,-0.200,0.065
1311,-0.200,0.050
1312,-0.210,0.035
1313,-0.220,0.040
1314,-0.210,0.035
1315,-0.210,0.045
1316,-0.190,0.055
1317,-0.175,0.075
1318,-0.155,0.090
1319,-0.120,0.125
1320,-0.105,0.165
1321,-0.080,0.190
1322,-0.070,0.220
1323,-0.045,0.235
1324,-0.040,0.240
1325,-0.045,0.235
1326,-0.050,0.230
1327,-0.030,0.220
1328,-0.005,0.215
1329,0.035,0.205
1330,0.070,0.180
1331,0.125,0.155
1332,0.160,0.130
1333,0.165,0.110
1334,0.150,0.100
1335,0.110,0.070
1336,0.080,0.045
1337,0.075,0.020
1338,0.065,0.030
1339,0.060,0.005
1340,0.080,0.015
1341,0.090,-0.005
1342,0.085,-0.030
1343,0.065,-0.055
1344,0.055,-0.055
1345,0.015,-0.070
1346,-0.025,-0.065
1347,-0.045,-0.065
1348,-0.070,-0.055
1349,-0.115,-0.030
1350,-0.135,-0.035
1351,-0.155,-0.035
1352,-0.170,-0.025
1353,-0.190,0.005
1354,-0.195,-0.005
1355,-0.190,0.015
1356,-0.190,0.025
1357,-0.205,0.010
1358,-0.200,0.000
1359,-0.200,-0.005
1360,-0.205,-0.020
1361,-0.205,-0.030
1362,-0.200,-0.040
1363,-0.210,-0.030
1364,-0.210,-0.030
1365,-0.205,-0.025
1366,-0.200,-0.015
1367,-0.190,-0.010
1368,-0.185,0.015
1369,-0.170,0.035
1370,-0.150,0.070
1371,-0.110,0.105
1372,-0.050,0.145
1373,0.055,0.150
1374,0.205,0.135
1375,0.380,0.040
1376,0.585,-0.095
1377,0.790,-0.265
1378,0.980,-0.475
1379,1.140,-0.735
1380,1.315,-1.055
1381,1.445,-1.410
1382,1.570,-1.770
1383,1.640,-2.065
1384,1.635,-2.270
1385,1.580,-2.345
1386,1.480,-2.305
1387,1.325,-2.215
1388,1.095,-2.060
1389,0.830,-1.880
1390,0.545,-1.655
1391,0.305,-1.405
1392,0.120,-1.135
1393,-0.015,-0.885
1394,-0.085,-0.705
1395,-0.140,-0.565
1396,-0.175,-0.485
1397,-0.190,-0.405
1398,-0.230,-0.345
1399,-0.270,-0.280
1400,-0.300,-0.205
1401,-0.325,-0.125
1402,-0.335,-0.060
1403,-0.345,-0.005
1404,-0.345,0.030
1405,-0.340,0.040
1406,-0.345,0.035
1407,-0.340,0.030
1408,-0.355,0.045
1409,-0.365,0.040
1410,-0.370,0.045
1411,-0.390,0.050
1412,-0.380,0.080
1413,-0.370,0.085
1414,-0.380,0.100
1415,-0.370,0.110
1416,-0.375,0.130
1417,-0.365,0.125
1418,-0.375,0.130
1419,-0.370,0.130
1420,-0.370,0.140
1421,-0.390,0.140
1422,-0.390,0.130
1423,-0.405,0.145
1424,-0.400,0.155
1425,-0.405,0.175
1426,-0.395,0.185
1427,-0.390,0.185
1428,-0.390,0.185
1429,-0.395,0.210
1430,-0.405,0.205
1431,-0.400,0.220
1432,-0.405,0.210
1433,-0.430,0.225
1434,-0.430,0.215
1435,-0.440,0.220
1436,-0.435,0.240
1437,-0.450,0.240
1438,-0.445,0.250
1439,-0.445,0.280
1440,-0.445,0.285
1441,-0.460,0.295
1442,-0.475,0.310
1443,-0.495,0.300
1444,-0.510,0.300
1445,-0.525,0.305
1446,-0.545,0.305
1447,-0.560,0.320
1448,-0.570,0.330
1449,-0.590,0.345
1450,-0.600,0.375
1451,-0.605,0.370
1452,-0.610,0.390
1453,-0.630,0.400
1454,-0.640,0.400
1455,-0.660,0.395
1456,-0.680,0.385
1457,-0.705,0.395
1458,-0.715,0.380
1459,-0.735,0.385
1460,-0.745,0.405
1461,-0.740,0.420
1462,-0.745,0.430
1463,-0.740,0.435
1464,-0.740,0.440
1465,-0.725,0.435
1466,-0.730,0.440
1467,-0.725,0.425
1468,-0.725,0.405
1469,-0.725,0.410
1470,-0.705,0.395
1471,-0.700,0.390
1472,-0.680,0.385
1473,-0.655,0.380
1474,-0.625,0.365
1475,-0.600,0.360
1476,-0.565,0.360
1477,-0.545,0.340
1478,-0.515,0.305
1479,-0.485,0.295
1480,-0.465,0.275
1481,-0.440,0.240
1482,-0.415,0.220
1483,-0.390,0.195
1484,-0.370,0.180
1485,-0.340,0.165
1486,-0.300,0.145
1487,-0.275,0.130
1488,-0.255,0.115
1489,-0.240,0.105
1490,-0.225,0.085
1491,-0.195,0.070
1492,-0.200,0.060
1493,-0.195,0.040
1494,-0.190,0.025
1495,-0.195,0.015
1496,-0.185,0.015
1497,-0.175,0.025
1498,-0.175,0.025
1499,-0.155,0.045
1500,-0.155,0.035
1501,-0.145,0.025
1502,-0.150,0.025
1503,-0.150,0.005
1504,-0.155,0.000
1505,-0.150,0.005
1506,-0.160,-0.005
1507,-0.150,0.005
1508,-0.155,0.020
1509,-0.145,0.020
1510,-0.140,0.005
1511,-0.135,0.030
1512,-0.120,0.020
1513,-0.120,0.020
1514,-0.130,0.015
1515,-0.130,0.015
1516,-0.135,0.010
1517,-0.135,0.010
1518,-0.145,0.010
1519,-0.155,0.010
1520,-0.150,0.010
1521,-0.145,0.015
1522,-0.145,0.030
1523,-0.135,0.030
1524,-0.115,0.045
1525,-0.120,0.040
1526,-0.120,0.050
1527,-0.115,0.050
1528,-0.110,0.045
1529,-0.110,0.045
1530,-0.105,0.030
1531,-0.100,0.035
1532,-0.080,0.020
1533,-0.060,0.040
1534,-0.030,0.055
1535,0.000,0.070
1536,0.035,0.115
1537,0.060,0.125
1538,0.070,0.155
1539,0.095,0.205
1540,0.125,0.230
1541,0.145,0.255
1542,0.180,0.275
1543,0.225,0.290
1544,0.285,0.300
1545,0.350,0.335
1546,0.440,0.360
1547,0.555,0.365
1548,0.670,0.325
1549,0.790,0.285
1550,0.875,0.210
1551,0.965,0.135
1552,1.015,0.060
1553,1.060,0.005
1554,1.105,-0.050
1555,1.175,-0.080
1556,1.265,-0.100
1557,1.350,-0.150
1558,1.450,-0.215
1559,1.525,-0.315
1560,1.575,-0.430
1561,1.595,-0.570
1562,1.565,-0.720
1563,1.475,-0.855
1564,1.315,-0.980
1565,1.075,-1.080
1566,0.725,-1.150
1567,0.300,-1.230
1568,-0.180,-1.315
1569,-0.645,-1.415
1570,-1.045,-1.525
1571,-1.360,-1.660
1572,-1.555,-1.710
1573,-1.640,-1.725
1574,-1.640,-1.710
1575,-1.570,-1.660
1576,-1.480,-1.615
1577,-1.355,-1.520
1578,-1.240,-1.410
1579,-1.150,-1.295
1580,-1.075,-1.160
1581,-0.990,-1.020
1582,-0.895,-0.840
1583,-0.770,-0.675
1584,-0.665,-0.530
1585,-0.550,-0.410
1586,-0.445,-0.290
1587,-0.350,-0.225
1588,-0.320,-0.170
1589,-0.280,-0.130
1590,-0.295,-0.115
1591,-0.305,-0.090
1592,-0.305,-0.075
1593,-0.295,-0.050
1594,-0.285,-0.020
1595,-0.285,-0.010
1596,-0.275,0.005
1597,-0.265,0.010
1598,-0.255,0.005
1599,-0.245,0.005
1600,-0.260,0.015
1601,-0.260,0.000
1602,-0.270,-0.010
1603,-0.260,0.005
1604,-0.270,0.025
1605,-0.255,0.045
1606,-0.245,0.060
1607,-0.255,0.060
1608,-0.245,0.060
1609,-0.240,0.070
1610,-0.230,0.075
1611,-0.240,0.060
1612,-0.245,0.065
1613,-0.250,0.060
1614,-0.250,0.070
1615,-0.260,0.080
1616,-0.255,0.090
1617,-0.255,0.100
1618,-0.240,0.110
1619,-0.235,0.125
1620,-0.230,0.135
1621,-0.230,0.145
1622,-0.230,0.140
1623,-0.235,0.155
1624,-0.245,0.150
1625,-0.240,0.165
1626,-0.245,0.180
1627,-0.240,0.185
1628,-0.230,0.200
1629,-0.225,0.205
1630,-0.225,0.225
1631,-0.195,0.245
1632,-0.180,0.260
1633,-0.170,0.280
1634,-0.165,0.300
1635,-0.145,0.300
1636,-0.135,0.310
1637,-0.140,0.325
1638,-0.125,0.325
1639,-0.125,0.340
1640,-0.110,0.350
1641,-0.085,0.365
1642,-0.065,0.390
1643,-0.050,0.410
1644,-0.025,0.425
1645,-0.005,0.430
1646,0.010,0.440
1647,0.025,0.435
1648,0.035,0.435
1649,0.020,0.425
1650,0.020,0.415
1651,0.025,0.420
1652,0.040,0.425
1653,0.045,0.440
1654,0.045,0.440
1655,0.070,0.420
1656,0.065,0.415
1657,0.070,0.400
1658,0.060,0.390
1659,0.045,0.365
1660,0.030,0.350
1661,0.015,0.325
1662,-0.005,0.310
1663,-0.020,0.295
1664,-0.020,0.295
1665,-0.035,0.260
1666,-0.040,0.260
1667,-0.050,0.225
1668,-0.055,0.225
1669,-0.060,0.195
1670,-0.070,0.185
1671,-0.080,0.150
1672,-0.110,0.140
1673,-0.115,0.115
1674,-0.120,0.110
1675,-0.135,0.105
1676,-0.130,0.100
1677,-0.135,0.080
1678,-0.125,0.090
1679,-0.140,0.080
1680,-0.120,0.085
1681,-0.130,0.075
1682,-0.130,0.080
1683,-0.135,0.060
1684,-0.145,0.060
1685,-0.160,0.040
1686,-0.155,0.045
1687,-0.160,0.040
1688,-0.170,0.030
1689,-0.160,0.045
1690,-0.160,0.040
1691,-0.140,0.050
1692,-0.135,0.065
1693,-0.130,0.065
1694,-0.135,0.050
1695,-0.140,0.055
1696,-0.135,0.040
1697,-0.140,0.030
1698,-0.140,0.015
1699,-0.145,0.025
1700,-0.145,0.030
1701,-0.130,0.055
1702,-0.120,0.060
1703,-0.115,0.075
1704,-0.095,0.060
1705,-0.105,0.055
1706,-0.110,0.055
1707,-0.120,0.035
1708,-0.120,0.035
1709,-0.120,0.030
1710,-0.115,0.020
1711,-0.125,0.020
1712,-0.130,0.045
1713,-0.125,0.050
1714,-0.110,0.045
1715,-0.110,0.055
1716,-0.105,0.060
1717,-0.105,0.055
1718,-0.105,0.050
1719,-0.110,0.040
1720,-0.120,0.035
1721,-0.120,0.030
1722,-0.125,0.025
1723,-0.135,0.025
1724,-0.140,0.020
1725,-0.125,0.020
1726,-0.115,0.025
1727,-0.115,0.040
1728,-0.110,0.040
1729,-0.105,0.035
1730,-0.120,0.030
1731,-0.110,0.040
1732,-0.120,0.030
1733,-0.125,0.025
1734,-0.120,0.015
1735,-0.115,0.015
1736,-0.115,0.010
1737,-0.115,0.010
1738,-0.110,0.020
1739,-0.110,0.035
1740,-0.105,0.035
1741,-0.095,0.025
1742,-0.115,0.025
1743,-0.110,0.020
1744,-0.115,0.005
1745,-0.105,-0.005
1746,-0.125,-0.020
1747,-0.115,-0.015
1748,-0.110,-0.010
1749,-0.090,0.005
1750,-0.080,0.025
1751,-0.065,0.030
1752,-0.050,0.055
1753,-0.030,0.070
1754,-0.015,0.095
1755,-0.005,0.110
1756,0.005,0.130
1757,0.010,0.150
1758,0.010,0.170
1759,0.035,0.190
1760,0.045,0.185
1761,0.040,0.210
1762,0.065,0.205
1763,0.090,0.195
1764,0.135,0.195
1765,0.160,0.170
1766,0.190,0.145
1767,0.230,0.115
1768,0.235,0.080
1769,0.220,0.045
1770,0.210,0.030
1771,0.185,0.015
1772,0.165,0.015
1773,0.155,0.010
1774,0.160,0.005
1775,0.165,0.005
1776,0.180,-0.005
1777,0.190,-0.030
1778,0.170,-0.050
1779,0.160,-0.080
1780,0.130,-0.110
1781,0.090,-0.115
1782,0.060,-0.120
1783,0.025,-0.110
1784,-0.005,-0.095
1785,-0.040,-0.070
1786,-0.055,-0.045
1787,-0.060,-0.025
1788,-0.065,-0.020
1789,-0.095,-0.035
1790,-0.095,-0.020
1791,-0.105,-0.035
1792,-0.130,-0.030
1793,-0.145,-0.050
1794,-0.155,-0.045
1795,-0.150,-0.060
1796,-0.155,-0.060
1797,-0.145,-0.055
1798,-0.120,-0.055
1799,-0.125,-0.050
1800,-0.120,-0.045
1801,-0.110,-0.040
1802,-0.105,-0.035
1803,-0.100,-0.050
1804,-0.100,-0.050
1805,-0.110,-0.040
1806,-0.090,-0.005
1807,-0.065,0.050
1808,-0.020,0.110
1809,0.085,0.140
1810,0.240,0.130
1811,0.430,0.055
1812,0.625,-0.070
1813,0.835,-0.245
1814,1.010,-0.460
1815,1.175,-0.735
1816,1.330,-1.060
1817,1.465,-1.420
1818,1.570,-1.795
1819,1.625,-2.115
1820,1.635,-2.320
1821,1.575,-2.390
1822,1.470,-2.350
1823,1.320,-2.240
1824,1.095,-2.085
1825,0.835,-1.895
1826,0.555,-1.655
1827,0.335,-1.400
1828,0.140,-1.125
1829,0.040,-0.885
1830,-0.050,-0.705
1831,-0.085,-0.575
1832,-0.105,-0.480
1833,-0.130,-0.390
1834,-0.155,-0.310
1835,-0.190,-0.220
1836,-0.220,-0.140
1837,-0.245,-0.075
1838,-0.255,-0.035
1839,-0.270,-0.010
1840,-0.280,-0.005
1841,-0.285,0.000
1842,-0.295,0.010
1843,-0.295,0.020
1844,-0.295,0.025
1845,-0.295,0.050
1846,-0.295,0.075
1847,-0.285,0.095
1848,-0.290,0.100
1849,-0.285,0.105
1850,-0.290,0.110
1851,-0.290,0.115
1852,-0.300,0.105
1853,-0.305,0.125
1854,-0.320,0.120
1855,-0.315,0.125
1856,-0.320,0.140
1857,-0.305,0.155
1858,-0.315,0.170
1859,-0.305,0.180
1860,-0.310,0.185
1861,-0.315,0.180
1862,-0.315,0.190
1863,-0.310,0.195
1864,-0.330,0.195
1865,-0.335,0.195
1866,-0.340,0.205
1867,-0.350,0.220
1868,-0.355,0.230
1869,-0.360,0.240
1870,-0.365,0.250
1871,-0.370,0.270
1872,-0.365,0.270
1873,-0.355,0.290
1874,-0.360,0.295
1875,-0.380,0.295
1876,-0.400,0.295
1877,-0.410,0.300
1878,-0.435,0.290
1879,-0.465,0.305
1880,-0.470,0.315
1881,-0.475,0.330
1882,-0.490,0.345
1883,-0.495,0.365
1884,-0.500,0.390
1885,-0.510,0.390
1886,-0.520,0.385
1887,-0.535,0.390
1888,-0.550,0.395
1889,-0.560,0.390
1890,-0.575,0.390
1891,-0.590,0.405
1892,-0.605,0.420
1893,-0.605,0.425
1894,-0.620,0.450
1895,-0.625,0.440
1896,-0.610,0.450
1897,-0.585,0.440
1898,-0.580,0.435
1899,-0.580,0.425
1900,-0.570,0.425
1901,-0.565,0.410
1902,-0.560,0.405
1903,-0.550,0.390
1904,-0.530,0.395
1905,-0.510,0.375
1906,-0.490,0.370
1907,-0.470,0.365
1908,-0.430,0.355
1909,-0.395,0.320
1910,-0.385,0.305
1911,-0.350,0.290
1912,-0.335,0.265
1913,-0.315,0.245
1914,-0.305,0.205
1915,-0.285,0.200
1916,-0.255,0.170
1917,-0.230,0.150
1918,-0.200,0.140
1919,-0.175,0.135
1920,-0.150,0.125
1921,-0.130,0.105
1922,-0.125,0.080
1923,-0.100,0.065
1924,-0.110,0.055
1925,-0.110,0.035
1926,-0.115,0.020
1927,-0.125,0.025
1928,-0.115,0.020
1929,-0.110,0.010
1930,-0.095,0.015
1931,-0.100,0.030
1932,-0.090,0.030
1933,-0.090,0.020
1934,-0.080,0.015
1935,-0.080,0.015
1936,-0.085,-0.005
1937,-0.085,-0.020
1938,-0.090,-0.025
1939,-0.100,-0.010
1940,-0.095,-0.015
1941,-0.090,0.005
1942,-0.085,0.020
1943,-0.090,0.020
1944,-0.080,0.025
1945,-0.090,0.010
1946,-0.085,0.015
1947,-0.095,-0.005
1948,-0.100,0.000
1949,-0.095,0.000
1950,-0.095,0.000
1951,-0.100,0.000
1952,-0.100,0.005
1953,-0.095,0.010
1954,-0.095,0.010
1955,-0.095,0.020
1956,-0.100,0.015
1957,-0.080,0.020
1958,-0.085,0.030
1959,-0.080,0.020
1960,-0.085,0.015
1961,-0.090,0.015
1962,-0.095,0.020
1963,-0.100,0.025
1964,-0.090,0.025
1965,-0.075,0.035
1966,-0.060,0.030
1967,-0.050,0.055
1968,-0.045,0.075
1969,-0.015,0.085
1970,-0.005,0.110
1971,0.020,0.135
1972,0.040,0.145
1973,0.050,0.170
1974,0.070,0.170
1975,0.075,0.180
1976,0.090,0.190
1977,0.110,0.190
1978,0.120,0.200
1979,0.155,0.195
1980,0.185,0.185
1981,0.235,0.155
1982,0.240,0.120
1983,0.255,0.060
1984,0.245,0.030
1985,0.225,0.005
1986,0.195,-0.025
1987,0.185,-0.030
1988,0.165,-0.020
1989,0.155,-0.020
1990,0.190,-0.020
1991,0.190,-0.040
1992,0.195,-0.060
1993,0.180,-0.090
1994,0.155,-0.100
1995,0.125,-0.115
1996,0.085,-0.115
1997,0.050,-0.110
1998,0.015,-0.085
1999,0.005,-0.060
2000,-0.025,-0.050
2001,-0.020,-0.040
2002,-0.035,-0.040
2003,-0.045,-0.035
2004,-0.060,-0.045
2005,-0.070,-0.040
2006,-0.080,-0.035
2007,-0.090,-0.035
2008,-0.100,-0.050
2009,-0.105,-0.050
2010,-0.105,-0.055
2011,-0.110,-0.055
2012,-0.100,-0.065
2013,-0.100,-0.065
2014,-0.085,-0.065
2015,-0.075,-0.055
2016,-0.065,-0.045
2017,-0.065,-0.040
2018,-0.075,-0.035
2019,-0.075,-0.045
2020,-0.095,-0.040
2021,-0.085,-0.020
2022,-0.070,0.010
2023,-0.040,0.060
2024,0.025,0.100
2025,0.155,0.125
2026,0.295,0.120
2027,0.490,0.050
2028,0.695,-0.085
2029,0.900,-0.265
2030,1.080,-0.490
2031,1.255,-0.795
2032,1.410,-1.155
2033,1.515,-1.550
2034,1.600,-1.925
2035,1.635,-2.210
2036,1.610,-2.370
2037,1.540,-2.400
2038,1.415,-2.330
2039,1.225,-2.210
2040,1.015,-2.020
2041,0.740,-1.815
2042,0.485,-1.555
2043,0.280,-1.290
2044,0.115,-1.050
2045,0.025,-0.810
2046,-0.030,-0.650
2047,-0.080,-0.545
2048,-0.085,-0.465
2049,-0.095,-0.400
2050,-0.125,-0.325
2051,-0.150,-0.245
2052,-0.185,-0.180
2053,-0.205,-0.120
2054,-0.230,-0.065
2055,-0.225,-0.035
2056,-0.230,-0.020
2057,-0.230,-0.015
2058,-0.240,-0.020
2059,-0.255,-0.010
2060,-0.255,0.005
2061,-0.260,0.010
2062,-0.260,0.025
2063,-0.260,0.050
2064,-0.255,0.065
2065,-0.255,0.075
2066,-0.250,0.080
2067,-0.260,0.080
2068,-0.265,0.090
2069,-0.265,0.085
2070,-0.260,0.075
2071,-0.280,0.090
2072,-0.280,0.110
2073,-0.285,0.120
2074,-0.270,0.130
2075,-0.260,0.145
2076,-0.265,0.160
2077,-0.260,0.155
2078,-0.270,0.165
2079,-0.280,0.165
2080,-0.290,0.170
2081,-0.300,0.175
2082,-0.305,0.170
2083,-0.310,0.185
2084,-0.325,0.195
2085,-0.340,0.215
2086,-0.340,0.240
2087,-0.320,0.250
2088,-0.325,0.255
2089,-0.325,0.260
2090,-0.345,0.265
2091,-0.345,0.270
2092,-0.365,0.290
2093,-0.375,0.300
2094,-0.400,0.300
2095,-0.410,0.315
2096,-0.420,0.325
2097,-0.435,0.345
2098,-0.445,0.355
2099,-0.455,0.385
2100,-0.460,0.405
2101,-0.470,0.415
2102,-0.475,0.410
2103,-0.495,0.425
2104,-0.500,0.410
2105,-0.520,0.410
2106,-0.525,0.410
2107,-0.540,0.420
2108,-0.540,0.425
2109,-0.560,0.435
2110,-0.540,0.455
2111,-0.525,0.460
2112,-0.525,0.465
2113,-0.515,0.470
2114,-0.500,0.460
2115,-0.490,0.440
2116,-0.490,0.435
2117,-0.475,0.405
2118,-0.465,0.385
2119,-0.450,0.355
2120,-0.440,0.350
2121,-0.400,0.335
2122,-0.375,0.325
2123,-0.350,0.295
2124,-0.320,0.280
2125,-0.300,0.230
2126,-0.285,0.215
2127,-0.270,0.185
2128,-0.260,0.155
2129,-0.260,0.120
2130,-0.245,0.095
2131,-0.245,0.075
2132,-0.235,0.060
2133,-0.215,0.060
2134,-0.205,0.050
2135,-0.200,0.035
2136,-0.190,0.025
2137,-0.190,0.015
2138,-0.180,0.010
2139,-0.190,0.000
2140,-0.185,-0.010
2141,-0.190,-0.020
2142,-0.205,-0.025
2143,-0.200,-0.045
2144,-0.195,-0.030
2145,-0.205,-0.030
2146,-0.160,-0.030
2147,-0.150,-0.015
2148,-0.125,-0.010
2149,-0.085,0.000
2150,-0.065,-0.015
2151,-0.020,-0.020
2152,0.030,-0.030
2153,0.080,-0.050
2154,0.140,-0.060
2155,0.195,-0.065
2156,0.280,-0.065
2157,0.360,-0.055
2158,0.480,-0.070
2159,0.590,-0.080
2160,0.680,-0.115
2161,0.700,-0.160
2162,0.620,-0.245
2163,0.390,-0.325
2164,0.000,-0.415
2165,-0.490,-0.485
2166,-1.015,-0.515
2167,-1.475,-0.515
2168,-1.835,-0.515
2169,-2.090,-0.520
2170,-2.240,-0.530
2171,-2.345,-0.535
2172,-2.400,-0.520
2173,-2.445,-0.455
2174,-2.455,-0.345
2175,-2.445,-0.205
2176,-2.430,-0.045
2177,-2.390,0.135
2178,-2.330,0.320
2179,-2.250,0.475
2180,-2.130,0.630
2181,-2.015,0.770
2182,-1.890,0.885
2183,-1.770,0.995
2184,-1.670,1.055
2185,-1.600,1.100
2186,-1.545,1.135
2187,-1.480,1.150
2188,-1.400,1.115
2189,-1.280,1.025
2190,-1.160,0.850
2191,-1.040,0.605
2192,-0.955,0.320
2193,-0.890,0.030
2194,-0.850,-0.230
2195,-0.820,-0.425
2196,-0.775,-0.550
2197,-0.715,-0.580
2198,-0.615,-0.550
2199,-0.470,-0.495
2200,-0.305,-0.440
2201,-0.155,-0.395
2202,-0.015,-0.345
2203,0.065,-0.305
2204,0.105,-0.285
2205,0.125,-0.240
2206,0.115,-0.220
2207,0.095,-0.205
2208,0.095,-0.195
2209,0.110,-0.185
2210,0.120,-0.180
2211,0.145,-0.175
2212,0.145,-0.175
2213,0.160,-0.180
2214,0.170,-0.175
2215,0.170,-0.185
2216,0.185,-0.190
2217,0.210,-0.185
2218,0.215,-0.185
2219,0.235,-0.165
2220,0.255,-0.175
2221,0.285,-0.175
2222,0.295,-0.175
2223,0.305,-0.195
2224,0.310,-0.205
2225,0.315,-0.220
2226,0.330,-0.215
2227,0.345,-0.220
2228,0.360,-0.205
2229,0.385,-0.200
2230,0.410,-0.200
2231,0.430,-0.185
2232,0.470,-0.195
2233,0.505,-0.200
2234,0.500,-0.195
2235,0.520,-0.210
2236,0.550,-0.225
2237,0.565,-0.220
2238,0.570,-0.225
2239,0.575,-0.230
2240,0.600,-0.240
2241,0.610,-0.250
2242,0.615,-0.245
2243,0.635,-0.245
2244,0.650,-0.255
2245,0.650,-0.260
2246,0.655,-0.260
2247,0.645,-0.265
2248,0.625,-0.280
2249,0.600,-0.300
2250,0.575,-0.305
2251,0.555,-0.315
2252,0.535,-0.325
2253,0.520,-0.330
2254,0.505,-0.330
2255,0.465,-0.325
2256,0.435,-0.315
2257,0.405,-0.320
2258,0.360,-0.335
2259,0.300,-0.330
2260,0.240,-0.345
2261,0.200,-0.345
2262,0.155,-0.335
2263,0.120,-0.310
2264,0.070,-0.305
2265,0.040,-0.275
2266,0.015,-0.260
2267,-0.020,-0.235
2268,-0.050,-0.230
2269,-0.085,-0.205
2270,-0.120,-0.195
2271,-0.160,-0.175
2272,-0.190,-0.160
2273,-0.220,-0.155
2274,-0.260,-0.130
2275,-0.305,-0.115
2276,-0.335,-0.090
2277,-0.360,-0.080
2278,-0.370,-0.065
2279,-0.380,-0.050
2280,-0.390,-0.035
2281,-0.395,-0.020
2282,-0.410,-0.030
2283,-0.430,-0.035
2284,-0.450,-0.035
2285,-0.470,-0.025
2286,-0.490,-0.010
2287,-0.510,-0.015
2288,-0.515,-0.015
2289,-0.515,-0.010
2290,-0.505,-0.015
2291,-0.515,-0.020
2292,-0.520,-0.005
2293,-0.510,-0.010
2294,-0.525,-0.005
2295,-0.525,0.000
2296,-0.540,0.000
2297,-0.550,0.000
2298,-0.565,-0.010
2299,-0.570,-0.015
2300,-0.570,-0.020
2301,-0.585,-0.020
2302,-0.575,-0.015
2303,-0.560,0.000
2304,-0.565,0.015
2305,-0.560,0.010
2306,-0.565,0.015
2307,-0.560,0.005
2308,-0.570,0.005
2309,-0.565,-0.020
2310,-0.570,-0.035
2311,-0.580,-0.035
2312,-0.580,-0.035
2313,-0.600,-0.025
2314,-0.600,0.010
2315,-0.625,0.015
2316,-0.625,0.030
2317,-0.620,0.025
2318,-0.625,-0.005
2319,-0.610,-0.005
2320,-0.620,-0.025
2321,-0.630,-0.030
2322,-0.635,-0.035
2323,-0.665,-0.020
2324,-0.675,0.005
2325,-0.675,0.010
2326,-0.670,0.035
2327,-0.670,0.045
2328,-0.670,0.035
2329,-0.655,0.015
2330,-0.660,0.010
2331,-0.675,0.000
2332,-0.690,0.005
2333,-0.685,-0.010
2334,-0.695,0.000
2335,-0.690,-0.005
2336,-0.695,0.005
2337,-0.695,0.000
2338,-0.685,0.005
2339,-0.695,-0.015
2340,-0.685,-0.015
2341,-0.690,-0.015
2342,-0.705,-0.025
2343,-0.705,-0.025
2344,-0.720,-0.020
2345,-0.725,-0.010
2346,-0.735,-0.020
2347,-0.750,-0.015
2348,-0.740,0.000
2349,-0.735,-0.015
2350,-0.720,0.015
2351,-0.705,0.000
2352,-0.690,-0.010
2353,-0.685,-0.010
2354,-0.710,-0.010
2355,-0.725,-0.005
2356,-0.740,-0.010
2357,-0.755,-0.015
2358,-0.765,-0.045
2359,-0.765,-0.080
2360,-0.765,-0.080
2361,-0.770,-0.065
2362,-0.765,-0.020
2363,-0.770,0.020
2364,-0.770,0.045
2365,-0.780,0.030
2366,-0.785,0.005
2367,-0.800,-0.020
2368,-0.800,-0.030
2369,-0.795,-0.040
2370,-0.805,-0.055
2371,-0.800,-0.050
2372,-0.785,-0.030
2373,-0.795,-0.015
2374,-0.790,0.005
2375,-0.785,0.015
2376,-0.790,0.030
2377,-0.795,0.030
2378,-0.795,0.035
2379,-0.780,0.005
2380,-0.780,0.000
2381,-0.785,0.005
2382,-0.790,0.015
2383,-0.810,0.015
2384,-0.825,0.015
2385,-0.830,0.000
2386,-0.825,0.010
2387,-0.800,0.025
2388,-0.780,0.065
2389,-0.735,0.105
2390,-0.715,0.160
2391,-0.715,0.205
2392,-0.725,0.220
2393,-0.730,0.235
2394,-0.730,0.215
2395,-0.725,0.215
2396,-0.705,0.200
2397,-0.665,0.205
2398,-0.645,0.210
2399,-0.610,0.195
2400,-0.580,0.170
2401,-0.575,0.150
2402,-0.555,0.130
2403,-0.565,0.120
2404,-0.585,0.090
2405,-0.585,0.070
2406,-0.585,0.060
2407,-0.590,0.035
2408,-0.580,0.030
2409,-0.590,0.015
2410,-0.605,0.010
2411,-0.655,0.005
2412,-0.675,-0.005
2413,-0.720,-0.015
2414,-0.760,-0.015
2415,-0.800,-0.015
2416,-0.840,0.015
2417,-0.855,0.040
2418,-0.865,0.065
2419,-0.890,0.055
2420,-0.900,0.040
2421,-0.905,0.025
2422,-0.905,0.010
2423,-0.905,0.020
2424,-0.905,0.010
2425,-0.900,0.010
2426,-0.910,0.020
2427,-0.920,0.005
2428,-0.935,0.005
2429,-0.945,0.005
2430,-0.960,0.005
2431,-0.940,0.005
2432,-0.940,0.020
2433,-0.940,0.020
2434,-0.930,0.020
2435,-0.930,0.050
2436,-0.910,0.090
2437,-0.870,0.130
2438,-0.840,0.160
2439,-0.720,0.180
2440,-0.565,0.170
2441,-0.360,0.110
2442,-0.125,0.040
2443,0.095,-0.095
2444,0.320,-0.280
2445,0.520,-0.495
2446,0.705,-0.760
2447,0.870,-1.060
2448,1.005,-1.385
2449,1.080,-1.670
2450,1.090,-1.855
2451,1.025,-1.955
2452,0.850,-1.960
2453,0.595,-1.860
2454,0.260,-1.725
2455,-0.115,-1.505
2456,-0.465,-1.280
2457,-0.720,-1.045
2458,-0.870,-0.820
2459,-0.920,-0.625
2460,-0.910,-0.485
2461,-0.890,-0.385
2462,-0.885,-0.315
2463,-0.890,-0.250
2464,-0.930,-0.190
2465,-0.975,-0.125
2466,-1.030,-0.070
2467,-1.065,-0.015
2468,-1.075,0.010
2469,-1.080,0.050
2470,-1.080,0.075
2471,-1.080,0.100
2472,-1.065,0.105
2473,-1.055,0.125
2474,-1.070,0.135
2475,-1.070,0.145
2476,-1.090,0.150
2477,-1.120,0.135
2478,-1.125,0.130
2479,-1.135,0.135
2480,-1.125,0.155
2481,-1.120,0.165
2482,-1.110,0.185
2483,-1.105,0.200
2484,-1.110,0.215
2485,-1.100,0.205
2486,-1.100,0.215
2487,-1.105,0.210
2488,-1.115,0.195
2489,-1.125,0.205
2490,-1.135,0.205
2491,-1.145,0.220
2492,-1.145,0.230
2493,-1.125,0.245
2494,-1.130,0.240
2495,-1.105,0.260
2496,-1.105,0.255
2497,-1.120,0.255
2498,-1.125,0.255
2499,-1.130,0.260
2500,-1.140,0.260
2501,-1.160,0.270
2502,-1.160,0.285
2503,-1.195,0.310
2504,-1.180,0.295
2505,-1.190,0.310
2506,-1.190,0.325
2507,-1.195,0.325
2508,-1.195,0.345
2509,-1.195,0.355
2510,-1.205,0.355
2511,-1.225,0.360
2512,-1.245,0.355
2513,-1.255,0.360
2514,-1.270,0.365
2515,-1.305,0.365
2516,-1.300,0.380
2517,-1.320,0.395
2518,-1.325,0.405
2519,-1.320,0.425
2520,-1.325,0.435
2521,-1.340,0.450
2522,-1.350,0.450
2523,-1.380,0.450
2524,-1.380,0.440
2525,-1.390,0.445
2526,-1.410,0.430
2527,-1.420,0.440
2528,-1.425,0.435
2529,-1.435,0.460
2530,-1.435,0.470
2531,-1.430,0.490
2532,-1.425,0.500
2533,-1.425,0.495
2534,-1.425,0.500
2535,-1.420,0.485
2536,-1.415,0.460
2537,-1.395,0.450
2538,-1.385,0.440
2539,-1.370,0.435
2540,-1.345,0.435
2541,-1.340,0.440
2542,-1.310,0.440
2543,-1.280,0.430
2544,-1.250,0.420
2545,-1.220,0.395
2546,-1.190,0.375
2547,-1.155,0.355
2548,-1.130,0.325
2549,-1.100,0.310
2550,-1.080,0.290
2551,-1.060,0.275
2552,-1.030,0.255
2553,-1.010,0.250
2554,-0.980,0.235
2555,-0.950,0.220
2556,-0.940,0.205
2557,-0.900,0.205
2558,-0.905,0.195
2559,-0.880,0.175
2560,-0.855,0.175
2561,-0.865,0.165
2562,-0.870,0.150
2563,-0.880,0.140
2564,-0.870,0.140
2565,-0.860,0.145
2566,-0.865,0.150
2567,-0.855,0.155
2568,-0.855,0.165
2569,-0.845,0.160
2570,-0.860,0.155
2571,-0.860,0.140
2572,-0.860,0.140
2573,-0.845,0.145
2574,-0.855,0.125
2575,-0.855,0.135
2576,-0.855,0.130
2577,-0.855,0.140
2578,-0.845,0.155
2579,-0.840,0.165
2580,-0.830,0.175
2581,-0.815,0.165
2582,-0.805,0.160
2583,-0.800,0.140
2584,-0.800,0.140
2585,-0.820,0.120
2586,-0.830,0.135
2587,-0.845,0.155
2588,-0.840,0.165
2589,-0.835,0.175
2590,-0.830,0.195
2591,-0.825,0.190
2592,-0.815,0.180
2593,-0.825,0.175
2594,-0.805,0.165
2595,-0.795,0.170
2596,-0.805,0.175
2597,-0.800,0.170
2598,-0.805,0.175
2599,-0.800,0.175
2600,-0.795,0.185
2601,-0.790,0.190
2602,-0.780,0.185
2603,-0.760,0.190
2604,-0.750,0.200
2605,-0.745,0.225
2606,-0.730,0.230
2607,-0.715,0.270
2608,-0.695,0.285
2609,-0.685,0.285
2610,-0.675,0.300
2611,-0.665,0.300
2612,-0.645,0.295
2613,-0.650,0.300
2614,-0.635,0.305
2615,-0.610,0.315
2616,-0.585,0.330
2617,-0.545,0.325
2618,-0.510,0.285
2619,-0.485,0.260
2620,-0.470,0.230
2621,-0.475,0.185
2622,-0.480,0.155
2623,-0.505,0.125
2624,-0.520,0.130
2625,-0.525,0.150
2626,-0.515,0.155
2627,-0.510,0.165
2628,-0.500,0.155
2629,-0.490,0.140
2630,-0.495,0.120
2631,-0.505,0.095
2632,-0.545,0.070
2633,-0.580,0.045
2634,-0.605,0.040
2635,-0.640,0.050
2636,-0.655,0.070
2637,-0.665,0.085
2638,-0.685,0.125
2639,-0.695,0.135
2640,-0.700,0.140
2641,-0.720,0.130
2642,-0.730,0.130
2643,-0.745,0.120
2644,-0.750,0.105
2645,-0.765,0.100
2646,-0.770,0.100
2647,-0.770,0.100
2648,-0.765,0.105
2649,-0.765,0.110
2650,-0.760,0.110
2651,-0.755,0.105
2652,-0.750,0.105
2653,-0.740,0.100
2654,-0.735,0.110
2655,-0.720,0.110
2656,-0.720,0.110
2657,-0.720,0.120
2658,-0.730,0.140
2659,-0.705,0.185
2660,-0.645,0.215
2661,-0.560,0.260
2662,-0.410,0.270
2663,-0.215,0.235
2664,0.010,0.155
2665,0.265,0.035
2666,0.480,-0.155
2667,0.695,-0.400
2668,0.885,-0.720
2669,1.050,-1.065
2670,1.180,-1.440
2671,1.265,-1.760
2672,1.280,-1.960
2673,1.210,-2.055
2674,1.070,-2.025
2675,0.850,-1.910
2676,0.535,-1.730
2677,0.175,-1.515
2678,-0.190,-1.270
2679,-0.440,-1.015
2680,-0.620,-0.795
2681,-0.710,-0.600
2682,-0.745,-0.470
2683,-0.725,-0.360
2684,-0.720,-0.280
2685,-0.725,-0.200
2686,-0.740,-0.120
2687,-0.770,-0.035
2688,-0.785,0.035
2689,-0.815,0.090
2690,-0.820,0.135
2691,-0.815,0.135
2692,-0.820,0.140
2693,-0.830,0.145
2694,-0.835,0.165
2695,-0.850,0.165
2696,-0.845,0.165
2697,-0.850,0.185
2698,-0.840,0.200
2699,-0.835,0.210
2700,-0.820,0.215
2701,-0.815,0.230
2702,-0.825,0.240
2703,-0.835,0.230
2704,-0.835,0.235
2705,-0.840,0.235
2706,-0.845,0.230
2707,-0.855,0.235
2708,-0.845,0.245
2709,-0.840,0.250
2710,-0.855,0.270
2711,-0.850,0.290
2712,-0.845,0.295
2713,-0.845,0.315
2714,-0.835,0.295
2715,-0.850,0.295
2716,-0.865,0.290
2717,-0.850,0.300
2718,-0.860,0.315
2719,-0.865,0.325
2720,-0.875,0.340
2721,-0.865,0.345
2722,-0.855,0.365
2723,-0.855,0.375
2724,-0.855,0.385
2725,-0.875,0.390
2726,-0.875,0.400
2727,-0.900,0.415
2728,-0.905,0.415
2729,-0.915,0.430
2730,-0.930,0.435
2731,-0.955,0.435
2732,-0.945,0.435
2733,-0.960,0.450
2734,-0.960,0.465
2735,-0.970,0.475
2736,-0.965,0.495
2737,-0.975,0.515
2738,-0.965,0.505
2739,-0.980,0.515
2740,-0.990,0.520
2741,-1.010,0.520
2742,-1.025,0.535
2743,-1.025,0.525
2744,-1.015,0.515
2745,-1.005,0.540
2746,-1.000,0.550
2747,-1.000,0.565
2748,-0.990,0.565
2749,-0.980,0.575
2750,-0.970,0.560
2751,-0.955,0.540
2752,-0.945,0.515
2753,-0.940,0.505
2754,-0.915,0.490
2755,-0.905,0.480
2756,-0.870,0.450
2757,-0.845,0.455
2758,-0.810,0.440
2759,-0.785,0.415
2760,-0.750,0.395
2761,-0.720,0.370
2762,-0.700,0.345
2763,-0.690,0.315
2764,-0.680,0.300
2765,-0.665,0.270
2766,-0.665,0.255
2767,-0.650,0.240
2768,-0.640,0.230
2769,-0.630,0.220
2770,-0.620,0.220
2771,-0.605,0.210
2772,-0.600,0.200
2773,-0.585,0.180
2774,-0.590,0.180
2775,-0.595,0.160
2776,-0.585,0.170
2777,-0.600,0.160
2778,-0.605,0.155
2779,-0.600,0.155
2780,-0.600,0.145
2781,-0.580,0.150
2782,-0.575,0.130
2783,-0.585,0.145
2784,-0.565,0.155
2785,-0.580,0.155
2786,-0.575,0.165
2787,-0.560,0.160
2788,-0.570,0.150
2789,-0.575,0.140
2790,-0.580,0.130
2791,-0.575,0.110
2792,-0.580,0.125
2793,-0.575,0.135
2794,-0.580,0.145
2795,-0.575,0.160
2796,-0.555,0.170
2797,-0.550,0.165
2798,-0.545,0.155
2799,-0.535,0.150
2800,-0.545,0.135
2801,-0.545,0.120
2802,-0.550,0.120
2803,-0.555,0.125
2804,-0.555,0.130
2805,-0.545,0.130
2806,-0.555,0.140
2807,-0.545,0.150
2808,-0.535,0.160
2809,-0.530,0.165
2810,-0.510,0.150
2811,-0.515,0.150
2812,-0.520,0.140
2813,-0.515,0.140
2814,-0.510,0.145
2815,-0.510,0.155
2816,-0.500,0.180
2817,-0.495,0.185
2818,-0.465,0.205
2819,-0.440,0.235
2820,-0.415,0.265
2821,-0.390,0.290
2822,-0.380,0.310
2823,-0.370,0.305
2824,-0.365,0.305
2825,-0.355,0.300
2826,-0.340,0.290
2827,-0.310,0.280
2828,-0.285,0.260
2829,-0.240,0.230
2830,-0.215,0.230
2831,-0.200,0.195
2832,-0.190,0.190
2833,-0.200,0.150
2834,-0.215,0.130
2835,-0.225,0.135
2836,-0.235,0.110
2837,-0.250,0.120
2838,-0.240,0.105
2839,-0.230,0.115
2840,-0.220,0.090
2841,-0.220,0.075
2842,-0.230,0.055
2843,-0.250,0.060
2844,-0.285,0.055
2845,-0.315,0.055
2846,-0.350,0.060
2847,-0.380,0.080
2848,-0.395,0.090
2849,-0.410,0.095
2850,-0.425,0.085
2851,-0.430,0.080
2852,-0.440,0.070
2853,-0.435,0.085
2854,-0.445,0.095
2855,-0.450,0.105
2856,-0.450,0.110
2857,-0.455,0.110
2858,-0.455,0.100
2859,-0.445,0.085
2860,-0.455,0.075
2861,-0.455,0.075
2862,-0.465,0.065
2863,-0.465,0.070
2864,-0.455,0.065
2865,-0.445,0.070
2866,-0.445,0.075
2867,-0.435,0.065
2868,-0.435,0.090
2869,-0.420,0.095
2870,-0.410,0.115
2871,-0.390,0.150
2872,-0.350,0.200
2873,-0.290,0.220
2874,-0.170,0.250
2875,-0.020,0.230
2876,0.190,0.160
2877,0.400,0.035
2878,0.630,-0.085
2879,0.820,-0.295
2880,1.020,-0.545
2881,1.200,-0.840
2882,1.355,-1.185
2883,1.485,-1.535
2884,1.560,-1.820
2885,1.575,-2.020
2886,1.515,-2.090
2887,1.400,-2.070
2888,1.225,-1.975
2889,0.975,-1.830
2890,0.660,-1.640
2891,0.325,-1.430
2892,0.055,-1.190
2893,-0.165,-0.950
2894,-0.300,-0.745
2895,-0.350,-0.605
2896,-0.370,-0.475
2897,-0.380,-0.390
2898,-0.385,-0.310
2899,-0.390,-0.240
2900,-0.425,-0.175
2901,-0.460,-0.100
2902,-0.520,-0.025
2903,-0.525,0.035
2904,-0.515,0.075
2905,-0.515,0.100
2906,-0.520,0.105
2907,-0.520,0.120
2908,-0.515,0.110
2909,-0.530,0.095
2910,-0.545,0.125
2911,-0.555,0.125
2912,-0.555,0.135
2913,-0.555,0.150
2914,-0.535,0.170
2915,-0.525,0.185
2916,-0.510,0.195
2917,-0.515,0.195
2918,-0.535,0.195
2919,-0.525,0.195
2920,-0.530,0.195
2921,-0.535,0.195
2922,-0.535,0.195
2923,-0.540,0.205
2924,-0.535,0.205
2925,-0.525,0.215
2926,-0.520,0.235
2927,-0.530,0.240
2928,-0.535,0.250
2929,-0.530,0.250
2930,-0.535,0.250
2931,-0.550,0.260
2932,-0.545,0.265
2933,-0.555,0.250
2934,-0.565,0.255
2935,-0.565,0.270
2936,-0.565,0.285
2937,-0.565,0.290
2938,-0.560,0.300
2939,-0.565,0.315
2940,-0.560,0.335
2941,-0.570,0.330
2942,-0.570,0.350
2943,-0.575,0.365
2944,-0.590,0.360
2945,-0.600,0.355
2946,-0.625,0.355
2947,-0.640,0.365
2948,-0.645,0.375
2949,-0.655,0.395
2950,-0.665,0.405
2951,-0.670,0.440
2952,-0.670,0.455
2953,-0.665,0.470
2954,-0.680,0.460
2955,-0.690,0.465
2956,-0.700,0.465
2957,-0.715,0.455
2958,-0.730,0.470
2959,-0.745,0.465
2960,-0.755,0.480
2961,-0.760,0.505
2962,-0.760,0.510
2963,-0.745,0.510
2964,-0.735,0.520
2965,-0.730,0.515
2966,-0.720,0.505
2967,-0.705,0.495
2968,-0.690,0.480
2969,-0.680,0.470
2970,-0.680,0.450
2971,-0.660,0.435
2972,-0.635,0.435
2973,-0.605,0.415
2974,-0.575,0.395
2975,-0.545,0.380
2976,-0.520,0.365
2977,-0.495,0.345
2978,-0.470,0.310
2979,-0.450,0.290
2980,-0.425,0.255
2981,-0.410,0.230
2982,-0.400,0.225
2983,-0.390,0.200
2984,-0.365,0.175
2985,-0.345,0.165
2986,-0.320,0.150
2987,-0.310,0.130
2988,-0.285,0.135
2989,-0.265,0.115
2990,-0.280,0.110
2991,-0.270,0.100
2992,-0.265,0.090
2993,-0.280,0.080
2994,-0.290,0.055
2995,-0.275,0.045
2996,-0.265,0.050
2997,-0.250,0.050
2998,-0.230,0.065
2999,-0.205,0.075
3000,-0.180,0.085
3001,-0.135,0.065
3002,-0.100,0.065
3003,-0.060,0.070
3004,-0.020,0.040
3005,0.025,0.025
3006,0.075,0.030
3007,0.140,0.005
3008,0.215,0.015
3009,0.300,0.005
3010,0.405,0.000
3011,0.520,0.000
3012,0.615,0.000
3013,0.695,-0.020
3014,0.705,-0.070
3015,0.625,-0.115
3016,0.445,-0.185
3017,0.145,-0.260
3018,-0.230,-0.310
3019,-0.630,-0.350
3020,-0.985,-0.355
3021,-1.300,-0.360
3022,-1.525,-0.330
3023,-1.675,-0.360
3024,-1.795,-0.370
3025,-1.885,-0.390
3026,-1.970,-0.395
3027,-2.050,-0.380
3028,-2.125,-0.310
3029,-2.175,-0.210
3030,-2.190,-0.075
3031,-2.175,0.090
3032,-2.125,0.230
3033,-2.035,0.385
3034,-1.960,0.520
3035,-1.870,0.635
3036,-1.765,0.745
3037,-1.650,0.835
3038,-1.555,0.890
3039,-1.460,0.960
3040,-1.400,0.990
3041,-1.340,1.010
3042,-1.270,1.025
3043,-1.195,1.015
3044,-1.085,0.940
3045,-0.940,0.800
3046,-0.805,0.590
3047,-0.695,0.325
3048,-0.605,0.055
3049,-0.555,-0.175
3050,-0.525,-0.340
3051,-0.500,-0.410
3052,-0.445,-0.435
3053,-0.360,-0.380
3054,-0.250,-0.330
3055,-0.090,-0.280
3056,0.085,-0.215
3057,0.210,-0.175
3058,0.295,-0.145
3059,0.325,-0.140
3060,0.320,-0.125
3061,0.300,-0.120
3062,0.270,-0.125
3063,0.245,-0.115
3064,0.250,-0.105
3065,0.255,-0.095
3066,0.260,-0.100
3067,0.280,-0.100
3068,0.290,-0.100
3069,0.310,-0.085
3070,0.325,-0.090
3071,0.340,-0.080
3072,0.360,-0.090
3073,0.370,-0.090
3074,0.385,-0.080
3075,0.395,-0.100
3076,0.415,-0.110
3077,0.405,-0.110
3078,0.420,-0.110
3079,0.425,-0.115
3080,0.445,-0.120
3081,0.455,-0.110
3082,0.495,-0.120
3083,0.515,-0.120
3084,0.545,-0.110
3085,0.560,-0.100
3086,0.580,-0.110
3087,0.600,-0.115
3088,0.605,-0.120
3089,0.635,-0.130
3090,0.645,-0.135
3091,0.665,-0.145
3092,0.685,-0.155
3093,0.705,-0.150
3094,0.730,-0.140
3095,0.760,-0.130
3096,0.805,-0.135
3097,0.820,-0.130
3098,0.840,-0.140
3099,0.855,-0.150
3100,0.855,-0.175
3101,0.860,-0.180
3102,0.860,-0.195
3103,0.865,-0.200
3104,0.865,-0.195
3105,0.875,-0.190
3106,0.875,-0.185
3107,0.870,-0.205
3108,0.840,-0.195
3109,0.830,-0.205
3110,0.820,-0.215
3111,0.795,-0.225
3112,0.765,-0.245
3113,0.730,-0.235
3114,0.710,-0.260
3115,0.675,-0.250
3116,0.635,-0.260
3117,0.615,-0.250
3118,0.585,-0.255
3119,0.545,-0.240
3120,0.500,-0.225
3121,0.475,-0.220
3122,0.430,-0.215
3123,0.400,-0.210
3124,0.360,-0.200
3125,0.310,-0.170
3126,0.280,-0.180
3127,0.230,-0.165
3128,0.215,-0.155
3129,0.180,-0.140
3130,0.160,-0.130
3131,0.145,-0.095
3132,0.125,-0.075
3133,0.105,-0.055
3134,0.075,-0.055
3135,0.065,-0.040
3136,0.060,-0.030
3137,0.035,-0.035
3138,0.020,-0.030
3139,0.005,-0.040
3140,-0.010,-0.035
3141,-0.020,-0.015
3142,-0.025,-0.005
3143,-0.025,0.000
3144,-0.040,0.005
3145,-0.035,-0.005
3146,-0.030,-0.005
3147,-0.035,-0.015
3148,-0.035,-0.020
3149,-0.045,-0.030
3150,-0.045,-0.030
3151,-0.060,-0.015
3152,-0.055,-0.015
3153,-0.050,-0.015
3154,-0.045,-0.020
3155,-0.035,-0.010
3156,-0.035,-0.010
3157,-0.025,-0.005
3158,-0.040,-0.015
3159,-0.035,-0.030
3160,-0.045,-0.025
3161,-0.045,-0.020
3162,-0.040,-0.035
3163,-0.055,-0.040
3164,-0.045,-0.035
3165,-0.055,-0.025
3166,-0.040,-0.035
3167,-0.050,-0.025
3168,-0.035,-0.025
3169,-0.030,-0.025
3170,-0.035,-0.020
3171,-0.030,-0.025
3172,-0.035,-0.030
3173,-0.055,-0.035
3174,-0.060,-0.050
3175,-0.070,-0.055
3176,-0.075,-0.065
3177,-0.065,-0.060
3178,-0.085,-0.040
3179,-0.070,-0.030
3180,-0.060,-0.020
3181,-0.050,-0.030
3182,-0.055,-0.020
3183,-0.040,-0.035
3184,-0.060,-0.050
3185,-0.070,-0.045
3186,-0.085,-0.060
3187,-0.085,-0.060
3188,-0.075,-0.070
3189,-0.075,-0.065
3190,-0.070,-0.065
3191,-0.070,-0.060
3192,-0.060,-0.040
3193,-0.060,-0.050
3194,-0.060,-0.045
3195,-0.065,-0.055
3196,-0.080,-0.060
3197,-0.100,-0.075
3198,-0.095,-0.085
3199,-0.100,-0.090
3200,-0.105,-0.085
3201,-0.090,-0.070
3202,-0.075,-0.065
3203,-0.075,-0.065
3204,-0.070,-0.060
3205,-0.060,-0.070
3206,-0.070,-0.070
3207,-0.075,-0.075
3208,-0.080,-0.080
3209,-0.090,-0.085
3210,-0.080,-0.080
3211,-0.085,-0.085
3212,-0.080,-0.085
3213,-0.100,-0.090
3214,-0.085,-0.080
3215,-0.080,-0.080
3216,-0.070,-0.070
3217,-0.050,-0.075
3218,-0.055,-0.090
3219,-0.055,-0.095
3220,-0.065,-0.100
3221,-0.065,-0.110
3222,-0.080,-0.105
3223,-0.070,-0.115
3224,-0.080,-0.090
3225,-0.070,-0.100
3226,-0.060,-0.100
3227,-0.065,-0.085
3228,-0.060,-0.095
3229,-0.050,-0.090
3230,-0.060,-0.090
3231,-0.050,-0.095
3232,-0.055,-0.100
3233,-0.060,-0.115
3234,-0.055,-0.125
3235,-0.060,-0.115
3236,-0.070,-0.115
3237,-0.055,-0.115
3238,-0.045,-0.110
3239,-0.050,-0.110
3240,-0.035,-0.100
3241,-0.025,-0.085
3242,-0.010,-0.090
3243,-0.010,-0.075
3244,0.000,-0.065
3245,0.005,-0.055
3246,0.025,-0.040
3247,0.040,0.000
3248,0.065,0.030
3249,0.090,0.045
3250,0.095,0.045
3251,0.110,0.070
3252,0.130,0.060
3253,0.145,0.060
3254,0.165,0.030
3255,0.195,0.010
3256,0.220,-0.035
3257,0.250,-0.065
3258,0.265,-0.095
3259,0.270,-0.105
3260,0.260,-0.120
3261,0.240,-0.110
3262,0.220,-0.125
3263,0.215,-0.115
3264,0.220,-0.110
3265,0.235,-0.130
3266,0.220,-0.155
3267,0.235,-0.190
3268,0.230,-0.200
3269,0.200,-0.230
3270,0.170,-0.235
3271,0.125,-0.225
3272,0.100,-0.225
3273,0.075,-0.200
3274,0.055,-0.175
3275,0.050,-0.165
3276,0.045,-0.165
3277,0.020,-0.160
3278,0.015,-0.155
3279,-0.005,-0.165
3280,-0.020,-0.155
3281,-0.030,-0.165
3282,-0.040,-0.180
3283,-0.050,-0.190
3284,-0.050,-0.190
3285,-0.040,-0.200
3286,-0.030,-0.190
3287,-0.025,-0.195
3288,0.000,-0.180
3289,0.000,-0.180
3290,-0.005,-0.180
3291,0.000,-0.175
3292,-0.010,-0.175
3293,-0.010,-0.160
3294,-0.005,-0.145
3295,0.000,-0.095
3296,0.060,-0.070
3297,0.145,-0.025
3298,0.295,-0.025
3299,0.485,-0.070
3300,0.695,-0.170
3301,0.915,-0.335
3302,1.110,-0.550
3303,1.290,-0.820
3304,1.470,-1.155
3305,1.640,-1.530
3306,1.785,-1.915
3307,1.875,-2.215
3308,1.905,-2.390
3309,1.870,-2.430
3310,1.760,-2.365
3311,1.585,-2.225
3312,1.330,-2.050
3313,1.010,-1.840
3314,0.690,-1.610
3315,0.425,-1.350
3316,0.225,-1.125
3317,0.085,-0.920
3318,0.025,-0.785
3319,0.000,-0.690
3320,0.000,-0.610
3321,-0.015,-0.540
3322,-0.030,-0.465
3323,-0.055,-0.385
3324,-0.095,-0.320
3325,-0.120,-0.240
3326,-0.135,-0.210
3327,-0.145,-0.165
3328,-0.145,-0.155
3329,-0.155,-0.170
3330,-0.165,-0.175
3331,-0.160,-0.170
3332,-0.175,-0.160
3333,-0.160,-0.155
3334,-0.160,-0.130
3335,-0.160,-0.110
3336,-0.155,-0.095
3337,-0.160,-0.090
3338,-0.165,-0.080
3339,-0.170,-0.080
3340,-0.190,-0.075
3341,-0.175,-0.080
3342,-0.180,-0.085
3343,-0.180,-0.090
3344,-0.190,-0.075
3345,-0.185,-0.060
3346,-0.190,-0.040
3347,-0.185,-0.030
3348,-0.180,-0.020
3349,-0.170,-0.015
3350,-0.190,-0.020
3351,-0.185,-0.025
3352,-0.190,-0.020
3353,-0.190,-0.015
3354,-0.200,0.000
3355,-0.200,0.005
3356,-0.215,0.015
3357,-0.215,0.020
3358,-0.220,0.030
3359,-0.215,0.040
3360,-0.225,0.045
3361,-0.230,0.065
3362,-0.230,0.080
3363,-0.240,0.075
3364,-0.255,0.085
3365,-0.270,0.075
3366,-0.275,0.090
3367,-0.295,0.085
3368,-0.300,0.090
3369,-0.320,0.100
3370,-0.325,0.110
3371,-0.330,0.125
3372,-0.340,0.150
3373,-0.350,0.165
3374,-0.355,0.175
3375,-0.370,0.170
3376,-0.395,0.185
3377,-0.430,0.175
3378,-0.440,0.180
3379,-0.470,0.160
3380,-0.480,0.180
3381,-0.490,0.195
3382,-0.495,0.215
3383,-0.510,0.220
3384,-0.500,0.240
3385,-0.500,0.240
3386,-0.505,0.230
3387,-0.500,0.225
3388,-0.500,0.215
3389,-0.495,0.195
3390,-0.500,0.200
3391,-0.495,0.190
3392,-0.490,0.200
3393,-0.470,0.195
3394,-0.460,0.185
3395,-0.430,0.170
3396,-0.400,0.175
3397,-0.360,0.160
3398,-0.335,0.130
3399,-0.310,0.120
3400,-0.285,0.090
3401,-0.255,0.065
3402,-0.220,0.045
3403,-0.200,0.020
3404,-0.160,-0.015
3405,-0.125,-0.025
3406,-0.090,-0.045
3407,-0.065,-0.055
3408,-0.030,-0.080
3409,-0.005,-0.095
3410,0.015,-0.110
3411,0.015,-0.125
3412,0.045,-0.145
3413,0.065,-0.155
3414,0.065,-0.175
3415,0.065,-0.195
3416,0.065,-0.205
3417,0.075,-0.205
3418,0.085,-0.200
3419,0.080,-0.190
3420,0.105,-0.180
3421,0.115,-0.190
3422,0.115,-0.195
3423,0.125,-0.200
3424,0.120,-0.210
3425,0.115,-0.215
3426,0.100,-0.220
3427,0.095,-0.230
3428,0.105,-0.225
3429,0.115,-0.215
3430,0.125,-0.200
3431,0.125,-0.195
3432,0.125,-0.190
3433,0.140,-0.190
3434,0.145,-0.195
3435,0.145,-0.205
3436,0.130,-0.215
3437,0.125,-0.215
3438,0.120,-0.225
3439,0.130,-0.210
3440,0.120,-0.200
3441,0.115,-0.205
3442,0.115,-0.195
3443,0.140,-0.200
3444,0.140,-0.200
3445,0.135,-0.190
3446,0.140,-0.190
3447,0.140,-0.180
3448,0.145,-0.185
3449,0.135,-0.185
3450,0.140,-0.195
3451,0.135,-0.180
3452,0.155,-0.175
3453,0.165,-0.165
3454,0.190,-0.140
3455,0.210,-0.120
3456,0.230,-0.080
3457,0.265,-0.060
3458,0.265,-0.035
3459,0.280,-0.010
3460,0.300,-0.010
3461,0.300,-0.015
3462,0.305,-0.025
3463,0.320,-0.050
3464,0.340,-0.050
3465,0.370,-0.060
3466,0.405,-0.080
3467,0.445,-0.095
3468,0.485,-0.115
3469,0.505,-0.150
3470,0.490,-0.175
3471,0.460,-0.210
3472,0.440,-0.220
3473,0.425,-0.235
3474,0.410,-0.230
3475,0.415,-0.235
3476,0.420,-0.250
3477,0.435,-0.250
3478,0.440,-0.265
3479,0.420,-0.280
3480,0.410,-0.300
3481,0.390,-0.310
3482,0.360,-0.330
3483,0.330,-0.320
3484,0.305,-0.305
3485,0.275,-0.300
3486,0.250,-0.270
3487,0.240,-0.270
3488,0.220,-0.250
3489,0.190,-0.260
3490,0.190,-0.260
3491,0.190,-0.260
3492,0.180,-0.245
3493,0.180,-0.250
3494,0.175,-0.260
3495,0.180,-0.270
3496,0.175,-0.275
3497,0.170,-0.270
3498,0.165,-0.280
3499,0.170,-0.280
3500,0.185,-0.285
3501,0.185,-0.285
3502,0.195,-0.290
3503,0.200,-0.290
3504,0.200,-0.280
3505,0.220,-0.280
3506,0.235,-0.250
3507,0.255,-0.215
3508,0.275,-0.180
3509,0.325,-0.140
3510,0.410,-0.100
3511,0.535,-0.100
3512,0.720,-0.145
3513,0.920,-0.245
3514,1.120,-0.385
3515,1.305,-0.565
3516,1.470,-0.800
3517,1.610,-1.115
3518,1.765,-1.495
3519,1.900,-1.885
3520,1.980,-2.245
3521,2.030,-2.495
3522,2.020,-2.620
3523,1.960,-2.610
3524,1.860,-2.520
3525,1.685,-2.375
3526,1.450,-2.175
3527,1.155,-1.965
3528,0.860,-1.710
3529,0.610,-1.445
3530,0.405,-1.205
3531,0.265,-0.995
3532,0.185,-0.840
3533,0.150,-0.725
3534,0.135,-0.655
3535,0.125,-0.580
3536,0.130,-0.505
3537,0.115,-0.445
3538,0.105,-0.360
3539,0.095,-0.300
3540,0.095,-0.265
3541,0.095,-0.250
3542,0.075,-0.235
3543,0.085,-0.225
3544,0.085,-0.225
3545,0.080,-0.225
3546,0.075,-0.205
3547,0.055,-0.195
3548,0.050,-0.195
3549,0.060,-0.190
3550,0.060,-0.175
3551,0.050,-0.155
3552,0.070,-0.150
3553,0.075,-0.140
3554,0.075,-0.125
3555,0.075,-0.120
3556,0.070,-0.120
3557,0.055,-0.125
3558,0.055,-0.125
3559,0.050,-0.120
3560,0.050,-0.120
3561,0.050,-0.105
3562,0.040,-0.095
3563,0.060,-0.070
3564,0.070,-0.050
3565,0.065,-0.045
3566,0.070,-0.040
3567,0.055,-0.030
3568,0.050,-0.035
3569,0.035,-0.035
3570,0.025,-0.035
3571,0.020,-0.035
3572,0.005,-0.020
3573,0.015,0.000
3574,0.015,0.020
3575,0.015,0.050
3576,0.010,0.050
3577,0.015,0.065
3578,0.000,0.065
3579,-0.005,0.065
3580,-0.015,0.080
3581,-0.035,0.065
3582,-0.055,0.090
3583,-0.070,0.095
3584,-0.090,0.110
3585,-0.095,0.135
3586,-0.100,0.145
3587,-0.100,0.165
3588,-0.100,0.175
3589,-0.100,0.175
3590,-0.110,0.195
3591,-0.115,0.190
3592,-0.140,0.200
3593,-0.150,0.205
3594,-0.160,0.210
3595,-0.170,0.210
3596,-0.170,0.215
3597,-0.160,0.220
3598,-0.155,0.225
3599,-0.140,0.240
3600,-0.115,0.240
3601,-0.095,0.245
3602,-0.100,0.225
3603,-0.075,0.230
3604,-0.065,0.205
3605,-0.050,0.165
3606,-0.035,0.155
3607,-0.010,0.125
3608,0.015,0.100
3609,0.050,0.090
3610,0.075,0.065
3611,0.100,0.035
3612,0.130,0.025
3613,0.165,0.000
3614,0.190,-0.025
3615,0.210,-0.075
3616,0.215,-0.105
3617,0.225,-0.135
3618,0.230,-0.165
3619,0.240,-0.170
3620,0.265,-0.185
3621,0.275,-0.185
3622,0.290,-0.190
3623,0.285,-0.195
3624,0.295,-0.210
3625,0.305,-0.225
3626,0.310,-0.240
3627,0.320,-0.250
3628,0.310,-0.250
3629,0.305,-0.270
3630,0.290,-0.260
3631,0.275,-0.265
3632,0.285,-0.255
3633,0.285,-0.265
3634,0.295,-0.270
3635,0.305,-0.265
3636,0.310,-0.260
3637,0.320,-0.270
3638,0.320,-0.265
3639,0.315,-0.270
3640,0.315,-0.265
3641,0.315,-0.265
3642,0.305,-0.285
3643,0.295,-0.270
3644,0.290,-0.290
3645,0.290,-0.280
3646,0.300,-0.275
3647,0.295,-0.265
3648,0.305,-0.260
3649,0.320,-0.255
3650,0.320,-0.260
3651,0.315,-0.250
3652,0.310,-0.270
3653,0.305,-0.285
3654,0.295,-0.290
3655,0.290,-0.285
3656,0.295,-0.285
3657,0.295,-0.285
3658,0.300,-0.280
3659,0.310,-0.270
3660,0.325,-0.255
3661,0.330,-0.250
3662,0.330,-0.260
3663,0.345,-0.250
3664,0.365,-0.260
3665,0.375,-0.250
3666,0.380,-0.225
3667,0.390,-0.195
3668,0.410,-0.155
3669,0.435,-0.125
3670,0.445,-0.105
3671,0.470,-0.095
3672,0.485,-0.090
3673,0.510,-0.095
3674,0.545,-0.105
3675,0.575,-0.120
3676,0.600,-0.165
3677,0.640,-0.190
3678,0.650,-0.225
3679,0.640,-0.260
3680,0.635,-0.270
3681,0.620,-0.295
3682,0.605,-0.305
3683,0.590,-0.290
3684,0.600,-0.300
3685,0.610,-0.295
3686,0.615,-0.310
3687,0.620,-0.330
3688,0.605,-0.375
3689,0.575,-0.400
3690,0.535,-0.425
3691,0.485,-0.440
3692,0.455,-0.420
3693,0.435,-0.380
3694,0.410,-0.360
3695,0.405,-0.330
3696,0.385,-0.305
3697,0.385,-0.320
3698,0.370,-0.310
3699,0.350,-0.320
3700,0.325,-0.330
3701,0.325,-0.350
3702,0.295,-0.360
3703,0.290,-0.360
3704,0.290,-0.360
3705,0.300,-0.340
3706,0.325,-0.350
3707,0.325,-0.345
3708,0.325,-0.340
3709,0.340,-0.350
3710,0.350,-0.350
3711,0.350,-0.350
3712,0.355,-0.340
3713,0.340,-0.345
3714,0.330,-0.330
3715,0.320,-0.305
3716,0.335,-0.270
3717,0.390,-0.220
3718,0.480,-0.165
3719,0.595,-0.160
3720,0.760,-0.190
3721,0.955,-0.270
3722,1.155,-0.420
3723,1.335,-0.620
3724,1.510,-0.870
3725,1.660,-1.180
3726,1.815,-1.550
3727,1.935,-1.935
3728,2.030,-2.295
3729,2.065,-2.530
3730,2.075,-2.650
3731,2.020,-2.620
3732,1.915,-2.510
3733,1.750,-2.355
3734,1.500,-2.165
3735,1.220,-1.950
3736,0.935,-1.700
3737,0.710,-1.445
3738,0.535,-1.225
3739,0.420,-1.035
3740,0.350,-0.895
3741,0.330,-0.795
3742,0.335,-0.715
3743,0.330,-0.645
3744,0.320,-0.565
3745,0.295,-0.510
3746,0.260,-0.455
3747,0.225,-0.390
3748,0.205,-0.350
3749,0.185,-0.330
3750,0.185,-0.320
3751,0.175,-0.310
3752,0.175,-0.300
3753,0.180,-0.285
3754,0.175,-0.260
3755,0.185,-0.260
3756,0.190,-0.245
3757,0.195,-0.245
3758,0.190,-0.225
3759,0.190,-0.235
3760,0.175,-0.225
3761,0.175,-0.225
3762,0.155,-0.220
3763,0.160,-0.215
3764,0.165,-0.215
3765,0.165,-0.205
3766,0.175,-0.185
3767,0.175,-0.175
3768,0.180,-0.155
3769,0.180,-0.150
3770,0.180,-0.145
3771,0.175,-0.135
3772,0.165,-0.125
3773,0.165,-0.135
3774,0.160,-0.135
3775,0.150,-0.135
3776,0.155,-0.125
3777,0.145,-0.115
3778,0.135,-0.105
3779,0.135,-0.080
3780,0.155,-0.065
3781,0.160,-0.055
3782,0.145,-0.050
3783,0.140,-0.040
3784,0.135,-0.040
3785,0.115,-0.040
3786,0.100,-0.025
3787,0.100,-0.035
3788,0.085,-0.020
3789,0.070,-0.005
3790,0.060,0.020
3791,0.045,0.055
3792,0.045,0.070
3793,0.030,0.085
3794,0.025,0.085
3795,0.010,0.095
3796,-0.005,0.100
3797,-0.020,0.100
3798,-0.040,0.105
3799,-0.050,0.110
3800,-0.070,0.135
3801,-0.080,0.150
3802,-0.090,0.155
3803,-0.090,0.170
3804,-0.080,0.175
3805,-0.070,0.180
3806,-0.080,0.175
3807,-0.080,0.180
3808,-0.090,0.180
3809,-0.100,0.195
3810,-0.085,0.180
3811,-0.080,0.170
3812,-0.070,0.150
3813,-0.050,0.150
3814,-0.025,0.140
3815,0.005,0.125
3816,0.030,0.110
3817,0.055,0.095
3818,0.080,0.075
3819,0.095,0.055
3820,0.120,0.035
3821,0.135,-0.015
3822,0.155,-0.040
3823,0.180,-0.070
3824,0.195,-0.100
3825,0.225,-0.115
3826,0.255,-0.130
3827,0.275,-0.150
3828,0.290,-0.170
3829,0.315,-0.180
3830,0.325,-0.195
3831,0.325,-0.225
3832,0.310,-0.240
3833,0.335,-0.260
3834,0.330,-0.275
3835,0.320,-0.280
3836,0.325,-0.285
3837,0.330,-0.275
3838,0.345,-0.280
3839,0.360,-0.270
3840,0.370,-0.265
3841,0.375,-0.265
3842,0.375,-0.280
3843,0.370,-0.280
3844,0.360,-0.305
3845,0.360,-0.305
3846,0.355,-0.310
3847,0.350,-0.315
3848,0.360,-0.310
3849,0.350,-0.295
3850,0.360,-0.295
3851,0.345,-0.295
3852,0.365,-0.280
3853,0.365,-0.295
3854,0.355,-0.305
3855,0.360,-0.295
3856,0.370,-0.295
3857,0.365,-0.310
3858,0.355,-0.300
3859,0.345,-0.315
3860,0.330,-0.315
3861,0.335,-0.315
3862,0.345,-0.310
3863,0.350,-0.305
3864,0.365,-0.295
3865,0.370,-0.300
3866,0.370,-0.290
3867,0.380,-0.290
3868,0.365,-0.300
3869,0.360,-0.305
3870,0.350,-0.310
3871,0.350,-0.310
3872,0.360,-0.315
3873,0.355,-0.295
3874,0.370,-0.305
3875,0.365,-0.275
3876,0.385,-0.265
3877,0.415,-0.230
3878,0.445,-0.205
3879,0.450,-0.185
3880,0.460,-0.165
3881,0.475,-0.145
3882,0.485,-0.155
3883,0.490,-0.140
3884,0.500,-0.130
3885,0.515,-0.130
3886,0.545,-0.135
3887,0.590,-0.130
3888,0.625,-0.160
3889,0.670,-0.190
3890,0.690,-0.225
3891,0.695,-0.255
3892,0.680,-0.290
3893,0.660,-0.300
3894,0.615,-0.310
3895,0.600,-0.310
3896,0.590,-0.315
3897,0.595,-0.305
3898,0.605,-0.315
3899,0.605,-0.335
3900,0.610,-0.355
3901,0.600,-0.385
3902,0.580,-0.400
3903,0.550,-0.430
3904,0.525,-0.415
3905,0.480,-0.420
3906,0.445,-0.400
3907,0.405,-0.370
3908,0.385,-0.365
3909,0.365,-0.360
3910,0.375,-0.345
3911,0.365,-0.350
3912,0.350,-0.345
3913,0.345,-0.325
3914,0.330,-0.325
3915,0.330,-0.330
3916,0.315,-0.350
3917,0.315,-0.365
3918,0.300,-0.370
3919,0.295,-0.380
3920,0.305,-0.390
3921,0.310,-0.385
3922,0.315,-0.385
3923,0.325,-0.370
3924,0.325,-0.355
3925,0.325,-0.360
3926,0.340,-0.355
3927,0.345,-0.355
3928,0.335,-0.350
3929,0.340,-0.325
3930,0.345,-0.295
3931,0.385,-0.250
3932,0.455,-0.190
3933,0.565,-0.175
3934,0.730,-0.195
3935,0.895,-0.280
3936,1.090,-0.420
3937,1.275,-0.605
3938,1.440,-0.840
3939,1.595,-1.120
3940,1.735,-1.460
3941,1.860,-1.815
3942,1.950,-2.165
3943,1.995,-2.430
3944,2.010,-2.585
3945,1.980,-2.620
3946,1.930,-2.585
3947,1.835,-2.475
3948,1.665,-2.335
3949,1.450,-2.170
3950,1.180,-1.985
3951,0.930,-1.775
3952,0.710,-1.540
3953,0.545,-1.310
3954,0.420,-1.115
3955,0.365,-0.970
3956,0.335,-0.855
3957,0.320,-0.785
3958,0.325,-0.705
3959,0.310,-0.645
3960,0.275,-0.575
3961,0.255,-0.500
3962,0.210,-0.425
3963,0.185,-0.390
3964,0.175,-0.345
3965,0.165,-0.325
3966,0.160,-0.330
3967,0.150,-0.315
3968,0.145,-0.320
3969,0.160,-0.305
3970,0.155,-0.295
3971,0.165,-0.280
3972,0.160,-0.250
3973,0.150,-0.240
3974,0.155,-0.225
3975,0.145,-0.225
3976,0.135,-0.225
3977,0.125,-0.215
3978,0.105,-0.230
3979,0.120,-0.230
3980,0.110,-0.215
3981,0.115,-0.200
3982,0.125,-0.195
3983,0.130,-0.170
3984,0.135,-0.160
3985,0.140,-0.160
3986,0.140,-0.160
3987,0.130,-0.150
3988,0.125,-0.155
3989,0.100,-0.150
3990,0.105,-0.140
3991,0.095,-0.130
3992,0.095,-0.120
3993,0.085,-0.090
3994,0.090,-0.090
3995,0.090,-0.065
3996,0.090,-0.065
3997,0.100,-0.050
3998,0.085,-0.045
3999,0.080,-0.040
4000,0.065,-0.020
4001,0.045,-0.025
4002,0.020,-0.010
4003,0.020,-0.005
4004,0.015,0.005
4005,0.000,0.020
4006,0.000,0.030
4007,-0.015,0.045
4008,-0.015,0.075
4009,-0.020,0.080
4010,-0.030,0.100
4011,-0.045,0.120
4012,-0.075,0.120
4013,-0.075,0.115
4014,-0.105,0.125
4015,-0.120,0.125
4016,-0.115,0.130
4017,-0.125,0.160
4018,-0.125,0.155
4019,-0.125,0.170
4020,-0.115,0.190
4021,-0.100,0.185
4022,-0.100,0.195
4023,-0.105,0.205
4024,-0.090,0.175
4025,-0.085,0.170
4026,-0.080,0.145
4027,-0.085,0.130
4028,-0.065,0.130
4029,-0.045,0.120
4030,-0.010,0.120
4031,0.015,0.115
4032,0.040,0.100
4033,0.070,0.070
4034,0.085,0.030
4035,0.115,0.005
4036,0.120,-0.025
4037,0.140,-0.060
4038,0.155,-0.085
4039,0.155,-0.100
4040,0.180,-0.140
4041,0.195,-0.150
4042,0.215,-0.150
4043,0.240,-0.170
4044,0.260,-0.175
4045,0.275,-0.200
4046,0.280,-0.205
4047,0.285,-0.240
4048,0.285,-0.250
4049,0.280,-0.265
4050,0.280,-0.270
4051,0.280,-0.275
4052,0.280,-0.285
4053,0.285,-0.285
4054,0.290,-0.280
4055,0.295,-0.290
4056,0.300,-0.285
4057,0.310,-0.290
4058,0.300,-0.285
4059,0.300,-0.285
4060,0.310,-0.290
4061,0.290,-0.295
4062,0.285,-0.305
4063,0.280,-0.295
4064,0.270,-0.310
4065,0.280,-0.305
4066,0.290,-0.310
4067,0.300,-0.315
4068,0.300,-0.315
4069,0.315,-0.295
4070,0.310,-0.295
4071,0.310,-0.285
4072,0.310,-0.295
4073,0.290,-0.305
4074,0.295,-0.305
4075,0.280,-0.310
4076,0.285,-0.315
4077,0.275,-0.305
4078,0.285,-0.300
4079,0.285,-0.285
4080,0.290,-0.280
4081,0.290,-0.275
4082,0.290,-0.285
4083,0.285,-0.275
4084,0.290,-0.295
4085,0.280,-0.310
4086,0.275,-0.315
4087,0.265,-0.310
4088,0.270,-0.305
4089,0.270,-0.300
4090,0.275,-0.280
4091,0.285,-0.250
4092,0.320,-0.245
4093,0.335,-0.235
4094,0.360,-0.200
4095,0.375,-0.190
4096,0.390,-0.155
4097,0.405,-0.140
4098,0.405,-0.125
4099,0.420,-0.120
4100,0.415,-0.130
4101,0.430,-0.115
4102,0.460,-0.110
4103,0.495,-0.120
4104,0.520,-0.125
4105,0.575,-0.145
4106,0.600,-0.180
4107,0.620,-0.215
4108,0.615,-0.245
4109,0.600,-0.275
4110,0.550,-0.285
4111,0.545,-0.305
4112,0.520,-0.310
4113,0.520,-0.310
4114,0.535,-0.310
4115,0.545,-0.305
4116,0.540,-0.315
4117,0.550,-0.350
4118,0.520,-0.370
4119,0.495,-0.385
4120,0.460,-0.405
4121,0.415,-0.405
4122,0.395,-0.405
4123,0.350,-0.385
4124,0.335,-0.370
4125,0.320,-0.350
4126,0.315,-0.335
4127,0.305,-0.335
4128,0.295,-0.335
4129,0.285,-0.320
4130,0.265,-0.325
4131,0.255,-0.320
4132,0.235,-0.335
4133,0.225,-0.350
4134,0.210,-0.350
4135,0.225,-0.375
4136,0.220,-0.360
4137,0.235,-0.355
4138,0.245,-0.345
4139,0.245,-0.340
4140,0.255,-0.345
4141,0.250,-0.340
4142,0.245,-0.335
4143,0.235,-0.340
4144,0.230,-0.320
4145,0.240,-0.295
4146,0.240,-0.260
4147,0.275,-0.210
4148,0.340,-0.165
4149,0.445,-0.130
4150,0.605,-0.160
4151,0.785,-0.235
4152,0.965,-0.365
4153,1.155,-0.525
4154,1.310,-0.745
4155,1.460,-1.020
4156,1.610,-1.340
4157,1.740,-1.695
4158,1.850,-2.055
4159,1.925,-2.355
4160,1.960,-2.545
4161,1.940,-2.625
4162,1.875,-2.595
4163,1.800,-2.500
4164,1.645,-2.370
4165,1.445,-2.220
4166,1.180,-2.050
4167,0.920,-1.845
4168,0.675,-1.595
4169,0.500,-1.345
4170,0.355,-1.130
4171,0.270,-0.975
4172,0.225,-0.850
4173,0.220,-0.760
4174,0.215,-0.695
4175,0.195,-0.610
4176,0.180,-0.545
4177,0.150,-0.470
4178,0.105,-0.400
4179,0.065,-0.335
4180,0.050,-0.315
4181,0.045,-0.295
4182,0.040,-0.310
4183,0.040,-0.305
4184,0.040,-0.290
4185,0.030,-0.280
4186,0.030,-0.260
4187,0.040,-0.240
4188,0.030,-0.215
4189,0.035,-0.210
4190,0.020,-0.200
4191,0.025,-0.205
4192,0.015,-0.195
4193,0.015,-0.200
4194,0.010,-0.205
4195,0.000,-0.200
4196,0.000,-0.175
4197,-0.005,-0.180
4198,0.000,-0.155
4199,-0.005,-0.140
4200,-0.005,-0.120
4201,0.000,-0.125
4202,0.005,-0.120
4203,-0.005,-0.115
4204,-0.010,-0.115
4205,-0.010,-0.115
4206,-0.015,-0.105
4207,-0.025,-0.095
4208,-0.035,-0.095
4209,-0.040,-0.065
4210,-0.045,-0.060
4211,-0.040,-0.045
4212,-0.040,-0.035
4213,-0.040,-0.025
4214,-0.050,-0.010
4215,-0.055,-0.010
4216,-0.060,-0.005
4217,-0.075,-0.010
4218,-0.085,0.000
4219,-0.105,0.010
4220,-0.120,0.025
4221,-0.120,0.050
4222,-0.130,0.065
4223,-0.150,0.070
4224,-0.145,0.095
4225,-0.160,0.115
4226,-0.165,0.125
4227,-0.180,0.150
4228,-0.185,0.140
4229,-0.205,0.150
4230,-0.215,0.150
4231,-0.230,0.145
4232,-0.245,0.170
4233,-0.250,0.160
4234,-0.250,0.190
4235,-0.260,0.195
4236,-0.270,0.225
4237,-0.255,0.245
4238,-0.260,0.225
4239,-0.270,0.230
4240,-0.265,0.215
4241,-0.265,0.210
4242,-0.265,0.195
4243,-0.265,0.190
4244,-0.260,0.190
4245,-0.235,0.195
4246,-0.210,0.180
4247,-0.190,0.175
4248,-0.165,0.165
4249,-0.135,0.160
4250,-0.130,0.105
4251,-0.095,0.095
4252,-0.090,0.060
4253,-0.065,0.030
4254,-0.050,-0.005
4255,-0.030,-0.015
4256,-0.015,-0.035
4257,0.005,-0.060
4258,0.030,-0.085
4259,0.050,-0.105
4260,0.060,-0.125
4261,0.095,-0.140
4262,0.100,-0.160
4263,0.110,-0.185
4264,0.110,-0.190
4265,0.110,-0.205
4266,0.100,-0.225
4267,0.090,-0.230
4268,0.100,-0.225
4269,0.085,-0.240
4270,0.095,-0.240
4271,0.110,-0.240
4272,0.105,-0.235
4273,0.120,-0.235
4274,0.105,-0.240
4275,0.090,-0.245
4276,0.100,-0.250
4277,0.090,-0.265
4278,0.095,-0.270
4279,0.090,-0.270
4280,0.090,-0.265
4281,0.090,-0.260
4282,0.090,-0.255
4283,0.100,-0.255
4284,0.100,-0.230
4285,0.100,-0.235
4286,0.100,-0.245
4287,0.100,-0.240
4288,0.095,-0.255
4289,0.075,-0.260
4290,0.075,-0.270
4291,0.070,-0.265
4292,0.060,-0.260
4293,0.075,-0.255
4294,0.070,-0.240
4295,0.080,-0.240
4296,0.080,-0.220
4297,0.080,-0.230
4298,0.075,-0.235
4299,0.075,-0.235
4300,0.065,-0.245
4301,0.060,-0.255
4302,0.050,-0.260
4303,0.045,-0.245
4304,0.060,-0.230
4305,0.060,-0.235
4306,0.080,-0.220
4307,0.080,-0.215
4308,0.105,-0.190
4309,0.115,-0.180
4310,0.130,-0.145
4311,0.155,-0.115
4312,0.155,-0.095
4313,0.160,-0.080
4314,0.180,-0.060
4315,0.180,-0.075
4316,0.180,-0.070
4317,0.205,-0.075
4318,0.225,-0.065
4319,0.260,-0.080
4320,0.300,-0.085
4321,0.330,-0.105
4322,0.360,-0.130
4323,0.375,-0.165
4324,0.355,-0.205
4325,0.330,-0.220
4326,0.290,-0.250
4327,0.265,-0.260
4328,0.265,-0.270
4329,0.260,-0.255
4330,0.270,-0.250
4331,0.275,-0.275
4332,0.280,-0.275
4333,0.280,-0.290
4334,0.250,-0.330
4335,0.225,-0.345
4336,0.180,-0.370
4337,0.130,-0.355
4338,0.100,-0.345
4339,0.070,-0.320
4340,0.045,-0.290
4341,0.030,-0.265
4342,0.015,-0.255
4343,0.020,-0.260
4344,0.005,-0.270
4345,0.000,-0.270
4346,-0.015,-0.270
4347,-0.020,-0.280
4348,-0.030,-0.295
4349,-0.045,-0.295
4350,-0.055,-0.300
4351,-0.055,-0.300
4352,-0.055,-0.290
4353,-0.080,-0.300
4354,-0.060,-0.295
4355,-0.055,-0.285
4356,-0.050,-0.285
4357,-0.035,-0.280
4358,-0.035,-0.280
4359,-0.035,-0.260
4360,-0.050,-0.260
4361,-0.045,-0.225
4362,-0.030,-0.185
4363,0.020,-0.140
4364,0.095,-0.110
4365,0.220,-0.105
4366,0.395,-0.160
4367,0.585,-0.270
4368,0.795,-0.425
4369,0.985,-0.635
4370,1.155,-0.915
4371,1.320,-1.260
4372,1.465,-1.640
4373,1.570,-2.025
4374,1.655,-2.360
4375,1.665,-2.550
4376,1.620,-2.610
4377,1.535,-2.560
4378,1.395,-2.430
4379,1.190,-2.240
4380,0.920,-2.025
4381,0.635,-1.785
4382,0.375,-1.525
4383,0.170,-1.275
4384,0.025,-1.060
4385,-0.065,-0.915
4386,-0.110,-0.805
4387,-0.115,-0.715
4388,-0.115,-0.660
4389,-0.125,-0.580
4390,-0.160,-0.500
4391,-0.180,-0.430
4392,-0.210,-0.360
4393,-0.230,-0.305
4394,-0.250,-0.280
4395,-0.250,-0.250
4396,-0.250,-0.240
4397,-0.255,-0.245
4398,-0.270,-0.235
4399,-0.275,-0.220
4400,-0.285,-0.205
4401,-0.295,-0.200
4402,-0.300,-0.190
4403,-0.300,-0.180
4404,-0.295,-0.175
4405,-0.290,-0.150
4406,-0.300,-0.160
4407,-0.305,-0.145
4408,-0.305,-0.130
4409,-0.325,-0.125
4410,-0.325,-0.130
4411,-0.320,-0.130
4412,-0.330,-0.115
4413,-0.335,-0.110
4414,-0.340,-0.095
4415,-0.320,-0.080
4416,-0.325,-0.065
4417,-0.330,-0.055
4418,-0.330,-0.035
4419,-0.335,-0.040
4420,-0.340,-0.045
4421,-0.345,-0.035
4422,-0.365,-0.035
4423,-0.375,-0.025
4424,-0.390,-0.025
4425,-0.375,0.010
4426,-0.390,0.020
4427,-0.380,0.035
4428,-0.390,0.060
4429,-0.395,0.055
4430,-0.410,0.080
4431,-0.420,0.080
4432,-0.425,0.065
4433,-0.435,0.080
4434,-0.460,0.090
4435,-0.475,0.085
4436,-0.480,0.095
4437,-0.490,0.140
4438,-0.500,0.155
4439,-0.510,0.165
4440,-0.515,0.180
4441,-0.505,0.195
4442,-0.520,0.190
4443,-0.530,0.195
4444,-0.540,0.200
4445,-0.560,0.215
4446,-0.575,0.225
4447,-0.585,0.225
4448,-0.590,0.230
4449,-0.600,0.240
4450,-0.595,0.260
4451,-0.595,0.260
4452,-0.595,0.285
4453,-0.585,0.265
4454,-0.580,0.275
4455,-0.575,0.270
4456,-0.570,0.255
4457,-0.570,0.255
4458,-0.565,0.240
4459,-0.550,0.215
4460,-0.540,0.205
4461,-0.510,0.180
4462,-0.485,0.170
4463,-0.460,0.165
4464,-0.445,0.140
4465,-0.420,0.115
4466,-0.400,0.095
4467,-0.380,0.070
4468,-0.365,0.045
4469,-0.345,0.015
4470,-0.325,0.000
4471,-0.315,-0.045
4472,-0.315,-0.080
4473,-0.295,-0.085
4474,-0.275,-0.095
4475,-0.260,-0.110
4476,-0.255,-0.110
4477,-0.230,-0.130
4478,-0.235,-0.140
4479,-0.220,-0.160
4480,-0.225,-0.185
4481,-0.235,-0.190
4482,-0.230,-0.200
4483,-0.235,-0.205
4484,-0.230,-0.200
4485,-0.225,-0.190
4486,-0.220,-0.190
4487,-0.210,-0.185
4488,-0.200,-0.185
4489,-0.200,-0.195
4490,-0.190,-0.200
4491,-0.175,-0.200
4492,-0.170,-0.215
4493,-0.150,-0.205
4494,-0.125,-0.210
4495,-0.105,-0.220
4496,-0.075,-0.215
4497,-0.030,-0.220
4498,0.020,-0.215
4499,0.080,-0.210
4500,0.150,-0.215
4501,0.220,-0.220
4502,0.285,-0.225
4503,0.365,-0.230
4504,0.455,-0.255
4505,0.550,-0.260
4506,0.640,-0.300
4507,0.700,-0.330
4508,0.685,-0.385
4509,0.565,-0.450
4510,0.325,-0.510
4511,-0.055,-0.575
4512,-0.510,-0.610
4513,-0.965,-0.620
4514,-1.380,-0.625
4515,-1.680,-0.620
4516,-1.910,-0.615
4517,-2.050,-0.630
4518,-2.180,-0.665
4519,-2.275,-0.680
4520,-2.360,-0.660
4521,-2.405,-0.580
4522,-2.420,-0.445
4523,-2.400,-0.315
4524,-2.370,-0.120
4525,-2.320,0.090
4526,-2.255,0.265
4527,-2.160,0.445
4528,-2.070,0.595
4529,-1.965,0.700
4530,-1.850,0.775
4531,-1.750,0.840
4532,-1.670,0.920
4533,-1.590,0.970
4534,-1.505,1.020
4535,-1.445,1.055
4536,-1.350,1.055
4537,-1.250,0.995
4538,-1.170,0.900
4539,-1.070,0.755
4540,-0.980,0.515
4541,-0.905,0.275
4542,-0.845,-0.015
4543,-0.805,-0.285
4544,-0.755,-0.505
4545,-0.715,-0.665
4546,-0.655,-0.720
4547,-0.575,-0.720
4548,-0.450,-0.685
4549,-0.320,-0.610
4550,-0.170,-0.555
4551,-0.040,-0.515
4552,0.065,-0.455
4553,0.140,-0.420
4554,0.170,-0.380
4555,0.165,-0.360
4556,0.150,-0.340
4557,0.140,-0.325
4558,0.140,-0.320
4559,0.140,-0.325
4560,0.160,-0.320
4561,0.170,-0.310
4562,0.195,-0.315
4563,0.210,-0.310
4564,0.225,-0.325
4565,0.235,-0.320
4566,0.235,-0.335
4567,0.250,-0.345
4568,0.250,-0.335
4569,0.280,-0.345
4570,0.300,-0.330
4571,0.320,-0.330
4572,0.340,-0.330
4573,0.370,-0.325
4574,0.380,-0.325
4575,0.400,-0.335
4576,0.410,-0.340
4577,0.425,-0.355
4578,0.420,-0.350
4579,0.440,-0.350
4580,0.455,-0.350
4581,0.480,-0.360
4582,0.500,-0.355
4583,0.530,-0.345
4584,0.545,-0.350
4585,0.575,-0.355
4586,0.605,-0.365
4587,0.630,-0.365
4588,0.645,-0.375
4589,0.655,-0.390
4590,0.665,-0.405
4591,0.685,-0.400
4592,0.680,-0.410
4593,0.690,-0.410
4594,0.700,-0.415
4595,0.725,-0.425
4596,0.725,-0.420
4597,0.750,-0.420
4598,0.735,-0.425
4599,0.735,-0.430
4600,0.705,-0.450
4601,0.690,-0.465
4602,0.670,-0.475
4603,0.630,-0.490
4604,0.610,-0.510
4605,0.580,-0.500
4606,0.545,-0.490
4607,0.525,-0.495
4608,0.500,-0.465
4609,0.470,-0.460
4610,0.440,-0.460
4611,0.385,-0.460
4612,0.340,-0.460
4613,0.295,-0.465
4614,0.265,-0.460
4615,0.225,-0.455
4616,0.185,-0.425
4617,0.145,-0.390
4618,0.110,-0.370
4619,0.085,-0.345
4620,0.055,-0.320
4621,0.035,-0.310
4622,0.025,-0.295
4623,-0.010,-0.260
4624,-0.040,-0.250
4625,-0.065,-0.235
4626,-0.100,-0.225
4627,-0.115,-0.215
4628,-0.140,-0.205
4629,-0.160,-0.190
4630,-0.170,-0.165
4631,-0.185,-0.160
4632,-0.200,-0.155
4633,-0.205,-0.150
4634,-0.200,-0.140
4635,-0.215,-0.145
4636,-0.230,-0.145
4637,-0.240,-0.145
4638,-0.250,-0.150
4639,-0.265,-0.155
4640,-0.265,-0.150
4641,-0.265,-0.155
4642,-0.265,-0.150
4643,-0.255,-0.145
4644,-0.275,-0.130
4645,-0.265,-0.130
4646,-0.255,-0.135
4647,-0.260,-0.135
4648,-0.255,-0.145
4649,-0.270,-0.150
4650,-0.280,-0.155
4651,-0.275,-0.155
4652,-0.285,-0.165
4653,-0.280,-0.150
4654,-0.280,-0.145
4655,-0.275,-0.125
4656,-0.270,-0.125
4657,-0.260,-0.130
4658,-0.270,-0.140
4659,-0.255,-0.145
4660,-0.260,-0.155
4661,-0.270,-0.160
4662,-0.300,-0.155
4663,-0.285,-0.155
4664,-0.290,-0.155
4665,-0.295,-0.145
4666,-0.300,-0.145
4667,-0.295,-0.140
4668,-0.285,-0.125
4669,-0.300,-0.130
4670,-0.305,-0.135
4671,-0.310,-0.140
4672,-0.320,-0.150
4673,-0.325,-0.145
4674,-0.320,-0.160
4675,-0.330,-0.155
4676,-0.330,-0.155
4677,-0.345,-0.140
4678,-0.345,-0.150
4679,-0.350,-0.145
4680,-0.345,-0.140
4681,-0.325,-0.125
4682,-0.340,-0.140
4683,-0.325,-0.135
4684,-0.335,-0.150
4685,-0.330,-0.150
4686,-0.335,-0.160
4687,-0.345,-0.165
4688,-0.345,-0.165
4689,-0.340,-0.170
4690,-0.340,-0.160
4691,-0.345,-0.155
4692,-0.340,-0.145
4693,-0.330,-0.150
4694,-0.330,-0.150
4695,-0.350,-0.150
4696,-0.360,-0.170
4697,-0.355,-0.165
4698,-0.345,-0.200
4699,-0.355,-0.180
4700,-0.360,-0.195
4701,-0.360,-0.190
4702,-0.360,-0.180
4703,-0.345,-0.170
4704,-0.355,-0.170
4705,-0.340,-0.165
4706,-0.355,-0.165
4707,-0.350,-0.170
4708,-0.355,-0.175
4709,-0.360,-0.175
4710,-0.375,-0.180
4711,-0.370,-0.195
4712,-0.375,-0.185
4713,-0.380,-0.180
4714,-0.370,-0.170
4715,-0.380,-0.165
4716,-0.365,-0.165
4717,-0.360,-0.150
4718,-0.360,-0.150
4719,-0.365,-0.150
4720,-0.365,-0.160
4721,-0.380,-0.170
4722,-0.385,-0.190
4723,-0.380,-0.185
4724,-0.385,-0.185
4725,-0.375,-0.200
4726,-0.380,-0.165
4727,-0.355,-0.160
4728,-0.345,-0.130
4729,-0.320,-0.115
4730,-0.315,-0.095
4731,-0.290,-0.085
4732,-0.275,-0.070
4733,-0.265,-0.050
4734,-0.245,-0.025
4735,-0.240,-0.005
4736,-0.225,0.000
4737,-0.225,0.005
4738,-0.210,0.010
4739,-0.185,0.010
4740,-0.165,0.015
4741,-0.130,-0.005
4742,-0.100,-0.030
4743,-0.080,-0.065
4744,-0.065,-0.090
4745,-0.060,-0.120
4746,-0.075,-0.145
4747,-0.095,-0.155
4748,-0.120,-0.170
4749,-0.140,-0.180
4750,-0.135,-0.165
4751,-0.125,-0.160
4752,-0.100,-0.175
4753,-0.090,-0.200
4754,-0.100,-0.225
4755,-0.130,-0.250
4756,-0.160,-0.280
4757,-0.195,-0.290
4758,-0.235,-0.295
4759,-0.270,-0.280
4760,-0.290,-0.255
4761,-0.320,-0.225
4762,-0.330,-0.210
4763,-0.365,-0.205
4764,-0.355,-0.190
4765,-0.375,-0.195
4766,-0.380,-0.185
4767,-0.390,-0.185
4768,-0.410,-0.190
4769,-0.420,-0.200
4770,-0.435,-0.205
4771,-0.440,-0.220
4772,-0.435,-0.220
4773,-0.435,-0.220
4774,-0.430,-0.225
4775,-0.425,-0.225
4776,-0.410,-0.210
4777,-0.420,-0.210
4778,-0.415,-0.220
4779,-0.410,-0.205
4780,-0.410,-0.210
4781,-0.405,-0.190
4782,-0.395,-0.160
4783,-0.385,-0.110
4784,-0.335,-0.060
4785,-0.250,-0.035
4786,-0.115,-0.035
4787,0.060,-0.075
4788,0.260,-0.175
4789,0.470,-0.325
4790,0.665,-0.535
4791,0.840,-0.775
4792,1.005,-1.065
4793,1.145,-1.430
4794,1.280,-1.795
4795,1.365,-2.120
4796,1.390,-2.360
4797,1.365,-2.480
4798,1.285,-2.475
4799,1.150,-2.390
4800,0.945,-2.250
4801,0.685,-2.080
4802,0.400,-1.860
4803,0.120,-1.605
4804,-0.090,-1.345
4805,-0.225,-1.100
4806,-0.325,-0.925
4807,-0.395,-0.785
4808,-0.420,-0.680
4809,-0.425,-0.595
4810,-0.445,-0.535
4811,-0.480,-0.460
4812,-0.515,-0.385
4813,-0.530,-0.310
4814,-0.555,-0.260
4815,-0.570,-0.220
4816,-0.580,-0.190
4817,-0.595,-0.190
4818,-0.600,-0.185
4819,-0.605,-0.170
4820,-0.615,-0.180
4821,-0.630,-0.155
4822,-0.630,-0.145
4823,-0.625,-0.120
4824,-0.620,-0.095
4825,-0.615,-0.080
4826,-0.615,-0.070
4827,-0.635,-0.055
4828,-0.640,-0.070
4829,-0.645,-0.075
4830,-0.660,-0.080
4831,-0.665,-0.065
4832,-0.650,-0.055
4833,-0.660,-0.045
4834,-0.655,-0.035
4835,-0.645,-0.015
4836,-0.650,-0.005
4837,-0.650,0.005
4838,-0.670,0.010
4839,-0.660,0.010
4840,-0.645,0.000
4841,-0.660,0.005
4842,-0.665,0.015
4843,-0.675,0.015
4844,-0.680,0.020
4845,-0.700,0.045
4846,-0.695,0.055
4847,-0.690,0.065
4848,-0.700,0.070
4849,-0.680,0.085
4850,-0.700,0.085
4851,-0.710,0.100
4852,-0.725,0.085
4853,-0.750,0.105
4854,-0.765,0.100
4855,-0.775,0.110
4856,-0.800,0.115
4857,-0.820,0.125
4858,-0.825,0.135
4859,-0.845,0.150
4860,-0.860,0.165
4861,-0.860,0.185
4862,-0.885,0.195
4863,-0.900,0.195
4864,-0.920,0.200
4865,-0.935,0.195
4866,-0.960,0.185
4867,-0.975,0.210
4868,-0.980,0.205
4869,-1.000,0.210
4870,-1.010,0.220
4871,-1.000,0.240
4872,-1.005,0.250
4873,-1.000,0.245
4874,-1.005,0.250
4875,-1.000,0.240
4876,-1.015,0.235
4877,-1.015,0.225
4878,-1.020,0.215
4879,-1.015,0.220
4880,-0.995,0.220
4881,-0.975,0.215
4882,-0.950,0.215
4883,-0.910,0.200
4884,-0.895,0.195
4885,-0.860,0.185
4886,-0.825,0.160
4887,-0.795,0.145
4888,-0.765,0.130
4889,-0.745,0.110
4890,-0.725,0.085
4891,-0.705,0.065
4892,-0.670,0.045
4893,-0.640,0.020
4894,-0.630,0.005
4895,-0.575,-0.005
4896,-0.540,-0.020
4897,-0.505,-0.040
4898,-0.485,-0.055
4899,-0.475,-0.065
4900,-0.470,-0.070
4901,-0.470,-0.105
4902,-0.470,-0.120
4903,-0.455,-0.125
4904,-0.460,-0.135
4905,-0.455,-0.145
4906,-0.435,-0.145
4907,-0.430,-0.140
4908,-0.435,-0.130
4909,-0.415,-0.130
4910,-0.415,-0.140
4911,-0.405,-0.135
4912,-0.405,-0.145
4913,-0.420,-0.155
4914,-0.430,-0.165
4915,-0.430,-0.160
4916,-0.435,-0.170
4917,-0.430,-0.150
4918,-0.420,-0.150
4919,-0.400,-0.130
4920,-0.395,-0.125
4921,-0.395,-0.130
4922,-0.385,-0.135
4923,-0.390,-0.135
4924,-0.380,-0.135
4925,-0.390,-0.150
4926,-0.380,-0.150
4927,-0.360,-0.145
4928,-0.350,-0.140
4929,-0.340,-0.145
4930,-0.325,-0.135
4931,-0.300,-0.135
4932,-0.300,-0.120
4933,-0.270,-0.100
4934,-0.285,-0.090
4935,-0.245,-0.075
4936,-0.225,-0.060
4937,-0.210,-0.045
4938,-0.170,-0.055
4939,-0.110,-0.025
4940,-0.050,-0.005
4941,0.025,-0.005
4942,0.160,-0.005
4943,0.295,-0.010
4944,0.420,-0.015
4945,0.540,-0.030
4946,0.645,-0.055
4947,0.760,-0.065
4948,0.870,-0.100
4949,0.970,-0.140
4950,1.065,-0.195
4951,1.145,-0.260
4952,1.240,-0.335
4953,1.325,-0.420
4954,1.410,-0.525
4955,1.450,-0.675
4956,1.415,-0.835
4957,1.305,-0.985
4958,1.065,-1.135
4959,0.690,-1.225
4960,0.180,-1.355
4961,-0.350,-1.455
4962,-0.835,-1.560
4963,-1.225,-1.660
4964,-1.505,-1.730
4965,-1.630,-1.755
4966,-1.640,-1.740
4967,-1.585,-1.705
4968,-1.480,-1.645
4969,-1.365,-1.540
4970,-1.265,-1.440
4971,-1.185,-1.335
4972,-1.110,-1.195
4973,-1.035,-1.045
4974,-0.960,-0.880
4975,-0.875,-0.715
4976,-0.780,-0.560
4977,-0.685,-0.440
4978,-0.595,-0.335
4979,-0.545,-0.260
4980,-0.530,-0.210
4981,-0.530,-0.175
4982,-0.540,-0.160
4983,-0.550,-0.145
4984,-0.545,-0.130
4985,-0.540,-0.120
4986,-0.540,-0.125
4987,-0.525,-0.120
4988,-0.525,-0.095
4989,-0.515,-0.105
4990,-0.520,-0.075
4991,-0.520,-0.080
4992,-0.515,-0.065
4993,-0.510,-0.050
4994,-0.505,-0.040
4995,-0.495,-0.035
4996,-0.510,-0.050
4997,-0.515,-0.050
4998,-0.515,-0.060
4999,-0.515,-0.055
5000,-0.510,-0.050
5001,-0.510,-0.020
5002,-0.505,-0.010
5003,-0.505,0.000
5004,-0.515,0.005
5005,-0.505,0.020
5006,-0.510,0.015
5007,-0.505,0.010
5008,-0.505,0.010
5009,-0.510,0.000
5010,-0.520,0.020
5011,-0.515,0.015
5012,-0.510,0.030
5013,-0.505,0.045
5014,-0.500,0.050
5015,-0.495,0.065
5016,-0.485,0.080
5017,-0.485,0.075
5018,-0.490,0.080
5019,-0.490,0.085
5020,-0.490,0.100
5021,-0.500,0.095
5022,-0.500,0.095
5023,-0.500,0.120
5024,-0.495,0.135
5025,-0.480,0.140
5026,-0.465,0.150
5027,-0.450,0.155
5028,-0.430,0.170
5029,-0.410,0.180
5030,-0.395,0.195
5031,-0.385,0.210
5032,-0.385,0.215
5033,-0.370,0.230
5034,-0.365,0.225
5035,-0.350,0.245
5036,-0.335,0.235
5037,-0.325,0.250
5038,-0.285,0.240
5039,-0.265,0.265
5040,-0.230,0.260
5041,-0.220,0.290
5042,-0.200,0.280
5043,-0.190,0.285
5044,-0.195,0.255
5045,-0.190,0.250
5046,-0.195,0.230
5047,-0.200,0.230
5048,-0.205,0.210
5049,-0.210,0.205
5050,-0.215,0.205
5051,-0.210,0.210
5052,-0.200,0.195
5053,-0.210,0.190
5054,-0.205,0.180
5055,-0.220,0.155
5056,-0.235,0.140
5057,-0.240,0.105
5058,-0.265,0.080
5059,-0.285,0.060
5060,-0.310,0.055
5061,-0.315,0.050
5062,-0.325,0.045
5063,-0.330,0.030
5064,-0.335,0.025
5065,-0.335,0.010
5066,-0.335,-0.015
5067,-0.345,-0.020
5068,-0.345,-0.030
5069,-0.355,-0.050
5070,-0.360,-0.055
5071,-0.370,-0.065
5072,-0.365,-0.060
5073,-0.360,-0.060
5074,-0.350,-0.055
5075,-0.355,-0.065
5076,-0.345,-0.070
5077,-0.345,-0.065
5078,-0.350,-0.065
5079,-0.345,-0.060
5080,-0.355,-0.065
5081,-0.360,-0.060
5082,-0.365,-0.075
5083,-0.360,-0.080
5084,-0.380,-0.065
5085,-0.370,-0.080
5086,-0.375,-0.070
5087,-0.370,-0.065
5088,-0.365,-0.065
5089,-0.355,-0.045
5090,-0.355,-0.050
5091,-0.340,-0.050
5092,-0.325,-0.055
5093,-0.335,-0.060
5094,-0.320,-0.070
5095,-0.325,-0.080
5096,-0.335,-0.090
5097,-0.335,-0.085
5098,-0.330,-0.080
5099,-0.325,-0.065
5100,-0.330,-0.050
5101,-0.315,-0.055
5102,-0.325,-0.050
5103,-0.315,-0.060
5104,-0.310,-0.065
5105,-0.310,-0.080
5106,-0.315,-0.090
5107,-0.325,-0.095
5108,-0.335,-0.090
5109,-0.345,-0.085
5110,-0.340,-0.075
5111,-0.335,-0.080
5112,-0.345,-0.065
5113,-0.330,-0.075
5114,-0.310,-0.080
5115,-0.325,-0.090
5116,-0.310,-0.105
5117,-0.315,-0.095
5118,-0.330,-0.100
5119,-0.340,-0.090
5120,-0.350,-0.095
5121,-0.345,-0.090
5122,-0.340,-0.095
5123,-0.325,-0.085
5124,-0.320,-0.080
5125,-0.305,-0.090
5126,-0.305,-0.100
5127,-0.310,-0.105
5128,-0.315,-0.110
5129,-0.320,-0.115
5130,-0.330,-0.115
5131,-0.330,-0.120
5132,-0.330,-0.125
5133,-0.330,-0.120
5134,-0.320,-0.130
5135,-0.315,-0.120
5136,-0.315,-0.115
5137,-0.310,-0.105
5138,-0.300,-0.095
5139,-0.300,-0.110
5140,-0.305,-0.120
5141,-0.320,-0.125
5142,-0.325,-0.130
5143,-0.335,-0.130
5144,-0.335,-0.125
5145,-0.325,-0.130
5146,-0.325,-0.120
5147,-0.310,-0.110
5148,-0.290,-0.085
5149,-0.280,-0.090
5150,-0.285,-0.095
5151,-0.275,-0.105
5152,-0.265,-0.100
5153,-0.260,-0.110
5154,-0.255,-0.105
5155,-0.245,-0.080
5156,-0.225,-0.050
5157,-0.210,-0.005
5158,-0.200,0.035
5159,-0.185,0.045
5160,-0.175,0.055
5161,-0.150,0.065
5162,-0.150,0.050
5163,-0.130,0.040
5164,-0.095,0.030
5165,-0.065,0.000
5166,-0.045,-0.020
5167,-0.005,-0.040
5168,0.020,-0.065
5169,0.025,-0.090
5170,0.000,-0.105
5171,-0.015,-0.115
5172,-0.020,-0.110
5173,-0.010,-0.110
5174,0.000,-0.100
5175,-0.005,-0.105
5176,0.005,-0.140
5177,-0.005,-0.155
5178,-0.025,-0.205
5179,-0.060,-0.220
5180,-0.100,-0.235
5181,-0.145,-0.220
5182,-0.185,-0.190
5183,-0.215,-0.150
5184,-0.235,-0.145
5185,-0.225,-0.135
5186,-0.250,-0.145
5187,-0.260,-0.145
5188,-0.280,-0.165
5189,-0.300,-0.175
5190,-0.320,-0.180
5191,-0.330,-0.170
5192,-0.340,-0.185
5193,-0.330,-0.170
5194,-0.320,-0.170
5195,-0.310,-0.165
5196,-0.305,-0.155
5197,-0.285,-0.150
5198,-0.290,-0.150
5199,-0.285,-0.150
5200,-0.290,-0.170
5201,-0.295,-0.155
5202,-0.300,-0.155
5203,-0.305,-0.140
5204,-0.315,-0.105
5205,-0.285,-0.065
5206,-0.255,-0.010
5207,-0.170,0.010
5208,-0.055,0.030
5209,0.125,0.000
5210,0.325,-0.085
5211,0.530,-0.210
5212,0.740,-0.375
5213,0.925,-0.580
5214,1.090,-0.825
5215,1.240,-1.120
5216,1.385,-1.440
5217,1.495,-1.765
5218,1.560,-2.035
5219,1.570,-2.205
5220,1.520,-2.250
5221,1.415,-2.215
5222,1.215,-2.105
5223,0.940,-1.940
5224,0.610,-1.745
5225,0.285,-1.490
5226,0.020,-1.245
5227,-0.150,-1.020
5228,-0.235,-0.830
5229,-0.290,-0.675
5230,-0.290,-0.570
5231,-0.290,-0.490
5232,-0.300,-0.410
5233,-0.320,-0.340
5234,-0.370,-0.285
5235,-0.400,-0.235
5236,-0.440,-0.170
5237,-0.475,-0.155
5238,-0.490,-0.145
5239,-0.495,-0.135
5240,-0.480,-0.135
5241,-0.480,-0.110
5242,-0.485,-0.085
5243,-0.490,-0.070
5244,-0.505,-0.065
5245,-0.505,-0.040
5246,-0.500,-0.050
5247,-0.505,-0.040
5248,-0.505,-0.035
5249,-0.515,-0.040
5250,-0.525,-0.025
5251,-0.515,-0.025
5252,-0.505,-0.020
5253,-0.500,-0.010
5254,-0.495,0.005
5255,-0.485,0.010
5256,-0.495,-0.005
5257,-0.495,0.005
5258,-0.505,0.010
5259,-0.525,0.020
5260,-0.530,0.020
5261,-0.540,0.020
5262,-0.550,0.025
5263,-0.550,0.035
5264,-0.555,0.040
5265,-0.555,0.045
5266,-0.545,0.055
5267,-0.540,0.070
5268,-0.545,0.075
5269,-0.545,0.085
5270,-0.530,0.095
5271,-0.535,0.090
5272,-0.550,0.075
5273,-0.570,0.085
5274,-0.585,0.090
5275,-0.625,0.095
5276,-0.640,0.100
5277,-0.660,0.115
5278,-0.655,0.135
5279,-0.665,0.145
5280,-0.660,0.165
5281,-0.650,0.175
5282,-0.655,0.170
5283,-0.690,0.160
5284,-0.695,0.165
5285,-0.720,0.170
5286,-0.750,0.170
5287,-0.765,0.180
5288,-0.785,0.190
5289,-0.800,0.205
5290,-0.800,0.220
5291,-0.815,0.215
5292,-0.825,0.225
5293,-0.815,0.230
5294,-0.820,0.230
5295,-0.820,0.235
5296,-0.840,0.245
5297,-0.855,0.225
5298,-0.855,0.220
5299,-0.860,0.230
5300,-0.865,0.220
5301,-0.865,0.225
5302,-0.835,0.225
5303,-0.830,0.220
5304,-0.820,0.240
5305,-0.800,0.235
5306,-0.790,0.215
5307,-0.770,0.220
5308,-0.745,0.205
5309,-0.735,0.200
5310,-0.710,0.170
5311,-0.680,0.155
5312,-0.675,0.145
5313,-0.635,0.125
5314,-0.605,0.120
5315,-0.570,0.110
5316,-0.530,0.100
5317,-0.495,0.090
5318,-0.475,0.080
5319,-0.460,0.060
5320,-0.430,0.040
5321,-0.425,0.020
5322,-0.405,0.005
5323,-0.390,-0.025
5324,-0.370,-0.050
5325,-0.355,-0.055
5326,-0.340,-0.050
5327,-0.325,-0.045
5328,-0.320,-0.045
5329,-0.300,-0.045
5330,-0.310,-0.060
5331,-0.315,-0.055
5332,-0.310,-0.070
5333,-0.315,-0.085
5334,-0.320,-0.095
5335,-0.320,-0.095
5336,-0.325,-0.080
5337,-0.330,-0.080
5338,-0.330,-0.080
5339,-0.320,-0.070
5340,-0.340,-0.070
5341,-0.330,-0.065
5342,-0.325,-0.080
5343,-0.325,-0.075
5344,-0.325,-0.090
5345,-0.330,-0.080
5346,-0.315,-0.075
5347,-0.325,-0.085
5348,-0.305,-0.070
5349,-0.305,-0.075
5350,-0.310,-0.070
5351,-0.300,-0.065
5352,-0.300,-0.070
5353,-0.285,-0.055
5354,-0.290,-0.060
5355,-0.310,-0.060
5356,-0.300,-0.060
5357,-0.320,-0.070
5358,-0.315,-0.075
5359,-0.330,-0.080
5360,-0.325,-0.085
5361,-0.320,-0.075
5362,-0.330,-0.085
5363,-0.325,-0.070
5364,-0.315,-0.060
5365,-0.315,-0.055
5366,-0.300,-0.045
5367,-0.290,-0.035
5368,-0.290,-0.040
5369,-0.305,-0.055
5370,-0.300,-0.040
5371,-0.300,-0.045
5372,-0.290,-0.030
5373,-0.275,-0.020
5374,-0.260,0.015
5375,-0.235,0.040
5376,-0.220,0.065
5377,-0.195,0.090
5378,-0.185,0.100
5379,-0.185,0.105
5380,-0.180,0.100
5381,-0.165,0.090
5382,-0.175,0.080
5383,-0.135,0.085
5384,-0.120,0.080
5385,-0.075,0.075
5386,-0.035,0.065
5387,-0.005,0.055
5388,0.015,0.010
5389,0.025,-0.005
5390,0.000,-0.035
5391,-0.025,-0.045
5392,-0.035,-0.065
5393,-0.055,-0.060
5394,-0.060,-0.070
5395,-0.055,-0.070
5396,-0.055,-0.080
5397,-0.055,-0.085
5398,-0.065,-0.110
5399,-0.080,-0.125
5400,-0.095,-0.140
5401,-0.120,-0.135
5402,-0.150,-0.150
5403,-0.180,-0.135
5404,-0.200,-0.110
5405,-0.235,-0.115
5406,-0.265,-0.100
5407,-0.285,-0.090
5408,-0.295,-0.085
5409,-0.305,-0.090
5410,-0.320,-0.090
5411,-0.320,-0.075
5412,-0.345,-0.085
5413,-0.340,-0.085
5414,-0.335,-0.105
5415,-0.330,-0.100
5416,-0.335,-0.110
5417,-0.345,-0.105
5418,-0.350,-0.110
5419,-0.350,-0.110
5420,-0.355,-0.125
5421,-0.345,-0.125
5422,-0.335,-0.115
5423,-0.325,-0.115
5424,-0.315,-0.100
5425,-0.290,-0.080
5426,-0.290,-0.020
5427,-0.265,0.005
5428,-0.210,0.050
5429,-0.125,0.065
5430,0.025,0.050
5431,0.230,-0.020
5432,0.435,-0.125
5433,0.665,-0.275
5434,0.875,-0.465
5435,1.045,-0.710
5436,1.225,-0.990
5437,1.360,-1.325
5438,1.470,-1.645
5439,1.520,-1.920
5440,1.515,-2.100
5441,1.445,-2.155
5442,1.290,-2.110
5443,1.040,-1.985
5444,0.715,-1.780
5445,0.375,-1.550
5446,0.045,-1.290
5447,-0.155,-1.045
5448,-0.295,-0.820
5449,-0.340,-0.670
5450,-0.345,-0.565
5451,-0.330,-0.485
5452,-0.330,-0.410
5453,-0.345,-0.360
5454,-0.385,-0.300
5455,-0.435,-0.230
5456,-0.470,-0.180
5457,-0.490,-0.120
5458,-0.495,-0.100
5459,-0.490,-0.075
5460,-0.480,-0.075
5461,-0.485,-0.065
5462,-0.485,-0.055
5463,-0.490,-0.045
5464,-0.495,-0.045
5465,-0.500,-0.030
5466,-0.495,-0.035
5467,-0.500,-0.040
5468,-0.505,-0.025
5469,-0.495,-0.035
5470,-0.500,-0.005
5471,-0.495,0.025
5472,-0.495,0.040
5473,-0.495,0.045
5474,-0.500,0.055
5475,-0.505,0.050
5476,-0.510,0.040
5477,-0.525,0.040
5478,-0.535,0.030
5479,-0.540,0.035
5480,-0.540,0.035
5481,-0.540,0.050
5482,-0.540,0.065
5483,-0.535,0.090
5484,-0.525,0.090
5485,-0.520,0.100
5486,-0.515,0.100
5487,-0.530,0.100
5488,-0.530,0.105
5489,-0.550,0.105
5490,-0.555,0.095
5491,-0.565,0.115
5492,-0.570,0.135
5493,-0.570,0.145
5494,-0.580,0.160
5495,-0.585,0.175
5496,-0.585,0.180
5497,-0.595,0.205
5498,-0.600,0.200
5499,-0.625,0.210
5500,-0.635,0.210
5501,-0.660,0.210
5502,-0.680,0.220
5503,-0.700,0.230
5504,-0.710,0.245
5505,-0.715,0.245
5506,-0.720,0.260
5507,-0.725,0.270
5508,-0.730,0.275
5509,-0.725,0.295
5510,-0.730,0.305
5511,-0.735,0.325
5512,-0.740,0.325
5513,-0.750,0.330
5514,-0.755,0.335
5515,-0.750,0.340
5516,-0.720,0.350
5517,-0.690,0.350
5518,-0.645,0.360
5519,-0.595,0.390
5520,-0.540,0.405
5521,-0.495,0.405
5522,-0.460,0.415
5523,-0.425,0.405
5524,-0.395,0.415
5525,-0.365,0.410
5526,-0.315,0.390
5527,-0.295,0.385
5528,-0.270,0.395
5529,-0.235,0.410
5530,-0.210,0.405
5531,-0.195,0.405
5532,-0.185,0.395
5533,-0.175,0.365
5534,-0.185,0.295
5535,-0.220,0.250
5536,-0.245,0.185
5537,-0.285,0.125
5538,-0.305,0.085
5539,-0.320,0.060
5540,-0.335,0.035
5541,-0.345,0.015
5542,-0.355,-0.010
5543,-0.360,-0.025
5544,-0.375,-0.040
5545,-0.385,-0.040
5546,-0.390,-0.055
5547,-0.400,-0.055
5548,-0.415,-0.060
5549,-0.425,-0.055
5550,-0.430,-0.070
5551,-0.415,-0.065
5552,-0.420,-0.080
5553,-0.420,-0.090
5554,-0.425,-0.095
5555,-0.415,-0.090
5556,-0.410,-0.090
5557,-0.410,-0.085
5558,-0.420,-0.090
5559,-0.405,-0.090
5560,-0.405,-0.105
5561,-0.405,-0.115
5562,-0.405,-0.120
5563,-0.410,-0.125
5564,-0.415,-0.140
5565,-0.410,-0.120
5566,-0.415,-0.105
5567,-0.405,-0.090
5568,-0.390,-0.080
5569,-0.360,-0.050
5570,-0.325,-0.010
5571,-0.265,0.025
5572,-0.160,0.050
5573,-0.020,0.025
5574,0.160,-0.035
5575,0.355,-0.140
5576,0.525,-0.295
5577,0.680,-0.490
5578,0.810,-0.730
5579,0.925,-1.020
5580,1.045,-1.320
5581,1.150,-1.615
5582,1.225,-1.835
5583,1.280,-1.955
5584,1.310,-1.980
5585,1.295,-1.925
5586,1.190,-1.820
5587,1.000,-1.665
5588,0.675,-1.495
5589,0.320,-1.305
5590,-0.025,-1.090
5591,-0.285,-0.890
5592,-0.435,-0.735
5593,-0.460,-0.620
5594,-0.455,-0.530
5595,-0.415,-0.465
5596,-0.390,-0.410
5597,-0.380,-0.345
5598,-0.395,-0.290
5599,-0.440,-0.230
5600,-0.490,-0.175
5601,-0.520,-0.125
5602,-0.530,-0.090
5603,-0.525,-0.075
5604,-0.525,-0.060
5605,-0.515,-0.060
5606,-0.505,-0.060
5607,-0.515,-0.050
5608,-0.515,-0.050
5609,-0.525,-0.030
5610,-0.525,-0.035
5611,-0.535,-0.025
5612,-0.525,-0.015
5613,-0.535,-0.005
5614,-0.530,0.000
5615,-0.540,0.010
5616,-0.535,0.035
5617,-0.530,0.055
5618,-0.530,0.050
5619,-0.525,0.055
5620,-0.540,0.050
5621,-0.555,0.055
5622,-0.550,0.050
5623,-0.565,0.050
5624,-0.580,0.065
5625,-0.565,0.075
5626,-0.575,0.105
5627,-0.575,0.115
5628,-0.565,0.120
5629,-0.570,0.120
5630,-0.565,0.110
5631,-0.575,0.120
5632,-0.575,0.130
5633,-0.580,0.120
5634,-0.595,0.125
5635,-0.610,0.135
5636,-0.640,0.140
5637,-0.630,0.165
5638,-0.635,0.165
5639,-0.640,0.185
5640,-0.640,0.205
5641,-0.630,0.200
5642,-0.640,0.205
5643,-0.645,0.200
5644,-0.665,0.205
5645,-0.680,0.205
5646,-0.690,0.210
5647,-0.710,0.230
5648,-0.730,0.230
5649,-0.735,0.240
5650,-0.745,0.260
5651,-0.755,0.265
5652,-0.750,0.265
5653,-0.745,0.285
5654,-0.745,0.285
5655,-0.760,0.275
5656,-0.750,0.295
5657,-0.760,0.285
5658,-0.770,0.300
5659,-0.775,0.310
5660,-0.775,0.295
5661,-0.765,0.300
5662,-0.760,0.310
5663,-0.740,0.310
5664,-0.720,0.310
5665,-0.695,0.310
5666,-0.680,0.300
5667,-0.660,0.290
5668,-0.625,0.275
5669,-0.620,0.255
5670,-0.605,0.235
5671,-0.585,0.215
5672,-0.565,0.190
5673,-0.540,0.175
5674,-0.525,0.175
5675,-0.505,0.155
5676,-0.470,0.145
5677,-0.440,0.130
5678,-0.430,0.100
5679,-0.415,0.090
5680,-0.400,0.055
5681,-0.390,0.045
5682,-0.390,0.015
5683,-0.385,0.020
5684,-0.385,0.000
5685,-0.380,0.005
5686,-0.385,0.000
5687,-0.365,0.015
5688,-0.360,0.020
5689,-0.370,0.025
5690,-0.360,0.010
5691,-0.360,0.000
5692,-0.365,-0.015
5693,-0.370,-0.020
5694,-0.370,-0.030
5695,-0.390,-0.030
5696,-0.400,-0.025
5697,-0.390,-0.020
5698,-0.375,-0.010
5699,-0.370,-0.015
5700,-0.375,-0.015
5701,-0.350,-0.015
5702,-0.350,-0.025
5703,-0.370,-0.025
5704,-0.365,-0.035
5705,-0.375,-0.040
5706,-0.375,-0.025
5707,-0.380,-0.035
5708,-0.375,-0.030
5709,-0.385,-0.035
5710,-0.390,-0.025
5711,-0.385,-0.010
5712,-0.380,-0.015
5713,-0.365,0.000
5714,-0.360,-0.010
5715,-0.360,0.000
5716,-0.365,0.000
5717,-0.365,-0.020
5718,-0.365,-0.035
5719,-0.370,-0.035
5720,-0.380,-0.050
5721,-0.370,-0.050
5722,-0.375,-0.030
5723,-0.375,-0.025
5724,-0.370,-0.010
5725,-0.360,-0.010
5726,-0.360,-0.015
5727,-0.370,-0.010
5728,-0.360,-0.025
5729,-0.360,-0.045
5730,-0.370,-0.045
5731,-0.365,-0.050
5732,-0.360,-0.055
5733,-0.360,-0.030
5734,-0.340,-0.030
5735,-0.325,-0.020
5736,-0.310,-0.025
5737,-0.300,-0.035
5738,-0.280,-0.030
5739,-0.240,-0.040
5740,-0.205,-0.045
5741,-0.160,-0.065
5742,-0.130,-0.050
5743,-0.065,-0.065
5744,0.000,-0.055
5745,0.065,-0.045
5746,0.145,-0.045
5747,0.245,-0.040
5748,0.350,-0.050
5749,0.455,-0.045
5750,0.560,-0.060
5751,0.615,-0.085
5752,0.610,-0.120
5753,0.520,-0.170
5754,0.320,-0.230
5755,0.005,-0.310
5756,-0.400,-0.370
5757,-0.855,-0.425
5758,-1.290,-0.465
5759,-1.625,-0.495
5760,-1.890,-0.525
5761,-2.100,-0.550
5762,-2.265,-0.580
5763,-2.430,-0.575
5764,-2.550,-0.520
5765,-2.620,-0.420
5766,-2.650,-0.285
5767,-2.645,-0.120
5768,-2.610,0.050
5769,-2.540,0.240
5770,-2.450,0.430
5771,-2.330,0.600
5772,-2.220,0.735
5773,-2.070,0.840
5774,-1.925,0.905
5775,-1.800,0.950
5776,-1.685,0.975
5777,-1.620,0.990
5778,-1.580,1.015
5779,-1.510,1.005
5780,-1.440,0.990
5781,-1.335,0.930
5782,-1.235,0.835
5783,-1.145,0.685
5784,-1.085,0.490
5785,-1.020,0.255
5786,-0.990,0.020
5787,-0.950,-0.180
5788,-0.890,-0.340
5789,-0.815,-0.410
5790,-0.715,-0.435
5791,-0.595,-0.415
5792,-0.445,-0.370
5793,-0.295,-0.320
5794,-0.180,-0.280
5795,-0.075,-0.260
5796,-0.010,-0.240
5797,0.020,-0.210
5798,0.010,-0.195
5799,0.010,-0.160
5800,0.005,-0.140
5801,-0.005,-0.150
5802,0.000,-0.145
5803,0.010,-0.135
5804,0.020,-0.150
5805,0.045,-0.150
5806,0.060,-0.145
5807,0.075,-0.125
5808,0.100,-0.135
5809,0.120,-0.115
5810,0.140,-0.120
5811,0.150,-0.115
5812,0.170,-0.130
5813,0.175,-0.150
5814,0.180,-0.150
5815,0.180,-0.155
5816,0.200,-0.160
5817,0.215,-0.150
5818,0.230,-0.150
5819,0.240,-0.140
5820,0.280,-0.135
5821,0.315,-0.140
5822,0.335,-0.155
5823,0.350,-0.155
5824,0.365,-0.165
5825,0.385,-0.165
5826,0.410,-0.175
5827,0.430,-0.185
5828,0.450,-0.165
5829,0.480,-0.170
5830,0.500,-0.170
5831,0.550,-0.160
5832,0.570,-0.165
5833,0.610,-0.170
5834,0.635,-0.170
5835,0.660,-0.180
5836,0.675,-0.190
5837,0.690,-0.190
5838,0.695,-0.220
5839,0.695,-0.230
5840,0.700,-0.235
5841,0.700,-0.245
5842,0.700,-0.250
5843,0.710,-0.255
5844,0.710,-0.240
5845,0.725,-0.245
5846,0.700,-0.255
5847,0.675,-0.270
5848,0.655,-0.285
5849,0.630,-0.305
5850,0.600,-0.310
5851,0.570,-0.315
5852,0.535,-0.325
5853,0.495,-0.305
5854,0.470,-0.300
5855,0.445,-0.285
5856,0.410,-0.265
5857,0.395,-0.270
5858,0.360,-0.270
5859,0.310,-0.270
5860,0.280,-0.255
5861,0.220,-0.260
5862,0.195,-0.255
5863,0.160,-0.230
5864,0.130,-0.210
5865,0.095,-0.190
5866,0.070,-0.175
5867,0.040,-0.145
5868,0.015,-0.120
5869,-0.010,-0.110
5870,-0.035,-0.105
5871,-0.055,-0.085
5872,-0.080,-0.075
5873,-0.105,-0.050
5874,-0.130,-0.050
5875,-0.150,-0.050
5876,-0.170,-0.040
5877,-0.190,-0.025
5878,-0.185,-0.010
5879,-0.190,0.000
5880,-0.195,0.000
5881,-0.200,0.025
5882,-0.195,0.010
5883,-0.200,0.025
5884,-0.205,0.030
5885,-0.230,0.015
5886,-0.220,0.005
5887,-0.230,-0.005
5888,-0.230,0.005
5889,-0.240,0.005
5890,-0.230,0.020
5891,-0.225,0.035
5892,-0.225,0.035
5893,-0.220,0.025
5894,-0.220,0.035
5895,-0.225,0.015
5896,-0.225,0.000
5897,-0.230,-0.005
5898,-0.225,-0.005
5899,-0.235,-0.005
5900,-0.245,0.020
5901,-0.245,0.020
5902,-0.250,0.025
5903,-0.240,0.040
5904,-0.240,0.040
5905,-0.235,0.020
5906,-0.230,0.020
5907,-0.230,0.005
5908,-0.235,-0.005
5909,-0.240,0.005
5910,-0.260,0.010
5911,-0.255,-0.005
5912,-0.265,0.000
5913,-0.270,0.000
5914,-0.270,-0.005
5915,-0.270,0.005
5916,-0.270,0.015
5917,-0.245,0.000
5918,-0.260,0.010
5919,-0.265,0.000
5920,-0.260,0.005
5921,-0.285,0.005
5922,-0.290,0.000
5923,-0.295,-0.020
5924,-0.295,-0.025
5925,-0.305,-0.020
5926,-0.305,-0.005
5927,-0.305,-0.015
5928,-0.305,0.005
5929,-0.295,0.020
5930,-0.295,0.015
5931,-0.300,0.000
5932,-0.300,-0.010
5933,-0.310,-0.015
5934,-0.310,-0.035
5935,-0.315,-0.045
5936,-0.315,-0.025
5937,-0.320,-0.030
5938,-0.330,-0.020
5939,-0.315,-0.010
5940,-0.320,0.000
5941,-0.325,-0.010
5942,-0.310,-0.015
5943,-0.310,-0.015
5944,-0.295,-0.030
5945,-0.295,-0.030
5946,-0.320,-0.050
5947,-0.320,-0.035
5948,-0.320,-0.035
5949,-0.325,-0.035
5950,-0.325,-0.030
5951,-0.320,-0.035
5952,-0.315,-0.025
5953,-0.320,-0.025
5954,-0.310,-0.030
5955,-0.315,-0.030
5956,-0.310,-0.035
5957,-0.315,-0.040
5958,-0.315,-0.030
5959,-0.325,-0.035
5960,-0.340,-0.040
5961,-0.320,-0.040
5962,-0.340,-0.040
5963,-0.340,-0.040
5964,-0.315,-0.040
5965,-0.305,-0.030
5966,-0.315,-0.030
5967,-0.320,-0.025
5968,-0.315,-0.030
5969,-0.320,-0.030
5970,-0.325,-0.035
5971,-0.325,-0.055
5972,-0.325,-0.045
5973,-0.310,-0.060
5974,-0.320,-0.045
5975,-0.305,-0.030
5976,-0.295,-0.020
5977,-0.275,-0.005
5978,-0.275,-0.020
5979,-0.250,0.000
5980,-0.245,0.015
5981,-0.225,0.025
5982,-0.225,0.045
5983,-0.205,0.080
5984,-0.205,0.100
5985,-0.180,0.115
5986,-0.165,0.135
5987,-0.155,0.135
5988,-0.145,0.135
5989,-0.120,0.135
5990,-0.090,0.105
5991,-0.080,0.085
5992,-0.030,0.075
5993,-0.015,0.030
5994,0.015,0.000
5995,0.015,-0.010
5996,0.005,-0.025
5997,-0.010,-0.025
5998,-0.040,-0.040
5999,-0.060,-0.025
6000,-0.060,-0.025
6001,-0.040,-0.040
6002,-0.035,-0.035
6003,-0.035,-0.070
6004,-0.025,-0.100
6005,-0.050,-0.125
6006,-0.070,-0.150
6007,-0.115,-0.160
6008,-0.150,-0.150
6009,-0.180,-0.135
6010,-0.205,-0.105
6011,-0.215,-0.080
6012,-0.235,-0.070
6013,-0.240,-0.060
6014,-0.250,-0.080
6015,-0.265,-0.085
6016,-0.280,-0.080
6017,-0.300,-0.085
6018,-0.325,-0.080
6019,-0.340,-0.090
6020,-0.345,-0.095
6021,-0.355,-0.100
6022,-0.355,-0.095
6023,-0.345,-0.085
6024,-0.330,-0.085
6025,-0.320,-0.075
6026,-0.315,-0.070
6027,-0.310,-0.080
6028,-0.310,-0.080
6029,-0.315,-0.075
6030,-0.315,-0.050
6031,-0.305,-0.030
6032,-0.290,0.025
6033,-0.215,0.075
6034,-0.100,0.100
6035,0.060,0.070
6036,0.270,-0.010
6037,0.485,-0.145
6038,0.690,-0.360
6039,0.880,-0.615
6040,1.055,-0.950
6041,1.210,-1.320
6042,1.340,-1.715
6043,1.435,-2.025
6044,1.475,-2.250
6045,1.470,-2.340
6046,1.395,-2.310
6047,1.260,-2.195
6048,1.025,-2.025
6049,0.730,-1.805
6050,0.395,-1.550
6051,0.110,-1.280
6052,-0.090,-1.020
6053,-0.235,-0.830
6054,-0.300,-0.670
6055,-0.325,-0.585
6056,-0.340,-0.505
6057,-0.345,-0.425
6058,-0.375,-0.350
6059,-0.410,-0.265
6060,-0.430,-0.185
6061,-0.460,-0.125
6062,-0.485,-0.085
6063,-0.495,-0.065
6064,-0.490,-0.055
6065,-0.500,-0.060
6066,-0.500,-0.060
6067,-0.515,-0.050
6068,-0.520,-0.030
6069,-0.525,-0.015
6070,-0.530,0.000
6071,-0.515,0.010
6072,-0.530,0.035
6073,-0.520,0.040
6074,-0.525,0.035
6075,-0.520,0.040
6076,-0.535,0.045
6077,-0.535,0.040
6078,-0.540,0.030
6079,-0.555,0.040
6080,-0.570,0.045
6081,-0.565,0.065
6082,-0.560,0.080
6083,-0.550,0.100
6084,-0.545,0.110
6085,-0.545,0.115
6086,-0.540,0.120
6087,-0.550,0.125
6088,-0.560,0.130
6089,-0.565,0.125
6090,-0.580,0.130
6091,-0.580,0.130
6092,-0.585,0.145
6093,-0.580,0.165
6094,-0.585,0.170
6095,-0.590,0.180
6096,-0.605,0.190
6097,-0.610,0.210
6098,-0.610,0.215
6099,-0.620,0.240
6100,-0.630,0.245
6101,-0.660,0.235
6102,-0.680,0.245
6103,-0.705,0.240
6104,-0.725,0.245
6105,-0.735,0.255
6106,-0.745,0.285
6107,-0.755,0.300
6108,-0.770,0.335
6109,-0.780,0.325
6110,-0.790,0.340
6111,-0.825,0.345
6112,-0.840,0.340
6113,-0.845,0.335
6114,-0.860,0.340
6115,-0.880,0.340
6116,-0.900,0.345
6117,-0.915,0.365
6118,-0.930,0.375
6119,-0.925,0.385
6120,-0.915,0.395
6121,-0.910,0.390
6122,-0.895,0.380
6123,-0.900,0.375
6124,-0.910,0.375
6125,-0.890,0.370
6126,-0.890,0.355
6127,-0.880,0.335
6128,-0.860,0.340
6129,-0.845,0.330
6130,-0.820,0.320
6131,-0.785,0.295
6132,-0.750,0.285
6133,-0.710,0.265
6134,-0.680,0.250
6135,-0.645,0.225
6136,-0.605,0.210
6137,-0.575,0.175
6138,-0.545,0.135
6139,-0.520,0.120
6140,-0.500,0.090
6141,-0.470,0.065
6142,-0.445,0.060
6143,-0.415,0.055
6144,-0.390,0.055
6145,-0.355,0.040
6146,-0.335,0.030
6147,-0.335,0.020
6148,-0.315,0.010
6149,-0.305,-0.010
6150,-0.300,-0.040
6151,-0.310,-0.030
6152,-0.320,-0.045
6153,-0.320,-0.035
6154,-0.320,-0.040
6155,-0.310,-0.035
6156,-0.295,-0.025
6157,-0.290,-0.025
6158,-0.280,-0.045
6159,-0.285,-0.035
6160,-0.295,-0.050
6161,-0.295,-0.060
6162,-0.275,-0.045
6163,-0.285,-0.040
6164,-0.295,-0.040
6165,-0.285,-0.040
6166,-0.285,-0.030
6167,-0.290,-0.025
6168,-0.270,-0.035
6169,-0.265,-0.015
6170,-0.265,-0.020
6171,-0.260,-0.025
6172,-0.270,-0.030
6173,-0.275,-0.030
6174,-0.275,-0.025
6175,-0.285,-0.030
6176,-0.285,-0.035
6177,-0.305,-0.030
6178,-0.290,-0.035
6179,-0.285,-0.030
6180,-0.280,-0.010
6181,-0.270,0.000
6182,-0.270,-0.005
6183,-0.275,0.000
6184,-0.265,0.000
6185,-0.255,0.000
6186,-0.240,0.015
6187,-0.240,0.015
6188,-0.215,0.040
6189,-0.205,0.070
6190,-0.185,0.100
6191,-0.160,0.140
6192,-0.140,0.160
6193,-0.115,0.165
6194,-0.110,0.160
6195,-0.110,0.155
6196,-0.105,0.140
6197,-0.085,0.130
6198,-0.065,0.120
6199,-0.045,0.085
6200,-0.015,0.065
6201,0.005,0.030
6202,0.025,0.000
6203,0.035,-0.005
6204,0.025,-0.025
6205,-0.010,-0.035
6206,-0.010,-0.045
6207,-0.010,-0.035
6208,-0.025,-0.045
6209,-0.025,-0.065
6210,-0.020,-0.080
6211,-0.010,-0.095
6212,-0.035,-0.120
6213,-0.060,-0.125
6214,-0.075,-0.145
6215,-0.100,-0.140
6216,-0.125,-0.120
6217,-0.155,-0.100
6218,-0.175,-0.070
6219,-0.195,-0.065
6220,-0.215,-0.065
6221,-0.230,-0.055
6222,-0.260,-0.075
6223,-0.270,-0.080
6224,-0.295,-0.095
6225,-0.305,-0.095
6226,-0.310,-0.090
6227,-0.325,-0.085
6228,-0.315,-0.085
6229,-0.300,-0.075
6230,-0.300,-0.070
6231,-0.295,-0.065
6232,-0.300,-0.085
6233,-0.290,-0.085
6234,-0.295,-0.105
6235,-0.295,-0.105
6236,-0.305,-0.100
6237,-0.300,-0.100
6238,-0.300,-0.070
6239,-0.290,-0.025
6240,-0.265,0.030
6241,-0.210,0.095
6242,-0.135,0.120
6243,-0.020,0.125
6244,0.140,0.055
6245,0.320,-0.045
6246,0.515,-0.190
6247,0.690,-0.395
6248,0.850,-0.620
6249,1.010,-0.930
6250,1.155,-1.285
6251,1.290,-1.655
6252,1.405,-2.005
6253,1.455,-2.270
6254,1.460,-2.405
6255,1.400,-2.400
6256,1.305,-2.325
6257,1.135,-2.170
6258,0.900,-2.000
6259,0.610,-1.770
6260,0.310,-1.520
6261,0.070,-1.245
6262,-0.110,-0.995
6263,-0.225,-0.800
6264,-0.285,-0.640
6265,-0.290,-0.540
6266,-0.285,-0.480
6267,-0.295,-0.395
6268,-0.315,-0.335
6269,-0.360,-0.255
6270,-0.395,-0.195
6271,-0.425,-0.145
6272,-0.460,-0.085
6273,-0.455,-0.070
6274,-0.455,-0.045
6275,-0.440,-0.030
6276,-0.435,-0.015
6277,-0.430,-0.010
6278,-0.425,0.000
6279,-0.440,0.000
6280,-0.445,0.010
6281,-0.460,0.005
6282,-0.460,0.015
6283,-0.475,0.015
6284,-0.470,0.025
6285,-0.470,0.030
6286,-0.465,0.060
6287,-0.465,0.065
6288,-0.460,0.085
6289,-0.465,0.100
6290,-0.460,0.100
6291,-0.470,0.095
6292,-0.465,0.095
6293,-0.470,0.095
6294,-0.495,0.105
6295,-0.495,0.100
6296,-0.490,0.115
6297,-0.505,0.135
6298,-0.500,0.145
6299,-0.485,0.150
6300,-0.490,0.170
6301,-0.485,0.170
6302,-0.485,0.180
6303,-0.490,0.190
6304,-0.495,0.200
6305,-0.510,0.210
6306,-0.510,0.220
6307,-0.535,0.225
6308,-0.535,0.230
6309,-0.550,0.235
6310,-0.560,0.260
6311,-0.555,0.270
6312,-0.560,0.290
6313,-0.565,0.305
6314,-0.575,0.330
6315,-0.595,0.340
6316,-0.615,0.345
6317,-0.625,0.335
6318,-0.635,0.355
6319,-0.650,0.350
6320,-0.655,0.370
6321,-0.675,0.380
6322,-0.675,0.405
6323,-0.670,0.420
6324,-0.675,0.430
6325,-0.665,0.445
6326,-0.675,0.455
6327,-0.675,0.455
6328,-0.680,0.445
6329,-0.685,0.450
6330,-0.680,0.445
6331,-0.680,0.430
6332,-0.670,0.430
6333,-0.655,0.435
6334,-0.650,0.440
6335,-0.630,0.435
6336,-0.610,0.430
6337,-0.585,0.415
6338,-0.560,0.390
6339,-0.535,0.375
6340,-0.505,0.340
6341,-0.490,0.310
6342,-0.490,0.275
6343,-0.475,0.265
6344,-0.455,0.240
6345,-0.430,0.225
6346,-0.415,0.205
6347,-0.390,0.175
6348,-0.375,0.155
6349,-0.330,0.125
6350,-0.320,0.110
6351,-0.315,0.095
6352,-0.320,0.070
6353,-0.305,0.070
6354,-0.305,0.035
6355,-0.320,0.020
6356,-0.320,0.010
6357,-0.305,-0.005
6358,-0.305,-0.005
6359,-0.285,-0.005
6360,-0.285,0.000
6361,-0.265,-0.010
6362,-0.270,-0.015
6363,-0.280,-0.005
6364,-0.275,-0.015
6365,-0.285,-0.030
6366,-0.290,-0.020
6367,-0.295,-0.035
6368,-0.290,-0.040
6369,-0.300,-0.045
6370,-0.300,-0.040
6371,-0.290,-0.020
6372,-0.290,-0.035
6373,-0.285,-0.025
6374,-0.285,-0.015
6375,-0.285,-0.025
6376,-0.275,-0.030
6377,-0.285,-0.040
6378,-0.300,-0.040
6379,-0.295,-0.050
6380,-0.310,-0.045
6381,-0.305,-0.045
6382,-0.295,-0.035
6383,-0.295,-0.040
6384,-0.295,-0.025
6385,-0.290,-0.020
6386,-0.295,-0.035
6387,-0.300,-0.045
6388,-0.290,-0.035
6389,-0.295,-0.040
6390,-0.295,-0.055
6391,-0.310,-0.040
6392,-0.315,-0.045
6393,-0.315,-0.025
6394,-0.310,-0.030
6395,-0.300,-0.020
6396,-0.290,-0.020
6397,-0.275,-0.020
6398,-0.260,-0.025
6399,-0.250,0.000
6400,-0.230,0.010
6401,-0.215,0.040
6402,-0.200,0.065
6403,-0.185,0.075
6404,-0.175,0.100
6405,-0.155,0.120
6406,-0.150,0.130
6407,-0.130,0.135
6408,-0.110,0.135
6409,-0.080,0.140
6410,-0.050,0.120
6411,-0.015,0.105
6412,0.015,0.060
6413,0.035,0.035
6414,0.040,-0.005
6415,0.030,-0.020
6416,0.010,-0.045
6417,-0.005,-0.060
6418,-0.025,-0.070
6419,-0.030,-0.050
6420,-0.020,-0.055
6421,-0.010,-0.060
6422,-0.005,-0.080
6423,-0.025,-0.105
6424,-0.030,-0.140
6425,-0.060,-0.165
6426,-0.095,-0.170
6427,-0.135,-0.185
6428,-0.165,-0.145
6429,-0.190,-0.120
6430,-0.215,-0.090
6431,-0.215,-0.085
6432,-0.225,-0.070
6433,-0.240,-0.070
6434,-0.250,-0.075
6435,-0.275,-0.090
6436,-0.300,-0.080
6437,-0.290,-0.085
6438,-0.310,-0.105
6439,-0.320,-0.105
6440,-0.320,-0.110
6441,-0.325,-0.105
6442,-0.310,-0.105
6443,-0.300,-0.095
6444,-0.285,-0.095
6445,-0.285,-0.090
6446,-0.285,-0.090
6447,-0.275,-0.085
6448,-0.275,-0.085
6449,-0.280,-0.095
6450,-0.275,-0.055
6451,-0.270,-0.040
6452,-0.245,0.015
6453,-0.190,0.050
6454,-0.095,0.080
6455,0.050,0.080
6456,0.225,0.020
6457,0.420,-0.100
6458,0.625,-0.275
6459,0.805,-0.505
6460,0.970,-0.810
6461,1.120,-1.170
6462,1.250,-1.560
6463,1.360,-1.925
6464,1.420,-2.205
6465,1.440,-2.380
6466,1.410,-2.415
6467,1.345,-2.345
6468,1.215,-2.220
6469,1.030,-2.055
6470,0.765,-1.860
6471,0.485,-1.640
6472,0.225,-1.385
6473,0.015,-1.130
6474,-0.130,-0.930
6475,-0.220,-0.765
6476,-0.285,-0.645
6477,-0.285,-0.560
6478,-0.295,-0.485
6479,-0.300,-0.415
6480,-0.320,-0.350
6481,-0.345,-0.280
6482,-0.390,-0.205
6483,-0.420,-0.145
6484,-0.435,-0.095
6485,-0.445,-0.080
6486,-0.450,-0.060
6487,-0.465,-0.060
6488,-0.465,-0.060
6489,-0.450,-0.045
6490,-0.450,-0.025
6491,-0.455,-0.015
6492,-0.450,0.000
6493,-0.460,0.010
6494,-0.455,0.020
6495,-0.460,0.035
6496,-0.475,0.035
6497,-0.480,0.040
6498,-0.475,0.040
6499,-0.490,0.035
6500,-0.475,0.035
6501,-0.485,0.040
6502,-0.485,0.060
6503,-0.480,0.060
6504,-0.480,0.080
6505,-0.470,0.100
6506,-0.465,0.110
6507,-0.475,0.115
6508,-0.480,0.135
6509,-0.495,0.120
6510,-0.510,0.115
6511,-0.515,0.125
6512,-0.510,0.135
6513,-0.510,0.145
6514,-0.505,0.160
6515,-0.510,0.170
6516,-0.495,0.195
6517,-0.500,0.215
6518,-0.500,0.220
6519,-0.520,0.215
6520,-0.530,0.210
6521,-0.535,0.205
6522,-0.550,0.205
6523,-0.570,0.235
6524,-0.580,0.250
6525,-0.590,0.265
6526,-0.590,0.285
6527,-0.600,0.305
6528,-0.605,0.310
6529,-0.620,0.330
6530,-0.625,0.325
6531,-0.640,0.340
6532,-0.660,0.350
6533,-0.680,0.370
6534,-0.695,0.385
6535,-0.695,0.385
6536,-0.715,0.395
6537,-0.720,0.400
6538,-0.720,0.425
6539,-0.720,0.410
6540,-0.730,0.425
6541,-0.725,0.455
6542,-0.730,0.445
6543,-0.735,0.455
6544,-0.715,0.455
6545,-0.715,0.450
6546,-0.720,0.430
6547,-0.715,0.440
6548,-0.710,0.420
6549,-0.690,0.410
6550,-0.670,0.410
6551,-0.640,0.400
6552,-0.620,0.395
6553,-0.590,0.385
6554,-0.570,0.365
6555,-0.550,0.340
6556,-0.530,0.310
6557,-0.500,0.280
6558,-0.480,0.240
6559,-0.470,0.215
6560,-0.460,0.185
6561,-0.415,0.180
6562,-0.415,0.150
6563,-0.375,0.130
6564,-0.350,0.125
6565,-0.330,0.105
6566,-0.310,0.080
6567,-0.310,0.070
6568,-0.290,0.040
6569,-0.285,0.020
6570,-0.295,0.000
6571,-0.290,-0.015
6572,-0.295,-0.025
6573,-0.285,-0.020
6574,-0.290,-0.020
6575,-0.280,-0.010
6576,-0.275,-0.015
6577,-0.265,-0.025
6578,-0.260,-0.030
6579,-0.260,-0.035
6580,-0.265,-0.050
6581,-0.270,-0.050
6582,-0.285,-0.065
6583,-0.285,-0.065
6584,-0.295,-0.060
6585,-0.285,-0.060
6586,-0.280,-0.045
6587,-0.275,-0.040
6588,-0.270,-0.040
6589,-0.260,-0.035
6590,-0.255,-0.045
6591,-0.255,-0.050
6592,-0.265,-0.050
6593,-0.270,-0.055
6594,-0.260,-0.055
6595,-0.270,-0.060
6596,-0.275,-0.060
6597,-0.270,-0.055
6598,-0.270,-0.050
6599,-0.265,-0.045
6600,-0.265,-0.035
6601,-0.255,-0.045
6602,-0.260,-0.050
6603,-0.260,-0.050
6604,-0.260,-0.045
6605,-0.260,-0.050
6606,-0.265,-0.050
6607,-0.280,-0.070
6608,-0.285,-0.065
6609,-0.295,-0.055
6610,-0.280,-0.050
6611,-0.265,-0.055
6612,-0.250,-0.040
6613,-0.230,-0.015
6614,-0.225,0.010
6615,-0.220,0.015
6616,-0.200,0.040
6617,-0.185,0.055
6618,-0.170,0.070
6619,-0.160,0.085
6620,-0.140,0.105
6621,-0.130,0.115
6622,-0.115,0.125
6623,-0.100,0.130
6624,-0.090,0.130
6625,-0.050,0.115
6626,-0.025,0.095
6627,0.015,0.070
6628,0.050,0.035
6629,0.070,0.000
6630,0.050,-0.030
6631,0.025,-0.055
6632,0.005,-0.065
6633,-0.020,-0.045
6634,-0.030,-0.045
6635,-0.015,-0.060
6636,-0.010,-0.055
6637,0.010,-0.070
6638,0.010,-0.105
6639,-0.015,-0.140
