'sample interval','MLII','V1'
'0.00277778 sec','mV','mV'
0,-0.780,-0.735
1,-0.780,-0.735
2,-0.780,-0.735
3,-0.780,-0.735
4,-0.780,-0.735
5,-0.780,-0.735
6,-0.780,-0.735
7,-0.780,-0.690
8,-0.780,-0.685
9,-0.775,-0.715
10,-0.755,-0.740
11,-0.755,-0.735
12,-0.745,-0.675
13,-0.745,-0.660
14,-0.765,-0.685
15,-0.760,-0.750
16,-0.745,-0.785
17,-0.745,-0.770
18,-0.760,-0.705
19,-0.760,-0.635
20,-0.750,-0.650
21,-0.735,-0.705
22,-0.705,-0.745
23,-0.695,-0.780
24,-0.690,-0.735
25,-0.705,-0.695
26,-0.725,-0.680
27,-0.720,-0.710
28,-0.700,-0.765
29,-0.665,-0.770
30,-0.645,-0.735
31,-0.610,-0.675
32,-0.595,-0.640
33,-0.580,-0.670
34,-0.550,-0.710
35,-0.520,-0.720
36,-0.535,-0.665
37,-0.540,-0.610
38,-0.550,-0.620
39,-0.545,-0.665
40,-0.535,-0.690
41,-0.540,-0.685
42,-0.545,-0.635
43,-0.560,-0.590
44,-0.575,-0.620
45,-0.585,-0.665
46,-0.580,-0.680
47,-0.580,-0.660
48,-0.590,-0.595
49,-0.605,-0.580
50,-0.605,-0.610
51,-0.605,-0.695
52,-0.610,-0.745
53,-0.610,-0.740
54,-0.645,-0.695
55,-0.685,-0.660
56,-0.690,-0.680
57,-0.715,-0.700
58,-0.700,-0.755
59,-0.715,-0.760
60,-0.735,-0.705
61,-0.755,-0.690
62,-0.790,-0.675
63,-0.775,-0.745
64,-0.795,-0.790
65,-0.785,-0.770
66,-0.795,-0.715
67,-0.810,-0.660
68,-0.780,-0.645
69,-0.765,-0.700
70,-0.755,-0.745
71,-0.740,-0.760
72,-0.740,-0.720
73,-0.785,-0.690
74,-0.825,-0.680
75,-0.840,-0.740
76,-0.890,-0.785
77,-0.925,-0.800
78,-0.960,-0.765
79,-0.965,-0.705
80,-0.950,-0.665
81,-0.870,-0.660
82,-0.730,-0.625
83,-0.555,-0.555
84,-0.345,-0.445
85,-0.140,-0.375
86,0.050,-0.360
87,0.235,-0.405
88,0.410,-0.420
89,0.570,-0.420
90,0.705,-0.405
91,0.800,-0.425
92,0.845,-0.540
93,0.855,-0.695
94,0.845,-0.860
95,0.805,-0.925
96,0.730,-0.890
97,0.650,-0.815
98,0.530,-0.735
99,0.340,-0.665
100,0.065,-0.595
101,-0.260,-0.585
102,-0.555,-0.600
103,-0.745,-0.680
104,-0.820,-0.750
105,-0.815,-0.820
106,-0.755,-0.815
107,-0.700,-0.740
108,-0.670,-0.675
109,-0.670,-0.700
110,-0.695,-0.730
111,-0.740,-0.745
112,-0.770,-0.765
113,-0.840,-0.695
114,-0.865,-0.660
115,-0.860,-0.690
116,-0.845,-0.710
117,-0.820,-0.705
118,-0.810,-0.650
119,-0.830,-0.625
120,-0.855,-0.615
121,-0.855,-0.680
122,-0.840,-0.720
123,-0.845,-0.725
124,-0.830,-0.680
125,-0.840,-0.625
126,-0.850,-0.620
127,-0.840,-0.655
128,-0.815,-0.690
129,-0.800,-0.690
130,-0.810,-0.625
131,-0.820,-0.595
132,-0.850,-0.605
133,-0.860,-0.660
134,-0.840,-0.715
135,-0.830,-0.710
136,-0.835,-0.655
137,-0.840,-0.605
138,-0.845,-0.605
139,-0.835,-0.620
140,-0.805,-0.670
141,-0.800,-0.635
142,-0.800,-0.615
143,-0.805,-0.550
144,-0.820,-0.550
145,-0.830,-0.615
146,-0.825,-0.660
147,-0.810,-0.670
148,-0.840,-0.630
149,-0.865,-0.570
150,-0.865,-0.550
151,-0.855,-0.575
152,-0.820,-0.615
153,-0.800,-0.605
154,-0.770,-0.535
155,-0.785,-0.500
156,-0.780,-0.495
157,-0.795,-0.525
158,-0.790,-0.590
159,-0.790,-0.595
160,-0.800,-0.550
161,-0.820,-0.520
162,-0.820,-0.505
163,-0.800,-0.545
164,-0.765,-0.575
165,-0.715,-0.565
166,-0.730,-0.485
167,-0.740,-0.450
168,-0.755,-0.465
169,-0.765,-0.520
170,-0.770,-0.605
171,-0.755,-0.625
172,-0.765,-0.575
173,-0.765,-0.535
174,-0.760,-0.520
175,-0.760,-0.550
176,-0.740,-0.595
177,-0.720,-0.605
178,-0.715,-0.575
179,-0.725,-0.535
180,-0.725,-0.545
181,-0.720,-0.600
182,-0.720,-0.660
183,-0.715,-0.650
184,-0.735,-0.630
185,-0.740,-0.600
186,-0.755,-0.630
187,-0.735,-0.665
188,-0.725,-0.705
189,-0.720,-0.670
190,-0.720,-0.620
191,-0.755,-0.595
192,-0.770,-0.660
193,-0.770,-0.725
194,-0.740,-0.750
195,-0.740,-0.720
196,-0.735,-0.670
197,-0.755,-0.665
198,-0.760,-0.685
199,-0.760,-0.745
200,-0.765,-0.750
201,-0.745,-0.730
202,-0.730,-0.655
203,-0.750,-0.650
204,-0.740,-0.690
205,-0.740,-0.750
206,-0.745,-0.775
207,-0.720,-0.740
208,-0.760,-0.705
209,-0.785,-0.695
210,-0.780,-0.720
211,-0.785,-0.770
212,-0.755,-0.770
213,-0.750,-0.725
214,-0.755,-0.655
215,-0.770,-0.655
216,-0.780,-0.695
217,-0.770,-0.780
218,-0.765,-0.815
219,-0.775,-0.780
220,-0.795,-0.730
221,-0.805,-0.690
222,-0.830,-0.725
223,-0.820,-0.760
224,-0.800,-0.780
225,-0.785,-0.735
226,-0.785,-0.700
227,-0.800,-0.670
228,-0.805,-0.715
229,-0.810,-0.765
230,-0.825,-0.800
231,-0.825,-0.760
232,-0.850,-0.720
233,-0.870,-0.720
234,-0.880,-0.760
235,-0.860,-0.795
236,-0.850,-0.800
237,-0.840,-0.730
238,-0.835,-0.680
239,-0.855,-0.675
240,-0.855,-0.730
241,-0.850,-0.775
242,-0.840,-0.795
243,-0.845,-0.770
244,-0.855,-0.725
245,-0.865,-0.700
246,-0.865,-0.750
247,-0.840,-0.800
248,-0.825,-0.785
249,-0.820,-0.740
250,-0.810,-0.695
251,-0.820,-0.690
252,-0.810,-0.755
253,-0.775,-0.800
254,-0.790,-0.785
255,-0.785,-0.750
256,-0.800,-0.715
257,-0.815,-0.730
258,-0.790,-0.780
259,-0.755,-0.805
260,-0.720,-0.785
261,-0.710,-0.720
262,-0.685,-0.690
263,-0.690,-0.685
264,-0.670,-0.750
265,-0.655,-0.800
266,-0.625,-0.775
267,-0.610,-0.720
268,-0.630,-0.675
269,-0.630,-0.680
270,-0.635,-0.710
271,-0.630,-0.740
272,-0.610,-0.730
273,-0.605,-0.675
274,-0.615,-0.605
275,-0.625,-0.615
276,-0.625,-0.680
277,-0.640,-0.725
278,-0.630,-0.745
279,-0.655,-0.715
280,-0.665,-0.665
281,-0.690,-0.655
282,-0.685,-0.695
283,-0.685,-0.745
284,-0.675,-0.760
285,-0.680,-0.730
286,-0.705,-0.665
287,-0.740,-0.665
288,-0.755,-0.725
289,-0.765,-0.805
290,-0.790,-0.845
291,-0.800,-0.815
292,-0.830,-0.775
293,-0.850,-0.745
294,-0.855,-0.760
295,-0.845,-0.790
296,-0.840,-0.790
297,-0.840,-0.770
298,-0.855,-0.710
299,-0.855,-0.715
300,-0.865,-0.775
301,-0.855,-0.825
302,-0.855,-0.840
303,-0.850,-0.795
304,-0.875,-0.760
305,-0.880,-0.745
306,-0.900,-0.785
307,-0.910,-0.840
308,-0.925,-0.830
309,-0.975,-0.785
310,-1.035,-0.735
311,-1.070,-0.740
312,-1.070,-0.785
313,-1.020,-0.805
314,-0.915,-0.785
315,-0.805,-0.700
316,-0.675,-0.585
317,-0.490,-0.520
318,-0.280,-0.515
319,-0.070,-0.490
320,0.135,-0.450
321,0.315,-0.375
322,0.480,-0.330
323,0.615,-0.360
324,0.715,-0.500
325,0.790,-0.630
326,0.795,-0.765
327,0.770,-0.835
328,0.710,-0.880
329,0.635,-0.885
330,0.550,-0.835
331,0.425,-0.745
332,0.190,-0.610
333,-0.135,-0.535
334,-0.450,-0.540
335,-0.690,-0.685
336,-0.830,-0.830
337,-0.870,-0.915
338,-0.870,-0.910
339,-0.840,-0.845
340,-0.800,-0.800
341,-0.790,-0.800
342,-0.775,-0.830
343,-0.780,-0.835
344,-0.820,-0.795
345,-0.865,-0.755
346,-0.890,-0.715
347,-0.915,-0.750
348,-0.920,-0.810
349,-0.930,-0.865
350,-0.915,-0.840
351,-0.935,-0.765
352,-0.950,-0.730
353,-0.970,-0.740
354,-0.955,-0.785
355,-0.935,-0.795
356,-0.920,-0.780
357,-0.920,-0.700
358,-0.925,-0.670
359,-0.905,-0.685
360,-0.905,-0.750
361,-0.890,-0.780
362,-0.905,-0.785
363,-0.915,-0.750
364,-0.930,-0.700
365,-0.975,-0.690
366,-0.945,-0.720
367,-0.935,-0.775
368,-0.905,-0.775
369,-0.905,-0.710
370,-0.915,-0.645
371,-0.915,-0.630
372,-0.925,-0.675
373,-0.915,-0.730
374,-0.910,-0.755
375,-0.920,-0.710
376,-0.935,-0.665
377,-0.925,-0.645
378,-0.930,-0.665
379,-0.920,-0.730
380,-0.885,-0.715
381,-0.880,-0.680
382,-0.905,-0.600
383,-0.900,-0.585
384,-0.905,-0.625
385,-0.890,-0.670
386,-0.870,-0.725
387,-0.870,-0.675
388,-0.895,-0.605
389,-0.915,-0.570
390,-0.915,-0.615
391,-0.895,-0.655
392,-0.875,-0.670
393,-0.865,-0.615
394,-0.850,-0.540
395,-0.850,-0.530
396,-0.885,-0.555
397,-0.850,-0.625
398,-0.835,-0.660
399,-0.830,-0.650
400,-0.840,-0.595
401,-0.860,-0.565
402,-0.875,-0.595
403,-0.850,-0.630
404,-0.840,-0.655
405,-0.820,-0.605
406,-0.810,-0.540
407,-0.825,-0.525
408,-0.825,-0.590
409,-0.810,-0.665
410,-0.815,-0.695
411,-0.790,-0.655
412,-0.820,-0.625
413,-0.835,-0.595
414,-0.835,-0.630
415,-0.810,-0.695
416,-0.790,-0.720
417,-0.770,-0.710
418,-0.775,-0.660
419,-0.775,-0.615
420,-0.785,-0.610
421,-0.800,-0.680
422,-0.795,-0.755
423,-0.790,-0.800
424,-0.790,-0.785
425,-0.815,-0.725
426,-0.820,-0.700
427,-0.825,-0.725
428,-0.815,-0.775
429,-0.785,-0.795
430,-0.790,-0.770
431,-0.790,-0.730
432,-0.800,-0.710
433,-0.815,-0.755
434,-0.815,-0.815
435,-0.815,-0.860
436,-0.820,-0.845
437,-0.840,-0.790
438,-0.850,-0.740
439,-0.855,-0.755
440,-0.855,-0.780
441,-0.840,-0.835
442,-0.820,-0.825
443,-0.815,-0.765
444,-0.830,-0.725
445,-0.840,-0.740
446,-0.845,-0.785
447,-0.850,-0.860
448,-0.840,-0.850
449,-0.855,-0.810
450,-0.870,-0.775
451,-0.875,-0.755
452,-0.850,-0.810
453,-0.835,-0.835
454,-0.830,-0.835
455,-0.825,-0.795
456,-0.860,-0.760
457,-0.890,-0.750
458,-0.875,-0.810
459,-0.875,-0.885
460,-0.885,-0.885
461,-0.875,-0.860
462,-0.895,-0.795
463,-0.900,-0.755
464,-0.915,-0.785
465,-0.915,-0.840
466,-0.880,-0.870
467,-0.895,-0.845
468,-0.920,-0.795
469,-0.925,-0.785
470,-0.940,-0.825
471,-0.940,-0.880
472,-0.945,-0.885
473,-0.950,-0.850
474,-0.960,-0.790
475,-0.955,-0.795
476,-0.940,-0.825
477,-0.930,-0.845
478,-0.920,-0.825
479,-0.920,-0.785
480,-0.930,-0.750
481,-0.930,-0.775
482,-0.925,-0.825
483,-0.920,-0.875
484,-0.920,-0.860
485,-0.925,-0.825
486,-0.925,-0.795
487,-0.905,-0.805
488,-0.870,-0.835
489,-0.845,-0.850
490,-0.825,-0.815
491,-0.835,-0.765
492,-0.860,-0.750
493,-0.850,-0.775
494,-0.835,-0.840
495,-0.795,-0.885
496,-0.770,-0.855
497,-0.760,-0.800
498,-0.750,-0.755
499,-0.750,-0.755
500,-0.720,-0.785
501,-0.680,-0.820
502,-0.665,-0.785
503,-0.660,-0.730
504,-0.670,-0.685
505,-0.700,-0.675
506,-0.690,-0.750
507,-0.690,-0.815
508,-0.695,-0.810
509,-0.700,-0.760
510,-0.735,-0.720
511,-0.745,-0.710
512,-0.735,-0.740
513,-0.720,-0.780
514,-0.720,-0.770
515,-0.710,-0.745
516,-0.715,-0.705
517,-0.740,-0.720
518,-0.750,-0.770
519,-0.765,-0.830
520,-0.800,-0.860
521,-0.840,-0.820
522,-0.875,-0.785
523,-0.885,-0.785
524,-0.900,-0.825
525,-0.880,-0.865
526,-0.875,-0.855
527,-0.885,-0.805
528,-0.890,-0.760
529,-0.905,-0.770
530,-0.925,-0.820
531,-0.925,-0.885
532,-0.935,-0.900
533,-0.940,-0.855
534,-0.945,-0.790
535,-0.970,-0.780
536,-0.955,-0.800
537,-0.950,-0.865
538,-0.905,-0.865
539,-0.920,-0.835
540,-0.930,-0.795
541,-0.965,-0.765
542,-1.000,-0.825
543,-1.035,-0.885
544,-1.070,-0.940
545,-1.125,-0.910
546,-1.155,-0.865
547,-1.160,-0.770
548,-1.100,-0.770
549,-0.980,-0.770
550,-0.820,-0.740
551,-0.630,-0.660
552,-0.435,-0.560
553,-0.250,-0.480
554,-0.060,-0.475
555,0.085,-0.485
556,0.265,-0.530
557,0.420,-0.520
558,0.545,-0.510
559,0.625,-0.525
560,0.675,-0.605
561,0.710,-0.780
562,0.715,-0.915
563,0.680,-0.980
564,0.635,-0.920
565,0.555,-0.820
566,0.450,-0.715
567,0.245,-0.670
568,0.015,-0.685
569,-0.275,-0.730
570,-0.560,-0.745
571,-0.760,-0.770
572,-0.895,-0.820
573,-0.945,-0.880
574,-0.925,-0.935
575,-0.855,-0.960
576,-0.815,-0.910
577,-0.815,-0.825
578,-0.850,-0.785
579,-0.925,-0.810
580,-0.945,-0.880
581,-0.965,-0.905
582,-0.995,-0.900
583,-1.015,-0.850
584,-1.020,-0.795
585,-1.030,-0.780
586,-1.015,-0.810
587,-0.985,-0.860
588,-0.990,-0.855
589,-0.990,-0.810
590,-1.020,-0.755
591,-1.035,-0.765
592,-1.030,-0.810
593,-1.030,-0.850
594,-1.000,-0.840
595,-0.995,-0.790
596,-1.000,-0.725
597,-1.005,-0.715
598,-0.995,-0.765
599,-0.970,-0.790
600,-0.950,-0.810
601,-0.960,-0.765
602,-1.005,-0.730
603,-1.015,-0.735
604,-1.020,-0.765
605,-1.015,-0.840
606,-1.010,-0.830
607,-0.995,-0.770
608,-0.990,-0.715
609,-0.990,-0.675
610,-1.000,-0.705
611,-0.980,-0.745
612,-0.970,-0.760
613,-0.945,-0.725
614,-0.965,-0.675
615,-0.985,-0.670
616,-0.980,-0.705
617,-0.980,-0.740
618,-0.975,-0.735
619,-0.975,-0.680
620,-0.960,-0.645
621,-0.960,-0.615
622,-0.940,-0.660
623,-0.935,-0.675
624,-0.940,-0.660
625,-0.930,-0.630
626,-0.970,-0.605
627,-0.965,-0.650
628,-0.970,-0.695
629,-0.955,-0.695
630,-0.945,-0.660
631,-0.935,-0.585
632,-0.940,-0.585
633,-0.930,-0.620
634,-0.900,-0.645
635,-0.880,-0.690
636,-0.880,-0.645
637,-0.900,-0.595
638,-0.905,-0.580
639,-0.935,-0.585
640,-0.940,-0.675
641,-0.935,-0.735
642,-0.940,-0.720
643,-0.925,-0.660
644,-0.890,-0.605
645,-0.880,-0.585
646,-0.865,-0.635
647,-0.860,-0.695
648,-0.855,-0.715
649,-0.870,-0.685
650,-0.895,-0.665
651,-0.890,-0.665
652,-0.895,-0.745
653,-0.890,-0.800
654,-0.885,-0.800
655,-0.880,-0.740
656,-0.885,-0.680
657,-0.895,-0.680
658,-0.900,-0.710
659,-0.870,-0.785
660,-0.850,-0.820
661,-0.850,-0.810
662,-0.865,-0.765
663,-0.890,-0.720
664,-0.875,-0.745
665,-0.890,-0.805
666,-0.885,-0.855
667,-0.900,-0.835
668,-0.870,-0.785
669,-0.885,-0.740
670,-0.880,-0.735
671,-0.895,-0.775
672,-0.880,-0.835
673,-0.880,-0.825
674,-0.905,-0.775
675,-0.930,-0.775
676,-0.935,-0.775
677,-0.925,-0.825
678,-0.920,-0.865
679,-0.900,-0.865
680,-0.895,-0.785
681,-0.900,-0.730
682,-0.910,-0.695
683,-0.910,-0.755
684,-0.915,-0.825
685,-0.910,-0.860
686,-0.925,-0.865
687,-0.950,-0.805
688,-0.955,-0.785
689,-0.965,-0.810
690,-0.970,-0.850
691,-0.960,-0.860
692,-0.940,-0.820
693,-0.935,-0.765
694,-0.935,-0.740
695,-0.945,-0.775
696,-0.940,-0.820
697,-0.945,-0.835
698,-0.950,-0.800
699,-0.970,-0.765
700,-0.995,-0.785
701,-1.000,-0.845
702,-1.010,-0.885
703,-1.010,-0.865
704,-1.010,-0.795
705,-1.025,-0.740
706,-1.000,-0.735
707,-1.000,-0.800
708,-0.995,-0.855
709,-0.980,-0.865
710,-0.990,-0.835
711,-1.000,-0.780
712,-1.020,-0.760
713,-1.015,-0.785
714,-1.025,-0.830
715,-1.005,-0.870
716,-0.985,-0.855
717,-0.985,-0.795
718,-0.985,-0.755
719,-0.970,-0.755
720,-0.975,-0.800
721,-0.950,-0.845
722,-0.955,-0.830
723,-0.950,-0.795
724,-0.955,-0.765
725,-0.955,-0.780
726,-0.950,-0.835
727,-0.930,-0.850
728,-0.905,-0.825
729,-0.895,-0.745
730,-0.875,-0.695
731,-0.860,-0.735
732,-0.845,-0.805
733,-0.810,-0.825
734,-0.810,-0.825
735,-0.800,-0.785
736,-0.805,-0.725
737,-0.795,-0.705
738,-0.790,-0.755
739,-0.755,-0.790
740,-0.750,-0.775
741,-0.740,-0.735
742,-0.745,-0.670
743,-0.770,-0.635
744,-0.765,-0.660
745,-0.770,-0.745
746,-0.765,-0.765
747,-0.760,-0.775
748,-0.790,-0.715
749,-0.810,-0.665
750,-0.820,-0.675
751,-0.805,-0.730
752,-0.795,-0.780
753,-0.785,-0.765
754,-0.785,-0.730
755,-0.795,-0.670
756,-0.835,-0.630
757,-0.860,-0.720
758,-0.880,-0.790
759,-0.900,-0.835
760,-0.910,-0.855
761,-0.915,-0.775
762,-0.940,-0.735
763,-0.975,-0.740
764,-0.955,-0.745
765,-0.955,-0.815
766,-0.940,-0.770
767,-0.925,-0.735
768,-0.955,-0.715
769,-0.975,-0.750
770,-0.980,-0.795
771,-1.010,-0.825
772,-1.005,-0.810
773,-1.000,-0.750
774,-1.005,-0.735
775,-0.990,-0.755
776,-0.990,-0.790
777,-0.990,-0.810
778,-1.010,-0.765
779,-1.045,-0.715
780,-1.100,-0.725
781,-1.175,-0.790
782,-1.200,-0.855
783,-1.200,-0.865
784,-1.170,-0.840
785,-1.110,-0.735
786,-1.010,-0.635
787,-0.865,-0.580
788,-0.680,-0.575
789,-0.465,-0.550
790,-0.265,-0.475
791,-0.090,-0.370
792,0.065,-0.305
793,0.210,-0.265
794,0.350,-0.325
795,0.500,-0.405
796,0.605,-0.485
797,0.665,-0.510
798,0.700,-0.590
799,0.695,-0.680
800,0.660,-0.775
801,0.630,-0.785
802,0.535,-0.710
803,0.405,-0.570
804,0.150,-0.455
805,-0.160,-0.440
806,-0.470,-0.540
807,-0.690,-0.675
808,-0.840,-0.785
809,-0.895,-0.830
810,-0.925,-0.780
811,-0.900,-0.760
812,-0.860,-0.770
813,-0.805,-0.790
814,-0.800,-0.765
815,-0.810,-0.730
816,-0.875,-0.680
817,-0.950,-0.670
818,-1.000,-0.730
819,-1.020,-0.790
820,-1.045,-0.835
821,-1.050,-0.790
822,-1.065,-0.715
823,-1.065,-0.695
824,-1.060,-0.690
825,-1.050,-0.730
826,-1.015,-0.755
827,-1.010,-0.730
828,-1.015,-0.680
829,-1.055,-0.645
830,-1.045,-0.660
831,-1.035,-0.705
832,-1.035,-0.750
833,-1.025,-0.740
834,-1.030,-0.685
835,-1.030,-0.640
836,-1.030,-0.620
837,-1.020,-0.665
838,-1.020,-0.695
839,-1.000,-0.680
840,-1.025,-0.640
841,-1.025,-0.625
842,-1.045,-0.640
843,-1.050,-0.705
844,-1.045,-0.710
845,-1.040,-0.685
846,-1.030,-0.615
847,-1.030,-0.610
848,-1.015,-0.635
849,-1.010,-0.655
850,-1.000,-0.630
851,-1.010,-0.585
852,-1.035,-0.575
853,-1.040,-0.605
854,-1.025,-0.655
855,-1.000,-0.665
856,-0.995,-0.615
857,-1.015,-0.560
858,-1.025,-0.555
859,-1.020,-0.570
860,-1.005,-0.625
861,-0.985,-0.635
862,-0.970,-0.580
863,-0.975,-0.520
864,-1.015,-0.480
865,-1.020,-0.515
866,-1.015,-0.590
867,-1.010,-0.625
868,-0.985,-0.595
869,-0.960,-0.550
870,-0.965,-0.525
871,-0.960,-0.540
872,-0.970,-0.580
873,-0.950,-0.575
874,-0.950,-0.530
875,-0.940,-0.505
876,-0.965,-0.510
877,-0.965,-0.565
878,-0.935,-0.610
879,-0.910,-0.610
880,-0.925,-0.565
881,-0.945,-0.530
882,-0.950,-0.510
883,-0.950,-0.575
884,-0.950,-0.615
885,-0.900,-0.640
886,-0.900,-0.610
887,-0.890,-0.550
888,-0.890,-0.525
889,-0.915,-0.560
890,-0.890,-0.625
891,-0.890,-0.660
892,-0.895,-0.665
893,-0.885,-0.615
894,-0.910,-0.590
895,-0.920,-0.590
896,-0.905,-0.655
897,-0.905,-0.670
898,-0.885,-0.645
899,-0.870,-0.590
900,-0.900,-0.560
901,-0.925,-0.580
902,-0.915,-0.655
903,-0.925,-0.705
904,-0.935,-0.710
905,-0.950,-0.645
906,-0.965,-0.610
907,-0.960,-0.630
908,-0.950,-0.655
909,-0.925,-0.705
910,-0.890,-0.680
911,-0.875,-0.615
912,-0.895,-0.605
913,-0.905,-0.635
914,-0.920,-0.695
915,-0.915,-0.710
916,-0.935,-0.680
917,-0.950,-0.640
918,-0.950,-0.660
919,-0.950,-0.700
920,-0.935,-0.695
921,-0.925,-0.645
922,-0.950,-0.600
923,-0.945,-0.600
924,-0.925,-0.640
925,-0.925,-0.700
926,-0.925,-0.690
927,-0.935,-0.660
928,-0.960,-0.625
929,-0.970,-0.635
930,-0.975,-0.700
931,-0.990,-0.730
932,-0.970,-0.700
933,-0.990,-0.660
934,-0.990,-0.610
935,-1.005,-0.625
936,-0.990,-0.680
937,-0.970,-0.715
938,-0.975,-0.710
939,-0.985,-0.685
940,-1.015,-0.650
941,-1.010,-0.700
942,-1.015,-0.720
943,-1.000,-0.730
944,-1.000,-0.690
945,-0.985,-0.650
946,-0.995,-0.630
947,-0.950,-0.670
948,-0.935,-0.710
949,-0.925,-0.695
950,-0.925,-0.675
951,-0.940,-0.620
952,-0.945,-0.630
953,-0.940,-0.660
954,-0.925,-0.705
955,-0.860,-0.720
956,-0.830,-0.660
957,-0.825,-0.580
958,-0.835,-0.565
959,-0.790,-0.590
960,-0.765,-0.650
961,-0.755,-0.660
962,-0.750,-0.595
963,-0.760,-0.580
964,-0.785,-0.540
965,-0.770,-0.585
966,-0.770,-0.635
967,-0.755,-0.635
968,-0.745,-0.570
969,-0.745,-0.520
970,-0.775,-0.510
971,-0.775,-0.545
972,-0.780,-0.630
973,-0.775,-0.640
974,-0.785,-0.610
975,-0.810,-0.560
976,-0.830,-0.535
977,-0.840,-0.560
978,-0.840,-0.635
979,-0.840,-0.665
980,-0.850,-0.655
981,-0.865,-0.615
982,-0.900,-0.590
983,-0.910,-0.625
984,-0.920,-0.670
985,-0.925,-0.690
986,-0.930,-0.660
987,-0.960,-0.620
988,-0.990,-0.605
989,-1.005,-0.660
990,-1.015,-0.700
991,-1.010,-0.685
992,-1.005,-0.625
993,-0.985,-0.605
994,-0.980,-0.615
995,-0.960,-0.650
996,-0.950,-0.670
997,-0.960,-0.625
998,-0.980,-0.595
999,-1.060,-0.675
1000,-1.110,-0.740
1001,-1.150,-0.745
1002,-1.190,-0.685
1003,-1.225,-0.615
1004,-1.180,-0.580
1005,-1.100,-0.595
1006,-0.965,-0.595
1007,-0.815,-0.535
1008,-0.625,-0.420
1009,-0.435,-0.335
1010,-0.250,-0.270
1011,-0.075,-0.265
1012,0.100,-0.300
1013,0.260,-0.290
1014,0.420,-0.280
1015,0.545,-0.285
1016,0.625,-0.350
1017,0.680,-0.495
1018,0.695,-0.655
1019,0.695,-0.745
1020,0.635,-0.725
1021,0.540,-0.660
1022,0.390,-0.570
1023,0.190,-0.555
1024,-0.065,-0.530
1025,-0.370,-0.555
1026,-0.640,-0.540
1027,-0.840,-0.570
1028,-0.960,-0.605
1029,-0.980,-0.680
1030,-0.940,-0.740
1031,-0.875,-0.750
1032,-0.825,-0.680
1033,-0.815,-0.615
1034,-0.845,-0.595
1035,-0.885,-0.615
1036,-0.935,-0.680
1037,-0.980,-0.705
1038,-1.020,-0.660
1039,-1.040,-0.615
1040,-1.060,-0.610
1041,-1.065,-0.625
1042,-1.020,-0.670
1043,-1.010,-0.635
1044,-1.020,-0.610
1045,-1.035,-0.575
1046,-1.060,-0.585
1047,-1.065,-0.640
1048,-1.060,-0.685
1049,-1.035,-0.675
1050,-1.020,-0.615
1051,-1.015,-0.550
1052,-1.010,-0.530
1053,-0.995,-0.565
1054,-0.990,-0.615
1055,-0.995,-0.610
1056,-1.005,-0.585
1057,-1.035,-0.550
1058,-1.030,-0.580
1059,-1.035,-0.615
1060,-1.035,-0.645
1061,-1.030,-0.595
1062,-1.040,-0.535
1063,-1.040,-0.550
1064,-1.015,-0.570
1065,-1.010,-0.565
1066,-0.995,-0.545
1067,-0.985,-0.500
1068,-1.000,-0.490
1069,-1.025,-0.535
1070,-1.030,-0.580
1071,-1.025,-0.615
1072,-1.025,-0.560
1073,-1.025,-0.505
1074,-1.025,-0.470
1075,-1.025,-0.485
1076,-1.005,-0.540
1077,-0.970,-0.525
1078,-0.960,-0.500
1079,-0.960,-0.440
1080,-0.985,-0.415
1081,-1.000,-0.455
1082,-1.025,-0.525
1083,-1.000,-0.530
1084,-0.990,-0.515
1085,-0.985,-0.455
1086,-0.980,-0.425
1087,-0.975,-0.430
1088,-0.955,-0.485
1089,-0.930,-0.470
1090,-0.915,-0.435
1091,-0.930,-0.405
1092,-0.945,-0.410
1093,-0.950,-0.470
1094,-0.955,-0.525
1095,-0.945,-0.530
1096,-0.945,-0.490
1097,-0.945,-0.440
1098,-0.970,-0.425
1099,-0.960,-0.460
1100,-0.935,-0.530
1101,-0.920,-0.530
1102,-0.905,-0.485
1103,-0.905,-0.435
1104,-0.915,-0.430
1105,-0.920,-0.490
1106,-0.915,-0.545
1107,-0.905,-0.590
1108,-0.930,-0.550
1109,-0.930,-0.510
1110,-0.945,-0.505
1111,-0.930,-0.555
1112,-0.905,-0.600
1113,-0.880,-0.610
1114,-0.865,-0.555
1115,-0.890,-0.490
1116,-0.910,-0.485
1117,-0.930,-0.525
1118,-0.915,-0.615
1119,-0.925,-0.660
1120,-0.915,-0.650
1121,-0.940,-0.590
1122,-0.940,-0.535
1123,-0.940,-0.560
1124,-0.940,-0.600
1125,-0.905,-0.650
1126,-0.895,-0.635
1127,-0.910,-0.580
1128,-0.910,-0.540
1129,-0.945,-0.565
1130,-0.955,-0.625
1131,-0.945,-0.665
1132,-0.940,-0.660
1133,-0.970,-0.600
1134,-0.955,-0.575
1135,-0.945,-0.580
1136,-0.930,-0.630
1137,-0.925,-0.620
1138,-0.920,-0.595
1139,-0.940,-0.555
1140,-0.930,-0.545
1141,-0.950,-0.590
1142,-0.950,-0.655
1143,-0.960,-0.655
1144,-0.960,-0.625
1145,-0.975,-0.580
1146,-0.985,-0.555
1147,-0.990,-0.610
1148,-0.975,-0.650
1149,-0.960,-0.635
1150,-0.960,-0.600
1151,-0.965,-0.555
1152,-1.000,-0.550
1153,-1.020,-0.580
1154,-1.005,-0.650
1155,-1.010,-0.670
1156,-1.015,-0.635
1157,-1.030,-0.585
1158,-1.045,-0.570
1159,-1.030,-0.600
1160,-1.015,-0.660
1161,-1.000,-0.640
1162,-0.990,-0.595
1163,-0.995,-0.535
1164,-1.000,-0.550
1165,-1.015,-0.595
1166,-1.020,-0.670
1167,-1.010,-0.680
1168,-1.000,-0.655
1169,-1.010,-0.580
1170,-1.020,-0.565
1171,-1.015,-0.600
1172,-1.015,-0.645
1173,-0.985,-0.650
1174,-0.975,-0.600
1175,-0.970,-0.550
1176,-0.985,-0.540
1177,-0.970,-0.570
1178,-0.980,-0.655
1179,-0.965,-0.660
1180,-0.955,-0.625
1181,-0.965,-0.575
1182,-0.965,-0.570
1183,-0.955,-0.590
1184,-0.935,-0.635
1185,-0.915,-0.630
1186,-0.920,-0.575
1187,-0.915,-0.545
1188,-0.915,-0.540
1189,-0.895,-0.585
1190,-0.870,-0.635
1191,-0.845,-0.645
1192,-0.835,-0.615
1193,-0.820,-0.565
1194,-0.820,-0.550
1195,-0.810,-0.560
1196,-0.770,-0.595
1197,-0.750,-0.560
1198,-0.755,-0.490
1199,-0.760,-0.460
1200,-0.760,-0.470
1201,-0.780,-0.545
1202,-0.780,-0.570
1203,-0.790,-0.560
1204,-0.830,-0.505
1205,-0.840,-0.505
1206,-0.845,-0.535
1207,-0.855,-0.565
1208,-0.815,-0.575
1209,-0.815,-0.520
1210,-0.825,-0.480
1211,-0.835,-0.495
1212,-0.855,-0.540
1213,-0.880,-0.610
1214,-0.900,-0.610
1215,-0.930,-0.595
1216,-0.970,-0.590
1217,-0.970,-0.635
1218,-0.975,-0.645
1219,-0.965,-0.655
1220,-0.970,-0.605
1221,-0.980,-0.525
1222,-0.990,-0.510
1223,-1.000,-0.560
1224,-1.010,-0.610
1225,-1.005,-0.655
1226,-1.005,-0.650
1227,-1.020,-0.580
1228,-1.030,-0.560
1229,-1.030,-0.590
1230,-1.005,-0.635
1231,-1.015,-0.645
1232,-1.000,-0.630
1233,-1.010,-0.565
1234,-1.050,-0.535
1235,-1.110,-0.590
1236,-1.165,-0.635
1237,-1.195,-0.655
1238,-1.215,-0.640
1239,-1.200,-0.575
1240,-1.160,-0.550
1241,-1.060,-0.540
1242,-0.895,-0.520
1243,-0.690,-0.475
1244,-0.465,-0.370
1245,-0.290,-0.270
1246,-0.115,-0.170
1247,0.050,-0.180
1248,0.225,-0.230
1249,0.365,-0.285
1250,0.495,-0.310
1251,0.580,-0.315
1252,0.605,-0.375
1253,0.630,-0.505
1254,0.615,-0.665
1255,0.605,-0.765
1256,0.575,-0.745
1257,0.520,-0.625
1258,0.415,-0.465
1259,0.235,-0.370
1260,-0.055,-0.360
1261,-0.370,-0.440
1262,-0.655,-0.540
1263,-0.865,-0.585
1264,-0.985,-0.610
1265,-1.035,-0.645
1266,-1.025,-0.700
1267,-0.930,-0.720
1268,-0.880,-0.705
1269,-0.860,-0.630
1270,-0.885,-0.540
1271,-0.905,-0.495
1272,-0.960,-0.545
1273,-1.000,-0.610
1274,-1.040,-0.665
1275,-1.065,-0.655
1276,-1.100,-0.610
1277,-1.110,-0.585
1278,-1.095,-0.590
1279,-1.095,-0.600
1280,-1.065,-0.595
1281,-1.045,-0.565
1282,-1.055,-0.505
1283,-1.060,-0.530
1284,-1.075,-0.575
1285,-1.070,-0.610
1286,-1.055,-0.585
1287,-1.060,-0.555
1288,-1.075,-0.535
1289,-1.090,-0.565
1290,-1.080,-0.605
1291,-1.065,-0.605
1292,-1.045,-0.565
1293,-1.045,-0.515
1294,-1.040,-0.450
1295,-1.045,-0.480
1296,-1.055,-0.535
1297,-1.040,-0.595
1298,-1.035,-0.585
1299,-1.055,-0.535
1300,-1.080,-0.485
1301,-1.085,-0.490
1302,-1.080,-0.525
1303,-1.050,-0.565
1304,-1.040,-0.525
1305,-1.045,-0.465
1306,-1.040,-0.420
1307,-1.045,-0.440
1308,-1.040,-0.485
1309,-1.025,-0.540
1310,-1.020,-0.505
1311,-1.020,-0.460
1312,-1.025,-0.420
1313,-1.025,-0.415
1314,-1.020,-0.470
1315,-1.020,-0.500
1316,-0.980,-0.490
1317,-0.980,-0.450
1318,-0.980,-0.380
1319,-0.990,-0.360
1320,-1.000,-0.405
1321,-0.990,-0.470
1322,-0.980,-0.495
1323,-0.995,-0.465
1324,-0.995,-0.395
1325,-1.010,-0.390
1326,-1.000,-0.435
1327,-0.990,-0.470
1328,-0.970,-0.470
1329,-0.965,-0.415
1330,-0.950,-0.360
1331,-0.955,-0.380
1332,-0.965,-0.425
1333,-0.960,-0.485
1334,-0.930,-0.500
1335,-0.945,-0.460
1336,-0.950,-0.405
1337,-0.970,-0.410
1338,-0.960,-0.440
1339,-0.940,-0.505
1340,-0.910,-0.505
1341,-0.910,-0.485
1342,-0.910,-0.410
1343,-0.920,-0.415
1344,-0.920,-0.480
1345,-0.905,-0.535
1346,-0.910,-0.550
1347,-0.920,-0.520
1348,-0.935,-0.500
1349,-0.965,-0.510
1350,-0.955,-0.560
1351,-0.935,-0.570
1352,-0.930,-0.570
1353,-0.925,-0.515
1354,-0.935,-0.495
1355,-0.935,-0.540
1356,-0.935,-0.595
1357,-0.935,-0.615
1358,-0.960,-0.575
1359,-0.985,-0.535
1360,-0.980,-0.535
1361,-0.970,-0.585
1362,-0.975,-0.635
1363,-0.940,-0.610
1364,-0.945,-0.565
1365,-0.940,-0.510
1366,-0.945,-0.505
1367,-0.945,-0.555
1368,-0.950,-0.625
1369,-0.955,-0.635
1370,-0.955,-0.630
1371,-0.965,-0.560
1372,-0.995,-0.540
1373,-1.010,-0.575
1374,-0.995,-0.625
1375,-0.965,-0.645
1376,-0.955,-0.605
1377,-0.950,-0.530
1378,-0.970,-0.520
1379,-0.980,-0.545
1380,-0.990,-0.595
1381,-0.970,-0.635
1382,-0.990,-0.620
1383,-1.015,-0.580
1384,-1.020,-0.560
1385,-1.040,-0.600
1386,-1.030,-0.655
1387,-1.025,-0.655
1388,-1.015,-0.610
1389,-1.015,-0.535
1390,-1.025,-0.515
1391,-1.020,-0.545
1392,-1.020,-0.595
1393,-1.025,-0.635
1394,-1.030,-0.635
1395,-1.045,-0.580
1396,-1.080,-0.560
1397,-1.085,-0.600
1398,-1.085,-0.655
1399,-1.065,-0.655
1400,-1.050,-0.630
1401,-1.035,-0.550
1402,-1.030,-0.525
1403,-1.035,-0.570
1404,-1.025,-0.615
1405,-1.015,-0.650
1406,-1.025,-0.625
1407,-1.045,-0.580
1408,-1.055,-0.550
1409,-1.065,-0.585
1410,-1.045,-0.630
1411,-1.040,-0.655
1412,-1.010,-0.615
1413,-1.020,-0.550
1414,-0.995,-0.530
1415,-0.980,-0.555
1416,-0.965,-0.615
1417,-0.950,-0.630
1418,-0.965,-0.610
1419,-0.955,-0.580
1420,-0.970,-0.560
1421,-0.955,-0.595
1422,-0.925,-0.630
1423,-0.880,-0.615
1424,-0.875,-0.575
1425,-0.855,-0.510
1426,-0.840,-0.515
1427,-0.800,-0.560
1428,-0.785,-0.585
1429,-0.765,-0.565
1430,-0.775,-0.505
1431,-0.800,-0.470
1432,-0.805,-0.505
1433,-0.790,-0.550
1434,-0.795,-0.565
1435,-0.790,-0.515
1436,-0.805,-0.475
1437,-0.805,-0.465
1438,-0.815,-0.495
1439,-0.805,-0.550
1440,-0.805,-0.585
1441,-0.820,-0.550
1442,-0.835,-0.485
1443,-0.870,-0.475
1444,-0.880,-0.515
1445,-0.880,-0.590
1446,-0.885,-0.635
1447,-0.895,-0.615
1448,-0.930,-0.565
1449,-0.950,-0.520
1450,-0.975,-0.530
1451,-0.960,-0.600
1452,-0.955,-0.625
1453,-0.970,-0.625
1454,-0.995,-0.585
1455,-1.010,-0.565
1456,-1.020,-0.570
1457,-1.035,-0.620
1458,-1.030,-0.655
1459,-1.015,-0.630
1460,-1.015,-0.575
1461,-1.020,-0.515
1462,-1.035,-0.515
1463,-1.025,-0.575
1464,-1.025,-0.645
1465,-1.000,-0.665
1466,-1.010,-0.630
1467,-1.035,-0.580
1468,-1.070,-0.570
1469,-1.085,-0.605
1470,-1.090,-0.665
1471,-1.125,-0.665
1472,-1.155,-0.620
1473,-1.205,-0.565
1474,-1.210,-0.520
1475,-1.180,-0.535
1476,-1.070,-0.555
1477,-0.920,-0.515
1478,-0.745,-0.405
1479,-0.550,-0.320
1480,-0.355,-0.270
1481,-0.170,-0.290
1482,0.025,-0.290
1483,0.210,-0.255
1484,0.380,-0.175
1485,0.510,-0.160
1486,0.600,-0.195
1487,0.650,-0.335
1488,0.685,-0.510
1489,0.670,-0.645
1490,0.625,-0.685
1491,0.550,-0.625
1492,0.465,-0.550
1493,0.355,-0.490
1494,0.170,-0.455
1495,-0.120,-0.415
1496,-0.420,-0.420
1497,-0.715,-0.425
1498,-0.905,-0.505
1499,-1.000,-0.620
1500,-1.005,-0.695
1501,-0.960,-0.710
1502,-0.915,-0.650
1503,-0.890,-0.580
1504,-0.910,-0.550
1505,-0.935,-0.585
1506,-0.975,-0.635
1507,-1.025,-0.620
1508,-1.050,-0.570
1509,-1.075,-0.525
1510,-1.090,-0.520
1511,-1.090,-0.570
1512,-1.070,-0.600
1513,-1.060,-0.615
1514,-1.065,-0.575
1515,-1.090,-0.520
1516,-1.095,-0.510
1517,-1.100,-0.530
1518,-1.080,-0.585
1519,-1.070,-0.605
1520,-1.065,-0.560
1521,-1.065,-0.490
1522,-1.050,-0.450
1523,-1.075,-0.480
1524,-1.065,-0.530
1525,-1.040,-0.570
1526,-1.035,-0.550
1527,-1.040,-0.515
1528,-1.065,-0.485
1529,-1.075,-0.505
1530,-1.075,-0.545
1531,-1.050,-0.565
1532,-1.040,-0.515
1533,-1.035,-0.440
1534,-1.055,-0.400
1535,-1.075,-0.430
1536,-1.045,-0.470
1537,-1.040,-0.530
1538,-1.045,-0.545
1539,-1.040,-0.500
1540,-1.060,-0.450
1541,-1.070,-0.445
1542,-1.060,-0.490
1543,-1.045,-0.515
1544,-1.000,-0.500
1545,-1.000,-0.420
1546,-1.035,-0.380
1547,-1.035,-0.390
1548,-1.025,-0.420
1549,-1.015,-0.465
1550,-1.005,-0.470
1551,-1.010,-0.415
1552,-1.030,-0.380
1553,-1.040,-0.380
1554,-1.040,-0.425
1555,-1.020,-0.470
1556,-0.985,-0.455
1557,-0.975,-0.400
1558,-0.965,-0.320
1559,-0.970,-0.315
1560,-0.980,-0.345
1561,-0.980,-0.390
1562,-0.960,-0.450
1563,-0.970,-0.450
1564,-0.970,-0.390
1565,-0.965,-0.350
1566,-0.965,-0.365
1567,-0.965,-0.410
1568,-0.950,-0.435
1569,-0.935,-0.395
1570,-0.915,-0.335
1571,-0.935,-0.345
1572,-0.925,-0.385
1573,-0.920,-0.440
1574,-0.930,-0.465
1575,-0.925,-0.445
1576,-0.940,-0.400
1577,-0.950,-0.430
1578,-0.935,-0.470
1579,-0.920,-0.505
1580,-0.905,-0.495
1581,-0.885,-0.450
1582,-0.900,-0.405
1583,-0.905,-0.430
1584,-0.910,-0.480
1585,-0.910,-0.535
1586,-0.885,-0.555
1587,-0.905,-0.525
1588,-0.925,-0.485
1589,-0.930,-0.490
1590,-0.945,-0.530
1591,-0.940,-0.580
1592,-0.910,-0.595
1593,-0.890,-0.540
1594,-0.920,-0.485
1595,-0.920,-0.460
1596,-0.925,-0.495
1597,-0.920,-0.570
1598,-0.925,-0.600
1599,-0.930,-0.605
1600,-0.935,-0.565
1601,-0.950,-0.520
1602,-0.965,-0.535
1603,-0.975,-0.590
1604,-0.945,-0.610
1605,-0.925,-0.595
1606,-0.925,-0.505
1607,-0.945,-0.475
1608,-0.940,-0.500
1609,-0.940,-0.555
1610,-0.945,-0.620
1611,-0.940,-0.620
1612,-0.950,-0.590
1613,-0.975,-0.540
1614,-0.985,-0.515
1615,-1.000,-0.535
1616,-0.970,-0.585
1617,-0.960,-0.595
1618,-0.950,-0.540
1619,-0.940,-0.495
1620,-0.965,-0.490
1621,-0.970,-0.540
1622,-0.970,-0.590
1623,-0.980,-0.630
1624,-0.980,-0.600
1625,-1.015,-0.540
1626,-1.030,-0.490
1627,-1.035,-0.520
1628,-1.025,-0.575
1629,-1.000,-0.605
1630,-0.995,-0.595
1631,-0.990,-0.545
1632,-1.000,-0.490
1633,-1.035,-0.490
1634,-1.040,-0.570
1635,-1.035,-0.605
1636,-1.020,-0.630
1637,-1.040,-0.600
1638,-1.020,-0.515
1639,-1.040,-0.495
1640,-1.040,-0.520
1641,-1.035,-0.575
1642,-1.005,-0.590
1643,-0.990,-0.560
1644,-1.005,-0.510
1645,-1.025,-0.495
1646,-1.025,-0.525
1647,-1.015,-0.590
1648,-1.000,-0.615
1649,-1.000,-0.590
1650,-1.000,-0.545
1651,-1.010,-0.490
1652,-0.995,-0.525
1653,-0.970,-0.565
1654,-0.935,-0.570
1655,-0.925,-0.540
1656,-0.930,-0.490
1657,-0.940,-0.480
1658,-0.945,-0.535
1659,-0.940,-0.600
1660,-0.925,-0.630
1661,-0.920,-0.595
1662,-0.905,-0.525
1663,-0.905,-0.460
1664,-0.885,-0.455
1665,-0.845,-0.520
1666,-0.805,-0.545
1667,-0.775,-0.550
1668,-0.765,-0.485
1669,-0.765,-0.430
1670,-0.770,-0.425
1671,-0.775,-0.460
1672,-0.770,-0.515
1673,-0.760,-0.515
1674,-0.745,-0.450
1675,-0.760,-0.410
1676,-0.790,-0.425
1677,-0.775,-0.450
1678,-0.770,-0.490
1679,-0.760,-0.485
1680,-0.765,-0.455
1681,-0.795,-0.405
1682,-0.830,-0.400
1683,-0.845,-0.475
1684,-0.840,-0.535
1685,-0.825,-0.550
1686,-0.830,-0.515
1687,-0.840,-0.445
1688,-0.870,-0.430
1689,-0.895,-0.440
1690,-0.900,-0.545
1691,-0.905,-0.600
1692,-0.905,-0.590
1693,-0.925,-0.535
1694,-0.950,-0.490
1695,-0.980,-0.485
1696,-1.010,-0.535
1697,-1.000,-0.605
1698,-0.995,-0.610
1699,-0.985,-0.545
1700,-0.995,-0.475
1701,-1.020,-0.450
1702,-1.020,-0.485
1703,-1.015,-0.535
1704,-1.000,-0.590
1705,-0.980,-0.580
1706,-0.970,-0.515
1707,-0.995,-0.480
1708,-1.015,-0.475
1709,-1.025,-0.530
1710,-1.030,-0.590
1711,-1.015,-0.600
1712,-1.035,-0.560
1713,-1.075,-0.470
1714,-1.120,-0.455
1715,-1.165,-0.490
1716,-1.180,-0.560
1717,-1.165,-0.560
1718,-1.100,-0.500
1719,-1.010,-0.420
1720,-0.850,-0.345
1721,-0.650,-0.315
1722,-0.430,-0.290
1723,-0.200,-0.230
1724,0.000,-0.140
1725,0.200,-0.065
1726,0.405,-0.065
1727,0.545,-0.150
1728,0.650,-0.235
1729,0.705,-0.320
1730,0.725,-0.390
1731,0.680,-0.460
1732,0.635,-0.535
1733,0.570,-0.605
1734,0.505,-0.585
1735,0.415,-0.495
1736,0.265,-0.345
1737,0.025,-0.230
1738,-0.275,-0.190
1739,-0.550,-0.315
1740,-0.750,-0.480
1741,-0.865,-0.605
1742,-0.925,-0.625
1743,-0.940,-0.600
1744,-0.920,-0.550
1745,-0.885,-0.525
1746,-0.860,-0.575
1747,-0.875,-0.560
1748,-0.875,-0.520
1749,-0.935,-0.465
1750,-0.980,-0.445
1751,-1.010,-0.470
1752,-1.030,-0.545
1753,-1.030,-0.565
1754,-1.035,-0.540
1755,-1.045,-0.500
1756,-1.055,-0.455
1757,-1.070,-0.450
1758,-1.065,-0.525
1759,-1.060,-0.540
1760,-1.045,-0.545
1761,-1.050,-0.485
1762,-1.040,-0.430
1763,-1.030,-0.375
1764,-1.035,-0.420
1765,-1.025,-0.480
1766,-1.025,-0.525
1767,-1.025,-0.480
1768,-1.035,-0.455
1769,-1.050,-0.445
1770,-1.055,-0.460
1771,-1.035,-0.490
1772,-1.010,-0.485
1773,-1.025,-0.440
1774,-1.015,-0.375
1775,-1.020,-0.365
1776,-1.025,-0.405
1777,-1.015,-0.470
1778,-1.005,-0.480
1779,-1.005,-0.445
1780,-1.015,-0.405
1781,-1.020,-0.350
1782,-1.040,-0.405
1783,-1.020,-0.435
1784,-1.015,-0.460
1785,-0.990,-0.395
1786,-0.980,-0.340
1787,-0.980,-0.315
1788,-0.985,-0.335
1789,-0.980,-0.385
1790,-0.970,-0.415
1791,-0.970,-0.380
1792,-0.990,-0.355
1793,-0.990,-0.340
1794,-0.985,-0.365
1795,-0.960,-0.385
1796,-0.945,-0.355
1797,-0.945,-0.320
1798,-0.940,-0.290
1799,-0.925,-0.325
1800,-0.925,-0.350
1801,-0.920,-0.355
1802,-0.920,-0.360
1803,-0.930,-0.315
1804,-0.945,-0.320
1805,-0.940,-0.365
1806,-0.935,-0.400
1807,-0.925,-0.380
1808,-0.915,-0.345
1809,-0.910,-0.300
1810,-0.905,-0.285
1811,-0.900,-0.350
1812,-0.885,-0.395
1813,-0.885,-0.400
1814,-0.900,-0.355
1815,-0.900,-0.340
1816,-0.920,-0.350
1817,-0.900,-0.415
1818,-0.890,-0.445
1819,-0.865,-0.435
1820,-0.860,-0.385
1821,-0.855,-0.345
1822,-0.880,-0.365
1823,-0.850,-0.420
1824,-0.825,-0.470
1825,-0.830,-0.480
1826,-0.835,-0.430
1827,-0.875,-0.395
1828,-0.885,-0.415
1829,-0.885,-0.480
1830,-0.870,-0.520
1831,-0.865,-0.540
1832,-0.865,-0.490
1833,-0.855,-0.410
1834,-0.870,-0.395
1835,-0.850,-0.415
1836,-0.860,-0.490
1837,-0.855,-0.535
1838,-0.850,-0.525
1839,-0.875,-0.460
1840,-0.885,-0.425
1841,-0.905,-0.445
1842,-0.910,-0.535
1843,-0.895,-0.545
1844,-0.870,-0.525
1845,-0.870,-0.460
1846,-0.875,-0.390
1847,-0.885,-0.405
1848,-0.885,-0.500
1849,-0.890,-0.540
1850,-0.875,-0.560
1851,-0.870,-0.535
1852,-0.900,-0.460
1853,-0.920,-0.445
1854,-0.935,-0.480
1855,-0.915,-0.520
1856,-0.905,-0.550
1857,-0.880,-0.540
1858,-0.880,-0.470
1859,-0.910,-0.415
1860,-0.915,-0.430
1861,-0.920,-0.490
1862,-0.915,-0.545
1863,-0.925,-0.555
1864,-0.955,-0.510
1865,-0.945,-0.475
1866,-0.960,-0.495
1867,-0.965,-0.515
1868,-0.960,-0.545
1869,-0.935,-0.510
1870,-0.955,-0.465
1871,-0.965,-0.445
1872,-0.990,-0.500
1873,-0.985,-0.545
1874,-0.980,-0.560
1875,-0.990,-0.515
1876,-1.005,-0.500
1877,-1.000,-0.515
1878,-1.010,-0.550
1879,-1.005,-0.570
1880,-0.995,-0.530
1881,-0.990,-0.480
1882,-0.980,-0.445
1883,-0.990,-0.490
1884,-0.985,-0.545
1885,-0.965,-0.565
1886,-0.965,-0.535
1887,-0.975,-0.500
1888,-1.000,-0.470
1889,-0.985,-0.510
1890,-0.980,-0.565
1891,-0.965,-0.570
1892,-0.950,-0.540
1893,-0.945,-0.485
1894,-0.930,-0.450
1895,-0.910,-0.475
1896,-0.905,-0.520
1897,-0.880,-0.545
1898,-0.885,-0.525
1899,-0.895,-0.495
1900,-0.910,-0.470
1901,-0.905,-0.535
1902,-0.885,-0.550
1903,-0.845,-0.555
1904,-0.810,-0.480
1905,-0.800,-0.425
1906,-0.795,-0.410
1907,-0.760,-0.455
1908,-0.750,-0.505
1909,-0.720,-0.510
1910,-0.710,-0.470
1911,-0.700,-0.405
1912,-0.710,-0.405
1913,-0.715,-0.435
1914,-0.705,-0.485
1915,-0.710,-0.485
1916,-0.715,-0.430
1917,-0.720,-0.375
1918,-0.735,-0.370
1919,-0.750,-0.400
1920,-0.750,-0.450
1921,-0.745,-0.490
1922,-0.755,-0.460
1923,-0.770,-0.410
1924,-0.795,-0.425
1925,-0.795,-0.455
1926,-0.800,-0.510
1927,-0.815,-0.505
1928,-0.805,-0.490
1929,-0.840,-0.450
1930,-0.850,-0.440
1931,-0.875,-0.485
1932,-0.895,-0.545
1933,-0.885,-0.560
1934,-0.900,-0.535
1935,-0.915,-0.490
1936,-0.935,-0.475
1937,-0.935,-0.515
1938,-0.940,-0.535
1939,-0.930,-0.540
1940,-0.945,-0.495
1941,-0.940,-0.465
1942,-0.935,-0.490
1943,-0.925,-0.525
1944,-0.925,-0.515
1945,-0.940,-0.495
1946,-0.955,-0.485
1947,-0.965,-0.485
1948,-0.985,-0.560
1949,-1.015,-0.590
1950,-1.075,-0.575
1951,-1.110,-0.515
1952,-1.160,-0.480
1953,-1.150,-0.470
1954,-1.070,-0.490
1955,-0.960,-0.500
1956,-0.825,-0.395
1957,-0.645,-0.300
1958,-0.445,-0.210
1959,-0.250,-0.195
1960,-0.060,-0.205
1961,0.120,-0.205
1962,0.290,-0.145
1963,0.470,-0.100
1964,0.605,-0.095
1965,0.710,-0.165
1966,0.765,-0.305
1967,0.770,-0.455
1968,0.725,-0.530
1969,0.665,-0.510
1970,0.580,-0.470
1971,0.485,-0.460
1972,0.330,-0.420
1973,0.075,-0.380
1974,-0.205,-0.325
1975,-0.500,-0.315
1976,-0.715,-0.380
1977,-0.830,-0.470
1978,-0.885,-0.585
1979,-0.850,-0.640
1980,-0.810,-0.600
1981,-0.780,-0.520
1982,-0.770,-0.460
1983,-0.800,-0.430
1984,-0.840,-0.500
1985,-0.880,-0.560
1986,-0.925,-0.575
1987,-0.955,-0.525
1988,-0.980,-0.475
1989,-0.995,-0.455
1990,-1.015,-0.475
1991,-1.005,-0.520
1992,-0.985,-0.530
1993,-0.990,-0.495
1994,-0.985,-0.450
1995,-1.000,-0.430
1996,-1.010,-0.470
1997,-1.015,-0.530
1998,-1.010,-0.560
1999,-0.990,-0.540
2000,-0.970,-0.465
2001,-0.990,-0.400
2002,-0.975,-0.375
2003,-0.965,-0.415
2004,-0.950,-0.485
2005,-0.950,-0.480
2006,-0.960,-0.460
2007,-0.975,-0.410
2008,-0.990,-0.405
2009,-0.990,-0.465
2010,-0.980,-0.470
2011,-0.970,-0.460
2012,-0.975,-0.430
2013,-0.985,-0.390
2014,-0.985,-0.400
2015,-0.945,-0.435
2016,-0.950,-0.440
2017,-0.950,-0.390
2018,-0.960,-0.365
2019,-0.970,-0.385
2020,-0.975,-0.420
2021,-0.965,-0.465
2022,-0.940,-0.450
2023,-0.950,-0.385
2024,-0.945,-0.315
2025,-0.960,-0.305
2026,-0.940,-0.350
2027,-0.915,-0.395
2028,-0.900,-0.400
2029,-0.915,-0.345
2030,-0.920,-0.310
2031,-0.940,-0.310
2032,-0.930,-0.350
2033,-0.945,-0.395
2034,-0.940,-0.405
2035,-0.930,-0.350
2036,-0.925,-0.295
2037,-0.910,-0.280
2038,-0.915,-0.295
2039,-0.910,-0.340
2040,-0.880,-0.370
2041,-0.870,-0.325
2042,-0.880,-0.295
2043,-0.895,-0.280
2044,-0.895,-0.340
2045,-0.885,-0.390
2046,-0.875,-0.410
2047,-0.875,-0.385
2048,-0.865,-0.300
2049,-0.865,-0.270
2050,-0.850,-0.280
2051,-0.830,-0.350
2052,-0.820,-0.395
2053,-0.830,-0.375
2054,-0.835,-0.345
2055,-0.845,-0.330
2056,-0.850,-0.370
2057,-0.840,-0.425
2058,-0.830,-0.455
2059,-0.815,-0.420
2060,-0.835,-0.380
2061,-0.840,-0.325
2062,-0.845,-0.370
2063,-0.825,-0.420
2064,-0.810,-0.465
2065,-0.810,-0.460
2066,-0.815,-0.415
2067,-0.850,-0.395
2068,-0.860,-0.420
2069,-0.870,-0.495
2070,-0.870,-0.535
2071,-0.845,-0.525
2072,-0.845,-0.485
2073,-0.830,-0.420
2074,-0.860,-0.395
2075,-0.855,-0.430
2076,-0.840,-0.500
2077,-0.840,-0.530
2078,-0.850,-0.515
2079,-0.870,-0.465
2080,-0.885,-0.460
2081,-0.875,-0.500
2082,-0.875,-0.545
2083,-0.885,-0.525
2084,-0.875,-0.495
2085,-0.860,-0.440
2086,-0.865,-0.450
2087,-0.860,-0.480
2088,-0.865,-0.525
2089,-0.850,-0.520
2090,-0.865,-0.495
2091,-0.880,-0.475
2092,-0.885,-0.490
2093,-0.895,-0.550
2094,-0.885,-0.550
2095,-0.885,-0.525
2096,-0.895,-0.475
2097,-0.915,-0.450
2098,-0.895,-0.475
2099,-0.890,-0.520
2100,-0.880,-0.550
2101,-0.890,-0.530
2102,-0.930,-0.485
2103,-0.940,-0.450
2104,-0.960,-0.475
2105,-0.960,-0.550
2106,-0.975,-0.570
2107,-0.950,-0.570
2108,-0.960,-0.505
2109,-0.970,-0.450
2110,-0.975,-0.450
2111,-0.975,-0.485
2112,-0.970,-0.550
2113,-0.955,-0.545
2114,-0.955,-0.530
2115,-0.965,-0.500
2116,-0.990,-0.505
2117,-0.980,-0.560
2118,-0.975,-0.590
2119,-0.960,-0.575
2120,-0.950,-0.520
2121,-0.950,-0.470
2122,-0.960,-0.455
2123,-0.945,-0.505
2124,-0.955,-0.570
2125,-0.940,-0.580
2126,-0.925,-0.555
2127,-0.925,-0.505
2128,-0.945,-0.470
2129,-0.975,-0.505
2130,-0.955,-0.550
2131,-0.945,-0.580
2132,-0.915,-0.540
2133,-0.895,-0.480
2134,-0.885,-0.425
2135,-0.880,-0.415
2136,-0.860,-0.480
2137,-0.855,-0.530
2138,-0.845,-0.540
2139,-0.860,-0.500
2140,-0.890,-0.470
2141,-0.885,-0.460
2142,-0.885,-0.505
2143,-0.840,-0.540
2144,-0.805,-0.525
2145,-0.770,-0.485
2146,-0.745,-0.440
2147,-0.745,-0.395
2148,-0.725,-0.440
2149,-0.705,-0.480
2150,-0.690,-0.500
2151,-0.705,-0.460
2152,-0.715,-0.400
2153,-0.725,-0.390
2154,-0.725,-0.415
2155,-0.715,-0.470
2156,-0.705,-0.490
2157,-0.700,-0.440
2158,-0.715,-0.385
2159,-0.715,-0.385
2160,-0.735,-0.425
2161,-0.740,-0.465
2162,-0.740,-0.460
2163,-0.770,-0.440
2164,-0.780,-0.430
2165,-0.795,-0.460
2166,-0.810,-0.515
2167,-0.825,-0.520
2168,-0.830,-0.485
2169,-0.850,-0.450
2170,-0.885,-0.450
2171,-0.885,-0.510
2172,-0.885,-0.560
2173,-0.880,-0.565
2174,-0.890,-0.510
2175,-0.940,-0.470
2176,-0.970,-0.465
2177,-0.960,-0.505
2178,-0.950,-0.575
2179,-0.945,-0.580
2180,-0.935,-0.535
2181,-0.925,-0.460
2182,-0.950,-0.420
2183,-0.935,-0.470
2184,-0.940,-0.520
2185,-0.920,-0.555
2186,-0.925,-0.540
2187,-0.970,-0.500
2188,-0.990,-0.505
2189,-1.015,-0.540
2190,-1.035,-0.575
2191,-1.075,-0.580
2192,-1.120,-0.540
2193,-1.120,-0.485
2194,-1.105,-0.430
2195,-1.025,-0.435
2196,-0.920,-0.425
2197,-0.755,-0.410
2198,-0.585,-0.330
2199,-0.415,-0.230
2200,-0.260,-0.155
2201,-0.105,-0.110
2202,0.040,-0.140
2203,0.205,-0.155
2204,0.390,-0.135
2205,0.530,-0.105
2206,0.645,-0.070
2207,0.710,-0.115
2208,0.735,-0.275
2209,0.735,-0.445
2210,0.705,-0.575
2211,0.635,-0.565
2212,0.555,-0.485
2213,0.460,-0.405
2214,0.325,-0.345
2215,0.125,-0.320
2216,-0.100,-0.335
2217,-0.370,-0.350
2218,-0.600,-0.385
2219,-0.765,-0.405
2220,-0.860,-0.475
2221,-0.865,-0.570
2222,-0.840,-0.635
2223,-0.800,-0.615
2224,-0.775,-0.550
2225,-0.785,-0.480
2226,-0.820,-0.445
2227,-0.880,-0.465
2228,-0.920,-0.530
2229,-0.930,-0.545
2230,-0.960,-0.515
2231,-0.990,-0.465
2232,-0.990,-0.465
2233,-1.015,-0.470
2234,-1.000,-0.520
2235,-0.990,-0.530
2236,-1.005,-0.525
2237,-1.010,-0.475
2238,-1.010,-0.485
2239,-1.015,-0.515
2240,-1.000,-0.545
2241,-0.960,-0.520
2242,-0.950,-0.455
2243,-0.955,-0.405
2244,-0.950,-0.435
2245,-0.960,-0.485
2246,-0.960,-0.540
2247,-0.970,-0.540
2248,-1.000,-0.490
2249,-1.005,-0.440
2250,-1.010,-0.440
2251,-0.995,-0.485
2252,-0.980,-0.510
2253,-0.940,-0.485
2254,-0.955,-0.430
2255,-0.950,-0.380
2256,-0.970,-0.380
2257,-0.980,-0.405
2258,-0.960,-0.490
2259,-0.960,-0.510
2260,-0.940,-0.450
2261,-0.950,-0.415
2262,-0.975,-0.385
2263,-0.970,-0.420
2264,-0.955,-0.455
2265,-0.925,-0.460
2266,-0.925,-0.410
2267,-0.920,-0.335
2268,-0.935,-0.295
2269,-0.935,-0.330
2270,-0.940,-0.415
2271,-0.925,-0.460
2272,-0.935,-0.440
2273,-0.945,-0.385
2274,-0.950,-0.315
2275,-0.940,-0.305
2276,-0.930,-0.355
2277,-0.915,-0.385
2278,-0.885,-0.375
2279,-0.875,-0.315
2280,-0.885,-0.275
2281,-0.875,-0.270
2282,-0.890,-0.350
2283,-0.895,-0.390
2284,-0.890,-0.410
2285,-0.900,-0.370
2286,-0.910,-0.310
2287,-0.910,-0.290
2288,-0.895,-0.345
2289,-0.885,-0.380
2290,-0.845,-0.395
2291,-0.830,-0.340
2292,-0.845,-0.280
2293,-0.850,-0.275
2294,-0.850,-0.340
2295,-0.855,-0.405
2296,-0.835,-0.455
2297,-0.830,-0.415
2298,-0.840,-0.355
2299,-0.855,-0.325
2300,-0.865,-0.335
2301,-0.835,-0.390
2302,-0.820,-0.425
2303,-0.795,-0.415
2304,-0.810,-0.365
2305,-0.825,-0.365
2306,-0.830,-0.425
2307,-0.820,-0.480
2308,-0.805,-0.470
2309,-0.840,-0.450
2310,-0.850,-0.425
2311,-0.850,-0.430
2312,-0.840,-0.485
2313,-0.820,-0.500
2314,-0.810,-0.460
2315,-0.825,-0.410
2316,-0.835,-0.415
2317,-0.840,-0.450
2318,-0.850,-0.510
2319,-0.860,-0.535
2320,-0.855,-0.500
2321,-0.875,-0.465
2322,-0.880,-0.460
2323,-0.880,-0.480
2324,-0.860,-0.540
2325,-0.845,-0.530
2326,-0.845,-0.475
2327,-0.855,-0.415
2328,-0.865,-0.415
2329,-0.865,-0.480
2330,-0.865,-0.545
2331,-0.860,-0.555
2332,-0.870,-0.525
2333,-0.890,-0.480
2334,-0.910,-0.460
2335,-0.895,-0.510
2336,-0.890,-0.545
2337,-0.870,-0.515
2338,-0.880,-0.470
2339,-0.890,-0.435
2340,-0.895,-0.470
2341,-0.915,-0.510
2342,-0.900,-0.550
2343,-0.925,-0.535
2344,-0.935,-0.495
2345,-0.950,-0.485
2346,-0.960,-0.510
2347,-0.950,-0.560
2348,-0.960,-0.585
2349,-0.940,-0.520
2350,-0.940,-0.470
2351,-0.940,-0.450
2352,-0.945,-0.475
2353,-0.945,-0.540
2354,-0.950,-0.570
2355,-0.945,-0.560
2356,-0.960,-0.505
2357,-0.990,-0.490
2358,-0.980,-0.510
2359,-0.970,-0.560
2360,-0.950,-0.580
2361,-0.935,-0.550
2362,-0.935,-0.470
2363,-0.935,-0.450
2364,-0.955,-0.460
2365,-0.955,-0.525
2366,-0.950,-0.575
2367,-0.935,-0.565
2368,-0.940,-0.510
2369,-0.935,-0.475
2370,-0.940,-0.500
2371,-0.945,-0.535
2372,-0.905,-0.555
2373,-0.900,-0.525
2374,-0.900,-0.475
2375,-0.890,-0.465
2376,-0.875,-0.495
2377,-0.870,-0.540
2378,-0.850,-0.545
2379,-0.850,-0.520
2380,-0.850,-0.505
2381,-0.855,-0.520
2382,-0.855,-0.545
2383,-0.830,-0.540
2384,-0.800,-0.475
2385,-0.775,-0.435
2386,-0.750,-0.455
2387,-0.730,-0.485
2388,-0.675,-0.505
2389,-0.670,-0.455
2390,-0.670,-0.400
2391,-0.695,-0.380
2392,-0.685,-0.435
2393,-0.700,-0.470
2394,-0.680,-0.515
2395,-0.670,-0.455
2396,-0.680,-0.390
2397,-0.700,-0.360
2398,-0.690,-0.385
2399,-0.705,-0.440
2400,-0.705,-0.475
2401,-0.710,-0.435
2402,-0.720,-0.405
2403,-0.745,-0.405
2404,-0.755,-0.455
2405,-0.755,-0.510
2406,-0.755,-0.520
2407,-0.780,-0.490
2408,-0.810,-0.450
2409,-0.835,-0.470
2410,-0.840,-0.510
2411,-0.835,-0.550
2412,-0.835,-0.565
2413,-0.845,-0.505
2414,-0.860,-0.445
2415,-0.890,-0.440
2416,-0.905,-0.495
2417,-0.915,-0.565
2418,-0.910,-0.600
2419,-0.905,-0.545
2420,-0.920,-0.490
2421,-0.920,-0.430
2422,-0.900,-0.455
2423,-0.895,-0.510
2424,-0.890,-0.550
2425,-0.875,-0.535
2426,-0.895,-0.485
2427,-0.920,-0.470
2428,-0.945,-0.495
2429,-0.965,-0.555
2430,-0.985,-0.585
2431,-1.005,-0.565
2432,-1.055,-0.505
2433,-1.100,-0.465
2434,-1.105,-0.475
2435,-1.060,-0.515
2436,-0.985,-0.495
2437,-0.840,-0.410
2438,-0.690,-0.285
2439,-0.500,-0.210
2440,-0.300,-0.190
2441,-0.105,-0.185
2442,0.105,-0.175
2443,0.295,-0.120
2444,0.455,-0.045
2445,0.620,-0.055
2446,0.705,-0.125
2447,0.775,-0.280
2448,0.795,-0.400
2449,0.750,-0.475
2450,0.685,-0.475
2451,0.575,-0.465
2452,0.455,-0.440
2453,0.275,-0.390
2454,0.005,-0.320
2455,-0.310,-0.290
2456,-0.580,-0.340
2457,-0.775,-0.475
2458,-0.865,-0.585
2459,-0.845,-0.615
2460,-0.815,-0.600
2461,-0.790,-0.520
2462,-0.770,-0.475
2463,-0.780,-0.505
2464,-0.800,-0.545
2465,-0.845,-0.590
2466,-0.885,-0.555
2467,-0.935,-0.515
2468,-0.975,-0.475
2469,-0.975,-0.505
2470,-0.970,-0.540
2471,-0.945,-0.550
2472,-0.960,-0.510
2473,-0.965,-0.455
2474,-0.970,-0.445
2475,-0.985,-0.485
2476,-0.980,-0.550
2477,-0.985,-0.570
2478,-0.975,-0.535
2479,-0.965,-0.470
2480,-0.960,-0.425
2481,-0.960,-0.440
2482,-0.940,-0.485
2483,-0.930,-0.495
2484,-0.920,-0.475
2485,-0.920,-0.425
2486,-0.945,-0.395
2487,-0.955,-0.450
2488,-0.965,-0.510
2489,-0.950,-0.520
2490,-0.950,-0.495
2491,-0.955,-0.450
2492,-0.945,-0.390
2493,-0.950,-0.420
2494,-0.920,-0.455
2495,-0.905,-0.475
2496,-0.895,-0.445
2497,-0.900,-0.405
2498,-0.920,-0.400
2499,-0.940,-0.415
2500,-0.945,-0.470
2501,-0.935,-0.485
2502,-0.920,-0.435
2503,-0.920,-0.375
2504,-0.930,-0.350
2505,-0.935,-0.355
2506,-0.925,-0.395
2507,-0.900,-0.420
2508,-0.890,-0.375
2509,-0.890,-0.325
2510,-0.895,-0.300
2511,-0.915,-0.345
2512,-0.900,-0.400
2513,-0.895,-0.415
2514,-0.890,-0.390
2515,-0.900,-0.335
2516,-0.905,-0.300
2517,-0.890,-0.330
2518,-0.870,-0.365
2519,-0.850,-0.360
2520,-0.845,-0.330
2521,-0.860,-0.295
2522,-0.870,-0.295
2523,-0.885,-0.335
2524,-0.850,-0.400
2525,-0.855,-0.405
2526,-0.860,-0.355
2527,-0.850,-0.335
2528,-0.860,-0.330
2529,-0.850,-0.380
2530,-0.850,-0.400
2531,-0.815,-0.380
2532,-0.825,-0.330
2533,-0.830,-0.340
2534,-0.835,-0.375
2535,-0.840,-0.445
2536,-0.825,-0.455
2537,-0.815,-0.425
2538,-0.835,-0.395
2539,-0.825,-0.380
2540,-0.840,-0.395
2541,-0.815,-0.465
2542,-0.800,-0.495
2543,-0.775,-0.470
2544,-0.790,-0.410
2545,-0.810,-0.375
2546,-0.830,-0.410
2547,-0.860,-0.485
2548,-0.840,-0.565
2549,-0.815,-0.580
2550,-0.820,-0.510
2551,-0.860,-0.445
2552,-0.855,-0.410
2553,-0.850,-0.450
2554,-0.840,-0.515
2555,-0.810,-0.510
2556,-0.795,-0.490
2557,-0.825,-0.440
2558,-0.845,-0.430
2559,-0.865,-0.475
2560,-0.860,-0.545
2561,-0.840,-0.590
2562,-0.850,-0.570
2563,-0.845,-0.500
2564,-0.860,-0.455
2565,-0.865,-0.445
2566,-0.850,-0.505
2567,-0.830,-0.545
2568,-0.815,-0.535
2569,-0.825,-0.495
2570,-0.855,-0.455
2571,-0.875,-0.460
2572,-0.885,-0.535
2573,-0.885,-0.565
2574,-0.880,-0.595
2575,-0.880,-0.540
2576,-0.870,-0.475
2577,-0.885,-0.450
2578,-0.885,-0.490
2579,-0.875,-0.530
2580,-0.865,-0.555
2581,-0.870,-0.520
2582,-0.885,-0.480
2583,-0.910,-0.465
2584,-0.925,-0.490
2585,-0.935,-0.555
2586,-0.945,-0.610
2587,-0.940,-0.575
2588,-0.960,-0.515
2589,-0.955,-0.460
2590,-0.950,-0.465
2591,-0.935,-0.515
2592,-0.935,-0.565
2593,-0.930,-0.575
2594,-0.940,-0.535
2595,-0.975,-0.495
2596,-0.995,-0.505
2597,-0.980,-0.555
2598,-0.975,-0.600
2599,-0.960,-0.575
2600,-0.945,-0.520
2601,-0.955,-0.485
2602,-0.945,-0.490
2603,-0.940,-0.520
2604,-0.930,-0.565
2605,-0.905,-0.545
2606,-0.915,-0.490
2607,-0.940,-0.470
2608,-0.935,-0.520
2609,-0.940,-0.570
2610,-0.925,-0.590
2611,-0.920,-0.570
2612,-0.910,-0.505
2613,-0.915,-0.440
2614,-0.935,-0.455
2615,-0.920,-0.510
2616,-0.900,-0.575
2617,-0.875,-0.575
2618,-0.880,-0.540
2619,-0.865,-0.485
2620,-0.885,-0.485
2621,-0.885,-0.555
2622,-0.880,-0.580
2623,-0.875,-0.595
2624,-0.860,-0.540
2625,-0.845,-0.475
2626,-0.830,-0.485
2627,-0.815,-0.510
2628,-0.780,-0.540
2629,-0.755,-0.540
2630,-0.710,-0.490
2631,-0.720,-0.465
2632,-0.735,-0.440
2633,-0.730,-0.495
2634,-0.730,-0.545
2635,-0.695,-0.515
2636,-0.680,-0.460
2637,-0.690,-0.390
2638,-0.700,-0.375
2639,-0.690,-0.415
2640,-0.665,-0.480
2641,-0.670,-0.495
2642,-0.700,-0.470
2643,-0.725,-0.435
2644,-0.770,-0.440
2645,-0.770,-0.460
2646,-0.760,-0.520
2647,-0.755,-0.525
2648,-0.765,-0.470
2649,-0.750,-0.425
2650,-0.775,-0.445
2651,-0.800,-0.490
2652,-0.825,-0.555
2653,-0.845,-0.565
2654,-0.860,-0.535
2655,-0.880,-0.505
2656,-0.910,-0.500
2657,-0.910,-0.540
2658,-0.915,-0.600
2659,-0.905,-0.615
2660,-0.905,-0.550
2661,-0.910,-0.490
2662,-0.940,-0.455
2663,-0.940,-0.500
2664,-0.925,-0.575
2665,-0.915,-0.605
2666,-0.925,-0.580
2667,-0.925,-0.540
2668,-0.940,-0.535
2669,-0.940,-0.580
2670,-0.950,-0.610
2671,-0.945,-0.620
2672,-0.945,-0.570
2673,-0.980,-0.530
2674,-1.015,-0.530
2675,-1.040,-0.560
2676,-1.080,-0.610
2677,-1.095,-0.595
2678,-1.080,-0.535
2679,-1.020,-0.465
2680,-0.920,-0.425
2681,-0.765,-0.425
2682,-0.560,-0.405
2683,-0.350,-0.350
2684,-0.175,-0.245
2685,0.015,-0.135
2686,0.175,-0.085
2687,0.315,-0.105
2688,0.475,-0.140
2689,0.605,-0.195
2690,0.700,-0.225
2691,0.760,-0.270
2692,0.750,-0.335
2693,0.725,-0.470
2694,0.675,-0.600
2695,0.645,-0.620
2696,0.565,-0.560
2697,0.470,-0.425
2698,0.270,-0.300
2699,-0.005,-0.275
2700,-0.310,-0.370
2701,-0.555,-0.480
2702,-0.730,-0.550
2703,-0.850,-0.570
2704,-0.905,-0.565
2705,-0.865,-0.605
2706,-0.830,-0.630
2707,-0.780,-0.630
2708,-0.765,-0.585
2709,-0.770,-0.505
2710,-0.830,-0.465
2711,-0.905,-0.450
2712,-0.925,-0.520
2713,-0.950,-0.595
2714,-0.955,-0.605
2715,-0.975,-0.560
2716,-1.010,-0.525
2717,-1.020,-0.510
2718,-1.030,-0.540
2719,-1.015,-0.595
2720,-1.005,-0.590
2721,-1.000,-0.530
2722,-0.985,-0.470
2723,-0.990,-0.435
2724,-0.990,-0.475
2725,-0.980,-0.545
2726,-0.970,-0.575
2727,-0.980,-0.530
2728,-0.985,-0.465
2729,-0.990,-0.445
2730,-1.005,-0.495
2731,-0.985,-0.560
2732,-0.980,-0.575
2733,-0.965,-0.530
2734,-0.945,-0.445
2735,-0.970,-0.420
2736,-0.970,-0.440
2737,-0.960,-0.495
2738,-0.945,-0.525
2739,-0.965,-0.495
2740,-0.960,-0.455
2741,-0.985,-0.425
2742,-0.995,-0.480
2743,-0.975,-0.535
2744,-0.960,-0.500
2745,-0.940,-0.465
2746,-0.945,-0.395
2747,-0.935,-0.390
2748,-0.935,-0.425
2749,-0.925,-0.465
2750,-0.905,-0.445
2751,-0.940,-0.415
2752,-0.950,-0.380
2753,-0.960,-0.430
2754,-0.975,-0.460
2755,-0.950,-0.465
2756,-0.935,-0.430
2757,-0.930,-0.365
2758,-0.920,-0.340
2759,-0.920,-0.345
2760,-0.910,-0.400
2761,-0.880,-0.440
2762,-0.870,-0.405
2763,-0.865,-0.365
2764,-0.905,-0.340
2765,-0.915,-0.355
2766,-0.925,-0.430
2767,-0.920,-0.465
2768,-0.890,-0.445
2769,-0.885,-0.395
2770,-0.875,-0.345
2771,-0.885,-0.345
2772,-0.870,-0.395
2773,-0.855,-0.445
2774,-0.845,-0.420
2775,-0.865,-0.390
2776,-0.890,-0.375
2777,-0.890,-0.410
2778,-0.880,-0.440
2779,-0.865,-0.495
2780,-0.860,-0.470
2781,-0.855,-0.395
2782,-0.850,-0.360
2783,-0.840,-0.390
2784,-0.830,-0.455
2785,-0.830,-0.515
2786,-0.815,-0.505
2787,-0.820,-0.480
2788,-0.840,-0.435
2789,-0.860,-0.450
2790,-0.865,-0.520
2791,-0.865,-0.570
2792,-0.840,-0.570
2793,-0.825,-0.520
2794,-0.825,-0.455
2795,-0.830,-0.445
2796,-0.840,-0.500
2797,-0.850,-0.560
2798,-0.840,-0.560
2799,-0.850,-0.540
2800,-0.865,-0.500
2801,-0.880,-0.500
2802,-0.885,-0.550
2803,-0.880,-0.610
2804,-0.865,-0.595
2805,-0.875,-0.545
2806,-0.880,-0.495
2807,-0.890,-0.485
2808,-0.870,-0.555
2809,-0.870,-0.590
2810,-0.855,-0.600
2811,-0.865,-0.545
2812,-0.885,-0.505
2813,-0.900,-0.530
2814,-0.910,-0.580
2815,-0.900,-0.630
2816,-0.880,-0.605
2817,-0.905,-0.540
2818,-0.905,-0.495
2819,-0.915,-0.530
2820,-0.900,-0.570
2821,-0.890,-0.600
2822,-0.910,-0.575
2823,-0.925,-0.550
2824,-0.940,-0.550
2825,-0.955,-0.595
2826,-0.950,-0.640
2827,-0.960,-0.635
2828,-0.940,-0.575
2829,-0.960,-0.520
2830,-0.965,-0.510
2831,-0.985,-0.550
2832,-0.950,-0.610
2833,-0.950,-0.600
2834,-0.955,-0.590
2835,-0.975,-0.535
2836,-0.985,-0.535
2837,-1.000,-0.580
2838,-1.000,-0.640
2839,-0.985,-0.675
2840,-0.985,-0.620
2841,-0.970,-0.550
2842,-0.985,-0.515
2843,-0.990,-0.550
2844,-0.975,-0.600
2845,-0.970,-0.620
2846,-0.960,-0.600
2847,-0.965,-0.555
2848,-0.980,-0.545
2849,-1.000,-0.585
2850,-1.010,-0.630
2851,-0.980,-0.665
2852,-0.975,-0.625
2853,-0.965,-0.565
2854,-0.955,-0.510
2855,-0.965,-0.525
2856,-0.950,-0.580
2857,-0.925,-0.635
2858,-0.920,-0.625
2859,-0.925,-0.565
2860,-0.940,-0.530
2861,-0.955,-0.550
2862,-0.940,-0.615
2863,-0.915,-0.630
2864,-0.895,-0.610
2865,-0.880,-0.550
2866,-0.875,-0.510
2867,-0.865,-0.530
2868,-0.885,-0.585
2869,-0.855,-0.605
2870,-0.840,-0.580
2871,-0.825,-0.540
2872,-0.830,-0.520
2873,-0.825,-0.555
2874,-0.800,-0.605
2875,-0.765,-0.615
2876,-0.740,-0.580
2877,-0.720,-0.500
2878,-0.700,-0.450
2879,-0.700,-0.455
2880,-0.695,-0.505
2881,-0.680,-0.525
2882,-0.675,-0.505
2883,-0.710,-0.460
2884,-0.740,-0.470
2885,-0.770,-0.520
2886,-0.780,-0.555
2887,-0.750,-0.560
2888,-0.745,-0.505
2889,-0.755,-0.480
2890,-0.770,-0.490
2891,-0.750,-0.530
2892,-0.745,-0.530
2893,-0.770,-0.515
2894,-0.810,-0.495
2895,-0.850,-0.515
2896,-0.875,-0.600
2897,-0.880,-0.650
2898,-0.890,-0.635
2899,-0.910,-0.585
2900,-0.925,-0.535
2901,-0.930,-0.535
2902,-0.905,-0.575
2903,-0.905,-0.605
2904,-0.890,-0.595
2905,-0.910,-0.540
2906,-0.920,-0.515
2907,-0.950,-0.535
2908,-0.960,-0.595
2909,-0.950,-0.640
2910,-0.940,-0.635
2911,-0.940,-0.600
2912,-0.960,-0.540
2913,-0.970,-0.550
2914,-0.960,-0.585
2915,-0.945,-0.620
2916,-0.960,-0.610
2917,-0.995,-0.565
2918,-1.045,-0.550
2919,-1.100,-0.555
2920,-1.155,-0.615
2921,-1.145,-0.645
2922,-1.100,-0.610
2923,-1.025,-0.515
2924,-0.895,-0.410
2925,-0.745,-0.320
2926,-0.565,-0.310
2927,-0.340,-0.315
2928,-0.140,-0.275
2929,0.055,-0.175
2930,0.220,-0.095
2931,0.360,-0.085
2932,0.485,-0.125
2933,0.615,-0.235
2934,0.715,-0.335
2935,0.760,-0.390
2936,0.750,-0.435
2937,0.710,-0.510
2938,0.665,-0.565
2939,0.605,-0.585
2940,0.535,-0.535
2941,0.390,-0.405
2942,0.150,-0.290
2943,-0.150,-0.280
2944,-0.450,-0.395
2945,-0.680,-0.555
2946,-0.830,-0.670
2947,-0.875,-0.695
2948,-0.870,-0.635
2949,-0.830,-0.545
2950,-0.795,-0.530
2951,-0.765,-0.550
2952,-0.750,-0.585
2953,-0.785,-0.605
2954,-0.835,-0.570
2955,-0.905,-0.535
2956,-0.960,-0.540
2957,-0.990,-0.595
2958,-1.010,-0.630
2959,-1.010,-0.640
2960,-1.010,-0.585
2961,-1.005,-0.520
2962,-1.020,-0.520
2963,-1.010,-0.560
2964,-0.995,-0.590
2965,-0.985,-0.555
2966,-0.980,-0.515
2967,-0.990,-0.485
2968,-0.990,-0.515
2969,-1.005,-0.590
2970,-1.000,-0.635
2971,-1.005,-0.615
2972,-1.005,-0.550
2973,-1.000,-0.485
2974,-1.010,-0.500
2975,-1.010,-0.540
2976,-0.990,-0.580
2977,-0.970,-0.570
2978,-0.965,-0.515
2979,-0.980,-0.480
2980,-1.000,-0.480
2981,-1.000,-0.530
2982,-0.985,-0.585
2983,-0.985,-0.595
2984,-0.965,-0.535
2985,-0.960,-0.465
2986,-0.975,-0.430
2987,-0.970,-0.470
2988,-0.965,-0.505
2989,-0.955,-0.545
2990,-0.945,-0.520
2991,-0.955,-0.450
2992,-0.975,-0.410
2993,-0.975,-0.450
2994,-0.970,-0.495
2995,-0.960,-0.535
2996,-0.950,-0.515
2997,-0.940,-0.430
2998,-0.950,-0.375
2999,-0.950,-0.360
3000,-0.935,-0.410
3001,-0.905,-0.480
3002,-0.905,-0.465
3003,-0.905,-0.410
3004,-0.920,-0.380
3005,-0.940,-0.375
3006,-0.925,-0.420
3007,-0.925,-0.475
3008,-0.900,-0.450
3009,-0.905,-0.385
3010,-0.910,-0.335
3011,-0.900,-0.340
3012,-0.895,-0.400
3013,-0.880,-0.430
3014,-0.885,-0.440
3015,-0.890,-0.400
3016,-0.910,-0.385
3017,-0.920,-0.410
3018,-0.895,-0.470
3019,-0.900,-0.500
3020,-0.870,-0.480
3021,-0.865,-0.400
3022,-0.870,-0.370
3023,-0.885,-0.380
3024,-0.855,-0.430
3025,-0.840,-0.495
3026,-0.840,-0.510
3027,-0.845,-0.450
3028,-0.855,-0.425
3029,-0.890,-0.450
3030,-0.885,-0.510
3031,-0.875,-0.545
3032,-0.875,-0.540
3033,-0.860,-0.490
3034,-0.860,-0.435
3035,-0.860,-0.435
3036,-0.845,-0.495
3037,-0.850,-0.560
3038,-0.855,-0.535
3039,-0.850,-0.520
3040,-0.880,-0.485
3041,-0.890,-0.500
3042,-0.905,-0.565
3043,-0.890,-0.595
3044,-0.890,-0.575
3045,-0.875,-0.535
3046,-0.885,-0.500
3047,-0.895,-0.500
3048,-0.890,-0.560
3049,-0.865,-0.590
3050,-0.890,-0.580
3051,-0.900,-0.545
3052,-0.900,-0.495
3053,-0.915,-0.520
3054,-0.910,-0.585
3055,-0.910,-0.635
3056,-0.905,-0.635
3057,-0.880,-0.555
3058,-0.895,-0.505
3059,-0.925,-0.475
3060,-0.930,-0.515
3061,-0.925,-0.575
3062,-0.915,-0.620
3063,-0.900,-0.605
3064,-0.915,-0.555
3065,-0.935,-0.555
3066,-0.930,-0.580
3067,-0.940,-0.630
3068,-0.930,-0.625
3069,-0.930,-0.580
3070,-0.930,-0.525
3071,-0.945,-0.485
3072,-0.950,-0.535
3073,-0.955,-0.605
3074,-0.950,-0.640
3075,-0.955,-0.615
3076,-0.975,-0.570
3077,-0.995,-0.555
3078,-1.005,-0.600
3079,-1.000,-0.640
3080,-0.990,-0.660
3081,-0.980,-0.625
3082,-0.990,-0.550
3083,-0.990,-0.530
3084,-0.975,-0.575
3085,-0.985,-0.625
3086,-0.995,-0.640
3087,-0.975,-0.610
3088,-1.000,-0.570
3089,-1.015,-0.565
3090,-1.015,-0.630
3091,-1.000,-0.665
3092,-0.970,-0.645
3093,-0.955,-0.600
3094,-0.955,-0.565
3095,-0.965,-0.545
3096,-0.960,-0.595
3097,-0.950,-0.660
3098,-0.935,-0.660
3099,-0.930,-0.630
3100,-0.965,-0.585
3101,-0.975,-0.570
3102,-0.975,-0.620
3103,-0.970,-0.670
3104,-0.965,-0.670
3105,-0.955,-0.595
3106,-0.950,-0.560
3107,-0.945,-0.555
3108,-0.930,-0.580
3109,-0.920,-0.620
3110,-0.895,-0.620
3111,-0.905,-0.590
3112,-0.915,-0.565
3113,-0.915,-0.595
3114,-0.910,-0.635
3115,-0.905,-0.655
3116,-0.895,-0.615
3117,-0.850,-0.540
3118,-0.830,-0.520
3119,-0.805,-0.545
3120,-0.775,-0.575
3121,-0.740,-0.620
3122,-0.720,-0.580
3123,-0.730,-0.515
3124,-0.740,-0.460
3125,-0.730,-0.490
3126,-0.745,-0.545
3127,-0.725,-0.575
3128,-0.710,-0.570
3129,-0.690,-0.505
3130,-0.695,-0.460
3131,-0.725,-0.430
3132,-0.720,-0.475
3133,-0.720,-0.545
3134,-0.725,-0.575
3135,-0.735,-0.535
3136,-0.760,-0.475
3137,-0.790,-0.480
3138,-0.800,-0.515
3139,-0.790,-0.580
3140,-0.790,-0.630
3141,-0.780,-0.585
3142,-0.795,-0.515
3143,-0.835,-0.470
3144,-0.845,-0.495
3145,-0.865,-0.570
3146,-0.875,-0.660
3147,-0.870,-0.670
3148,-0.885,-0.625
3149,-0.915,-0.560
3150,-0.940,-0.550
3151,-0.950,-0.585
3152,-0.940,-0.645
3153,-0.920,-0.630
3154,-0.915,-0.585
3155,-0.930,-0.545
3156,-0.945,-0.525
3157,-0.940,-0.585
3158,-0.945,-0.635
3159,-0.940,-0.640
3160,-0.940,-0.620
3161,-0.960,-0.580
3162,-0.960,-0.565
3163,-1.000,-0.625
3164,-0.995,-0.665
3165,-1.000,-0.660
3166,-1.005,-0.590
3167,-1.035,-0.540
3168,-1.090,-0.515
3169,-1.145,-0.560
3170,-1.175,-0.635
3171,-1.150,-0.660
3172,-1.070,-0.610
3173,-0.965,-0.500
3174,-0.835,-0.395
3175,-0.665,-0.345
3176,-0.460,-0.330
3177,-0.220,-0.310
3178,-0.025,-0.235
3179,0.165,-0.125
3180,0.310,-0.090
3181,0.465,-0.120
3182,0.590,-0.220
3183,0.690,-0.330
3184,0.730,-0.420
3185,0.725,-0.495
3186,0.685,-0.545
3187,0.605,-0.590
3188,0.530,-0.595
3189,0.425,-0.500
3190,0.240,-0.385
3191,-0.040,-0.285
3192,-0.335,-0.330
3193,-0.590,-0.470
3194,-0.785,-0.605
3195,-0.870,-0.680
3196,-0.895,-0.680
3197,-0.875,-0.635
3198,-0.835,-0.595
3199,-0.820,-0.610
3200,-0.825,-0.640
3201,-0.850,-0.630
3202,-0.885,-0.565
3203,-0.930,-0.540
3204,-0.970,-0.535
3205,-0.990,-0.590
3206,-1.010,-0.645
3207,-1.005,-0.645
3208,-1.010,-0.615
3209,-1.020,-0.565
3210,-1.050,-0.565
3211,-1.040,-0.615
3212,-1.030,-0.655
3213,-1.020,-0.645
3214,-0.995,-0.575
3215,-1.000,-0.500
3216,-1.000,-0.485
3217,-1.010,-0.530
3218,-1.010,-0.600
3219,-1.000,-0.640
3220,-0.995,-0.615
3221,-1.025,-0.575
3222,-1.040,-0.535
3223,-1.035,-0.550
3224,-1.030,-0.600
3225,-1.000,-0.620
3226,-0.985,-0.585
3227,-0.990,-0.515
3228,-0.995,-0.480
3229,-1.010,-0.490
3230,-0.995,-0.560
3231,-0.990,-0.590
3232,-0.985,-0.575
3233,-1.000,-0.530
3234,-1.010,-0.500
3235,-1.015,-0.515
3236,-1.020,-0.540
3237,-1.005,-0.560
3238,-0.980,-0.525
3239,-0.965,-0.445
3240,-0.965,-0.420
3241,-0.970,-0.440
3242,-0.975,-0.490
3243,-0.965,-0.535
3244,-0.975,-0.530
3245,-0.980,-0.480
3246,-0.980,-0.430
3247,-0.995,-0.450
3248,-0.980,-0.485
3249,-0.970,-0.505
3250,-0.940,-0.475
3251,-0.940,-0.410
3252,-0.935,-0.375
3253,-0.965,-0.395
3254,-0.960,-0.460
3255,-0.940,-0.490
3256,-0.935,-0.455
3257,-0.930,-0.410
3258,-0.950,-0.405
3259,-0.950,-0.430
3260,-0.955,-0.490
3261,-0.930,-0.485
3262,-0.900,-0.450
3263,-0.905,-0.370
3264,-0.905,-0.360
3265,-0.910,-0.400
3266,-0.915,-0.470
3267,-0.910,-0.510
3268,-0.900,-0.490
3269,-0.890,-0.460
3270,-0.905,-0.430
3271,-0.925,-0.450
3272,-0.920,-0.525
3273,-0.890,-0.550
3274,-0.890,-0.515
3275,-0.870,-0.450
3276,-0.865,-0.410
3277,-0.875,-0.420
3278,-0.890,-0.485
3279,-0.885,-0.555
3280,-0.880,-0.600
3281,-0.885,-0.570
3282,-0.885,-0.535
3283,-0.895,-0.515
3284,-0.910,-0.535
3285,-0.905,-0.600
3286,-0.890,-0.610
3287,-0.880,-0.600
3288,-0.885,-0.540
3289,-0.895,-0.495
3290,-0.910,-0.530
3291,-0.910,-0.610
3292,-0.910,-0.665
3293,-0.925,-0.670
3294,-0.920,-0.625
3295,-0.925,-0.575
3296,-0.960,-0.560
3297,-0.940,-0.600
3298,-0.920,-0.665
3299,-0.900,-0.660
3300,-0.890,-0.610
3301,-0.925,-0.555
3302,-0.925,-0.540
3303,-0.935,-0.595
3304,-0.940,-0.660
3305,-0.930,-0.695
3306,-0.925,-0.665
3307,-0.940,-0.600
3308,-0.955,-0.575
3309,-0.965,-0.590
3310,-0.945,-0.630
3311,-0.915,-0.660
3312,-0.920,-0.615
3313,-0.915,-0.560
3314,-0.940,-0.535
3315,-0.950,-0.570
3316,-0.960,-0.640
3317,-0.960,-0.695
3318,-0.950,-0.695
3319,-0.975,-0.635
3320,-1.000,-0.565
3321,-1.020,-0.550
3322,-0.995,-0.620
3323,-0.975,-0.645
3324,-0.955,-0.665
3325,-0.955,-0.625
3326,-0.985,-0.560
3327,-1.005,-0.580
3328,-1.010,-0.645
3329,-1.020,-0.690
3330,-1.010,-0.710
3331,-1.025,-0.640
3332,-1.025,-0.605
3333,-1.025,-0.595
3334,-1.035,-0.635
3335,-1.005,-0.665
3336,-0.990,-0.645
3337,-1.000,-0.605
3338,-1.010,-0.585
3339,-1.015,-0.590
3340,-1.030,-0.650
3341,-1.020,-0.710
3342,-1.005,-0.695
3343,-1.000,-0.625
3344,-1.010,-0.585
3345,-1.025,-0.570
3346,-1.015,-0.610
3347,-0.990,-0.655
3348,-0.965,-0.680
3349,-0.965,-0.640
3350,-0.965,-0.565
3351,-1.005,-0.545
3352,-1.000,-0.585
3353,-1.000,-0.650
3354,-0.990,-0.700
3355,-1.005,-0.690
3356,-0.980,-0.625
3357,-0.990,-0.585
3358,-0.990,-0.600
3359,-0.960,-0.620
3360,-0.930,-0.645
3361,-0.915,-0.610
3362,-0.920,-0.580
3363,-0.950,-0.555
3364,-0.935,-0.605
3365,-0.930,-0.675
3366,-0.925,-0.715
3367,-0.910,-0.700
3368,-0.900,-0.620
3369,-0.890,-0.545
3370,-0.865,-0.545
3371,-0.825,-0.585
3372,-0.790,-0.630
3373,-0.775,-0.620
3374,-0.755,-0.580
3375,-0.755,-0.535
3376,-0.750,-0.530
3377,-0.755,-0.585
3378,-0.750,-0.610
3379,-0.750,-0.575
3380,-0.765,-0.525
3381,-0.770,-0.490
3382,-0.760,-0.510
3383,-0.750,-0.565
3384,-0.755,-0.600
3385,-0.760,-0.580
3386,-0.780,-0.525
3387,-0.795,-0.485
3388,-0.810,-0.510
3389,-0.835,-0.590
3390,-0.825,-0.640
3391,-0.820,-0.650
3392,-0.825,-0.595
3393,-0.850,-0.545
3394,-0.880,-0.545
3395,-0.890,-0.610
3396,-0.900,-0.645
3397,-0.895,-0.665
3398,-0.930,-0.605
3399,-0.945,-0.585
3400,-0.980,-0.600
3401,-0.980,-0.645
3402,-0.990,-0.690
3403,-0.980,-0.670
3404,-0.980,-0.615
3405,-1.005,-0.575
3406,-0.995,-0.600
3407,-0.985,-0.660
3408,-0.960,-0.655
3409,-0.930,-0.645
3410,-0.955,-0.580
3411,-0.975,-0.580
3412,-0.995,-0.610
3413,-0.995,-0.695
3414,-1.000,-0.725
3415,-1.010,-0.700
3416,-1.065,-0.630
3417,-1.100,-0.575
3418,-1.150,-0.590
3419,-1.175,-0.635
3420,-1.185,-0.690
3421,-1.165,-0.685
3422,-1.110,-0.615
3423,-1.040,-0.520
3424,-0.925,-0.435
3425,-0.780,-0.435
3426,-0.575,-0.440
3427,-0.380,-0.405
3428,-0.185,-0.320
3429,-0.005,-0.220
3430,0.145,-0.140
3431,0.310,-0.165
3432,0.480,-0.215
3433,0.595,-0.305
3434,0.685,-0.360
3435,0.695,-0.410
3436,0.695,-0.495
3437,0.655,-0.590
3438,0.585,-0.660
3439,0.530,-0.670
3440,0.445,-0.595
3441,0.290,-0.450
3442,0.060,-0.345
3443,-0.240,-0.350
3444,-0.515,-0.460
3445,-0.725,-0.585
3446,-0.855,-0.680
3447,-0.915,-0.695
3448,-0.915,-0.675
3449,-0.905,-0.675
3450,-0.865,-0.705
3451,-0.840,-0.700
3452,-0.845,-0.665
3453,-0.890,-0.610
3454,-0.940,-0.575
3455,-0.995,-0.595
3456,-1.020,-0.650
3457,-1.035,-0.685
3458,-1.035,-0.670
3459,-1.045,-0.595
3460,-1.065,-0.585
3461,-1.085,-0.630
3462,-1.085,-0.675
3463,-1.070,-0.730
3464,-1.065,-0.695
3465,-1.050,-0.630
3466,-1.055,-0.565
3467,-1.060,-0.575
3468,-1.030,-0.620
3469,-1.025,-0.635
3470,-1.025,-0.605
3471,-1.035,-0.570
3472,-1.060,-0.575
3473,-1.070,-0.640
3474,-1.055,-0.670
3475,-1.055,-0.670
3476,-1.055,-0.610
3477,-1.055,-0.560
3478,-1.050,-0.560
3479,-1.040,-0.595
3480,-1.020,-0.625
3481,-1.020,-0.600
3482,-1.010,-0.550
3483,-1.020,-0.545
3484,-1.030,-0.565
3485,-1.025,-0.620
3486,-1.025,-0.635
3487,-1.025,-0.600
3488,-1.030,-0.540
3489,-1.025,-0.495
3490,-1.010,-0.510
3491,-1.000,-0.530
3492,-0.975,-0.560
3493,-0.970,-0.535
3494,-0.985,-0.480
3495,-1.005,-0.455
3496,-1.025,-0.500
3497,-1.005,-0.550
3498,-1.010,-0.575
3499,-0.995,-0.555
3500,-0.995,-0.485
3501,-1.000,-0.435
3502,-0.985,-0.460
3503,-0.965,-0.505
3504,-0.955,-0.520
3505,-0.950,-0.510
3506,-0.950,-0.435
3507,-0.960,-0.410
3508,-0.970,-0.450
3509,-0.980,-0.515
3510,-0.970,-0.555
3511,-0.970,-0.545
3512,-0.975,-0.500
3513,-0.970,-0.425
3514,-0.960,-0.425
3515,-0.950,-0.450
3516,-0.935,-0.510
3517,-0.905,-0.535
3518,-0.905,-0.510
3519,-0.910,-0.460
3520,-0.935,-0.465
3521,-0.935,-0.515
3522,-0.960,-0.565
3523,-0.940,-0.580
3524,-0.930,-0.550
3525,-0.925,-0.485
3526,-0.920,-0.465
3527,-0.930,-0.505
3528,-0.890,-0.565
3529,-0.880,-0.600
3530,-0.880,-0.580
3531,-0.895,-0.520
3532,-0.910,-0.530
3533,-0.915,-0.570
3534,-0.940,-0.635
3535,-0.935,-0.685
3536,-0.920,-0.665
3537,-0.905,-0.595
3538,-0.920,-0.545
3539,-0.930,-0.535
3540,-0.925,-0.570
3541,-0.915,-0.660
3542,-0.920,-0.660
3543,-0.920,-0.620
3544,-0.935,-0.575
3545,-0.950,-0.595
3546,-0.985,-0.650
3547,-0.965,-0.705
3548,-0.940,-0.695
3549,-0.940,-0.640
3550,-0.930,-0.585
3551,-0.940,-0.570
3552,-0.925,-0.620
3553,-0.925,-0.670
3554,-0.920,-0.675
3555,-0.925,-0.645
3556,-0.940,-0.610
3557,-0.955,-0.630
3558,-0.965,-0.675
3559,-0.945,-0.695
3560,-0.950,-0.695
3561,-0.955,-0.615
3562,-0.965,-0.585
3563,-0.975,-0.595
3564,-0.975,-0.630
3565,-0.955,-0.690
3566,-0.945,-0.695
3567,-0.945,-0.635
3568,-0.985,-0.610
3569,-1.005,-0.605
3570,-1.020,-0.645
3571,-1.010,-0.730
3572,-1.015,-0.725
3573,-1.000,-0.685
3574,-1.010,-0.615
3575,-1.025,-0.590
3576,-1.025,-0.650
3577,-1.020,-0.705
3578,-1.020,-0.730
3579,-1.025,-0.700
3580,-1.045,-0.670
3581,-1.060,-0.665
3582,-1.075,-0.700
3583,-1.055,-0.765
3584,-1.035,-0.765
3585,-1.035,-0.700
3586,-1.040,-0.620
3587,-1.045,-0.610
3588,-1.040,-0.635
3589,-1.025,-0.695
3590,-1.020,-0.730
3591,-1.020,-0.705
3592,-1.030,-0.650
3593,-1.045,-0.630
3594,-1.060,-0.655
3595,-1.045,-0.715
3596,-1.035,-0.725
3597,-1.005,-0.685
3598,-1.000,-0.625
3599,-1.010,-0.590
3600,-0.995,-0.625
3601,-0.985,-0.685
3602,-0.985,-0.705
3603,-0.990,-0.670
3604,-1.000,-0.635
3605,-1.020,-0.625
3606,-1.035,-0.665
3607,-1.030,-0.720
3608,-1.010,-0.750
3609,-0.965,-0.715
3610,-0.960,-0.625
3611,-0.970,-0.590
3612,-0.950,-0.600
3613,-0.930,-0.670
3614,-0.910,-0.725
3615,-0.900,-0.685
3616,-0.915,-0.650
3617,-0.915,-0.610
3618,-0.915,-0.630
3619,-0.890,-0.695
3620,-0.855,-0.705
3621,-0.820,-0.670
3622,-0.800,-0.600
3623,-0.780,-0.580
3624,-0.780,-0.590
3625,-0.775,-0.630
3626,-0.735,-0.625
3627,-0.730,-0.575
3628,-0.750,-0.525
3629,-0.765,-0.540
3630,-0.785,-0.605
3631,-0.790,-0.645
3632,-0.790,-0.655
3633,-0.790,-0.585
3634,-0.810,-0.535
3635,-0.815,-0.510
3636,-0.820,-0.555
3637,-0.810,-0.625
3638,-0.795,-0.650
3639,-0.800,-0.625
3640,-0.825,-0.575
3641,-0.865,-0.565
3642,-0.890,-0.610
3643,-0.905,-0.690
3644,-0.920,-0.735
3645,-0.925,-0.710
3646,-0.945,-0.645
3647,-0.955,-0.610
3648,-0.955,-0.605
3649,-0.975,-0.650
3650,-0.960,-0.705
3651,-0.975,-0.680
3652,-1.000,-0.650
3653,-1.010,-0.635
3654,-1.025,-0.625
3655,-1.035,-0.695
3656,-1.030,-0.745
3657,-1.010,-0.720
3658,-0.990,-0.670
3659,-0.990,-0.595
3660,-1.005,-0.570
3661,-1.005,-0.630
3662,-0.990,-0.710
3663,-0.990,-0.740
3664,-1.005,-0.690
3665,-1.040,-0.640
3666,-1.075,-0.630
3667,-1.125,-0.660
3668,-1.155,-0.715
3669,-1.170,-0.740
3670,-1.185,-0.700
3671,-1.185,-0.610
3672,-1.150,-0.560
3673,-1.085,-0.535
3674,-0.945,-0.535
3675,-0.775,-0.525
3676,-0.590,-0.475
3677,-0.395,-0.365
3678,-0.230,-0.270
3679,-0.075,-0.245
3680,0.085,-0.245
3681,0.220,-0.295
3682,0.405,-0.295
3683,0.535,-0.270
3684,0.615,-0.260
3685,0.665,-0.340
3686,0.675,-0.480
3687,0.670,-0.645
3688,0.610,-0.720
3689,0.540,-0.705
3690,0.465,-0.575
3691,0.315,-0.465
3692,0.105,-0.420
3693,-0.175,-0.465
3694,-0.445,-0.525
3695,-0.680,-0.575
3696,-0.850,-0.610
3697,-0.940,-0.665
3698,-0.940,-0.725
3699,-0.890,-0.755
3700,-0.860,-0.740
3701,-0.830,-0.655
3702,-0.850,-0.615
3703,-0.900,-0.610
3704,-0.950,-0.645
3705,-0.995,-0.715
3706,-1.005,-0.740
3707,-1.015,-0.685
3708,-1.035,-0.615
3709,-1.065,-0.585
3710,-1.065,-0.625
3711,-1.070,-0.675
3712,-1.075,-0.745
3713,-1.065,-0.735
3714,-1.075,-0.685
3715,-1.080,-0.620
3716,-1.085,-0.595
3717,-1.100,-0.650
3718,-1.050,-0.695
3719,-1.045,-0.705
3720,-1.020,-0.655
3721,-1.025,-0.590
3722,-1.035,-0.555
3723,-1.055,-0.600
3724,-1.075,-0.675
3725,-1.080,-0.720
3726,-1.055,-0.700
3727,-1.060,-0.640
3728,-1.070,-0.585
3729,-1.075,-0.590
3730,-1.060,-0.620
3731,-1.040,-0.665
3732,-1.020,-0.640
3733,-1.035,-0.580
3734,-1.030,-0.540
3735,-1.050,-0.545
3736,-1.060,-0.580
3737,-1.065,-0.645
3738,-1.040,-0.665
3739,-1.030,-0.605
3740,-1.040,-0.545
3741,-1.045,-0.490
3742,-1.030,-0.510
3743,-1.045,-0.560
3744,-1.010,-0.580
3745,-0.990,-0.575
3746,-0.985,-0.505
3747,-1.005,-0.460
3748,-1.025,-0.470
3749,-1.035,-0.535
3750,-1.035,-0.600
3751,-1.030,-0.600
3752,-1.015,-0.535
3753,-1.010,-0.460
3754,-1.015,-0.425
3755,-1.010,-0.435
3756,-0.975,-0.490
3757,-0.975,-0.540
3758,-0.955,-0.535
3759,-0.970,-0.470
3760,-0.980,-0.430
3761,-0.985,-0.435
3762,-0.980,-0.485
3763,-0.960,-0.530
3764,-0.965,-0.510
3765,-0.955,-0.475
3766,-0.980,-0.435
3767,-0.965,-0.455
3768,-0.945,-0.500
3769,-0.930,-0.510
3770,-0.920,-0.485
3771,-0.940,-0.450
3772,-0.955,-0.465
3773,-0.955,-0.520
3774,-0.950,-0.570
3775,-0.940,-0.565
3776,-0.930,-0.535
3777,-0.925,-0.465
3778,-0.925,-0.475
3779,-0.920,-0.530
3780,-0.895,-0.575
3781,-0.885,-0.555
3782,-0.910,-0.530
3783,-0.910,-0.510
3784,-0.920,-0.535
3785,-0.950,-0.605
3786,-0.925,-0.655
3787,-0.930,-0.645
3788,-0.910,-0.600
3789,-0.930,-0.535
3790,-0.945,-0.545
3791,-0.930,-0.605
3792,-0.910,-0.635
3793,-0.900,-0.645
3794,-0.905,-0.590
3795,-0.935,-0.565
3796,-0.935,-0.575
3797,-0.955,-0.635
3798,-0.975,-0.700
3799,-0.955,-0.695
3800,-0.955,-0.650
3801,-0.960,-0.585
3802,-0.965,-0.570
3803,-0.965,-0.620
3804,-0.940,-0.660
3805,-0.915,-0.670
3806,-0.925,-0.620
3807,-0.940,-0.590
3808,-0.960,-0.580
3809,-0.975,-0.635
3810,-0.980,-0.695
3811,-0.960,-0.705
3812,-0.955,-0.695
3813,-0.970,-0.610
3814,-0.975,-0.575
3815,-0.980,-0.600
3816,-0.960,-0.655
3817,-0.945,-0.685
3818,-0.950,-0.665
3819,-0.950,-0.605
3820,-0.980,-0.590
3821,-0.990,-0.625
3822,-1.000,-0.700
3823,-1.010,-0.740
3824,-1.015,-0.695
3825,-1.015,-0.635
3826,-1.025,-0.605
3827,-1.030,-0.630
3828,-1.025,-0.685
3829,-1.015,-0.700
3830,-1.015,-0.685
3831,-1.010,-0.630
3832,-1.040,-0.620
3833,-1.060,-0.650
3834,-1.060,-0.700
3835,-1.055,-0.740
3836,-1.035,-0.700
3837,-1.055,-0.655
3838,-1.055,-0.615
3839,-1.060,-0.635
3840,-1.045,-0.670
3841,-1.025,-0.690
3842,-1.025,-0.660
3843,-1.035,-0.635
3844,-1.055,-0.640
3845,-1.055,-0.700
3846,-1.045,-0.720
3847,-1.045,-0.690
3848,-1.045,-0.665
3849,-1.035,-0.655
3850,-1.040,-0.675
3851,-1.005,-0.705
3852,-1.000,-0.675
3853,-1.000,-0.635
3854,-0.995,-0.605
3855,-1.020,-0.620
3856,-1.010,-0.705
3857,-1.000,-0.740
3858,-0.985,-0.745
3859,-0.985,-0.690
3860,-0.990,-0.630
3861,-0.995,-0.625
3862,-1.000,-0.660
3863,-0.970,-0.700
3864,-0.940,-0.695
3865,-0.925,-0.660
3866,-0.945,-0.610
3867,-0.945,-0.600
3868,-0.940,-0.635
3869,-0.935,-0.700
3870,-0.895,-0.720
3871,-0.870,-0.670
3872,-0.865,-0.615
3873,-0.845,-0.615
3874,-0.830,-0.615
3875,-0.790,-0.650
3876,-0.770,-0.635
3877,-0.750,-0.570
3878,-0.750,-0.510
3879,-0.770,-0.510
3880,-0.780,-0.565
3881,-0.785,-0.640
3882,-0.780,-0.655
3883,-0.785,-0.625
3884,-0.800,-0.560
3885,-0.815,-0.535
3886,-0.825,-0.565
3887,-0.815,-0.605
3888,-0.800,-0.620
3889,-0.790,-0.605
3890,-0.810,-0.550
3891,-0.825,-0.545
3892,-0.880,-0.615
3893,-0.890,-0.670
3894,-0.895,-0.725
3895,-0.910,-0.705
3896,-0.950,-0.665
3897,-0.965,-0.625
3898,-0.975,-0.670
3899,-0.965,-0.715
3900,-0.965,-0.735
3901,-0.955,-0.705
3902,-0.965,-0.640
3903,-0.985,-0.585
3904,-1.005,-0.585
3905,-1.010,-0.650
3906,-1.020,-0.715
3907,-1.015,-0.725
3908,-1.020,-0.685
3909,-1.015,-0.620
3910,-1.030,-0.600
3911,-1.010,-0.625
3912,-0.995,-0.680
3913,-0.990,-0.680
3914,-0.990,-0.645
3915,-1.015,-0.625
3916,-1.050,-0.645
3917,-1.095,-0.715
3918,-1.125,-0.735
3919,-1.160,-0.720
3920,-1.210,-0.640
3921,-1.210,-0.625
3922,-1.150,-0.620
3923,-1.045,-0.585
3924,-0.865,-0.525
3925,-0.665,-0.415
3926,-0.465,-0.305
3927,-0.280,-0.255
3928,-0.080,-0.280
3929,0.100,-0.300
3930,0.270,-0.300
3931,0.410,-0.255
3932,0.520,-0.220
3933,0.600,-0.275
3934,0.655,-0.405
3935,0.695,-0.565
3936,0.690,-0.640
3937,0.640,-0.640
3938,0.570,-0.565
3939,0.455,-0.495
3940,0.285,-0.480
3941,0.040,-0.480
3942,-0.245,-0.505
3943,-0.530,-0.530
3944,-0.770,-0.585
3945,-0.925,-0.660
3946,-0.965,-0.730
3947,-0.955,-0.770
3948,-0.890,-0.730
3949,-0.845,-0.645
3950,-0.845,-0.590
3951,-0.860,-0.575
3952,-0.940,-0.635
3953,-0.975,-0.705
3954,-1.015,-0.695
3955,-1.045,-0.665
3956,-1.100,-0.635
3957,-1.105,-0.625
3958,-1.105,-0.670
3959,-1.085,-0.700
3960,-1.055,-0.665
3961,-1.065,-0.600
3962,-1.070,-0.575
3963,-1.095,-0.605
3964,-1.090,-0.645
3965,-1.080,-0.685
3966,-1.075,-0.650
3967,-1.080,-0.610
3968,-1.090,-0.570
3969,-1.100,-0.600
3970,-1.080,-0.630
3971,-1.055,-0.650
3972,-1.060,-0.610
3973,-1.055,-0.550
3974,-1.075,-0.520
3975,-1.085,-0.540
3976,-1.085,-0.625
3977,-1.075,-0.645
3978,-1.065,-0.640
3979,-1.080,-0.580
3980,-1.090,-0.560
3981,-1.095,-0.560
3982,-1.075,-0.605
3983,-1.060,-0.615
3984,-1.035,-0.575
3985,-1.030,-0.500
3986,-1.045,-0.485
3987,-1.045,-0.525
3988,-1.045,-0.575
3989,-1.035,-0.590
3990,-1.030,-0.535
3991,-1.020,-0.500
3992,-1.070,-0.505
3993,-1.050,-0.560
3994,-1.035,-0.550
3995,-1.015,-0.525
3996,-1.010,-0.460
3997,-1.020,-0.425
3998,-1.030,-0.440
3999,-1.015,-0.490
4000,-1.020,-0.550
4001,-1.000,-0.545
4002,-0.995,-0.490
4003,-1.005,-0.435
4004,-1.030,-0.430
4005,-1.020,-0.465
4006,-1.005,-0.515
4007,-0.960,-0.530
4008,-0.970,-0.470
4009,-0.955,-0.410
4010,-0.970,-0.410
4011,-0.980,-0.455
4012,-0.985,-0.525
4013,-0.985,-0.555
4014,-0.970,-0.550
4015,-0.965,-0.490
4016,-0.995,-0.435
4017,-0.990,-0.450
4018,-0.975,-0.500
4019,-0.950,-0.535
4020,-0.945,-0.540
4021,-0.940,-0.490
4022,-0.950,-0.450
4023,-0.955,-0.455
4024,-0.965,-0.515
4025,-0.950,-0.590
4026,-0.945,-0.615
4027,-0.940,-0.570
4028,-0.935,-0.530
4029,-0.965,-0.515
4030,-0.965,-0.545
4031,-0.940,-0.590
4032,-0.915,-0.610
4033,-0.910,-0.575
4034,-0.920,-0.535
4035,-0.965,-0.520
4036,-0.960,-0.580
4037,-0.970,-0.650
4038,-0.955,-0.680
4039,-0.945,-0.645
4040,-0.960,-0.590
4041,-0.965,-0.560
4042,-0.985,-0.605
4043,-0.975,-0.655
4044,-0.950,-0.655
4045,-0.930,-0.625
4046,-0.940,-0.570
4047,-0.955,-0.560
4048,-0.965,-0.595
4049,-0.970,-0.670
4050,-0.955,-0.720
4051,-0.945,-0.660
4052,-0.960,-0.615
4053,-0.970,-0.585
4054,-0.980,-0.605
4055,-0.975,-0.665
4056,-0.950,-0.675
4057,-0.940,-0.630
4058,-0.955,-0.600
4059,-0.980,-0.590
4060,-0.990,-0.630
4061,-0.995,-0.690
4062,-1.000,-0.695
4063,-0.990,-0.665
4064,-0.995,-0.635
4065,-1.015,-0.625
4066,-1.020,-0.650
4067,-1.005,-0.670
4068,-0.995,-0.645
4069,-0.990,-0.600
4070,-1.025,-0.610
4071,-1.035,-0.645
4072,-1.015,-0.710
4073,-1.030,-0.700
4074,-1.045,-0.680
4075,-1.055,-0.630
4076,-1.075,-0.630
4077,-1.085,-0.680
4078,-1.080,-0.710
4079,-1.060,-0.690
4080,-1.040,-0.640
4081,-1.040,-0.605
4082,-1.060,-0.605
4083,-1.055,-0.640
4084,-1.075,-0.715
4085,-1.060,-0.745
4086,-1.060,-0.700
4087,-1.055,-0.675
4088,-1.065,-0.650
4089,-1.080,-0.660
4090,-1.060,-0.710
4091,-1.045,-0.710
4092,-1.005,-0.660
4093,-1.000,-0.605
4094,-1.025,-0.600
4095,-1.020,-0.650
4096,-1.030,-0.710
4097,-1.040,-0.725
4098,-1.040,-0.700
4099,-1.030,-0.620
4100,-1.045,-0.610
4101,-1.035,-0.640
4102,-1.015,-0.685
4103,-0.990,-0.710
4104,-0.975,-0.670
4105,-0.975,-0.610
4106,-0.980,-0.575
4107,-0.995,-0.600
4108,-1.000,-0.660
4109,-1.000,-0.700
4110,-0.980,-0.700
4111,-0.980,-0.655
4112,-0.985,-0.610
4113,-0.990,-0.625
4114,-0.960,-0.660
4115,-0.945,-0.670
4116,-0.925,-0.650
4117,-0.890,-0.590
4118,-0.885,-0.585
4119,-0.880,-0.605
4120,-0.845,-0.660
4121,-0.830,-0.705
4122,-0.805,-0.695
4123,-0.815,-0.625
4124,-0.810,-0.550
4125,-0.805,-0.550
4126,-0.790,-0.575
4127,-0.765,-0.595
4128,-0.755,-0.575
4129,-0.750,-0.530
4130,-0.765,-0.505
4131,-0.800,-0.540
4132,-0.815,-0.620
4133,-0.830,-0.655
4134,-0.840,-0.620
4135,-0.845,-0.575
4136,-0.870,-0.565
4137,-0.870,-0.600
4138,-0.850,-0.630
4139,-0.845,-0.635
4140,-0.850,-0.600
4141,-0.875,-0.560
4142,-0.915,-0.585
4143,-0.940,-0.645
4144,-0.955,-0.720
4145,-0.965,-0.715
4146,-0.980,-0.675
4147,-0.990,-0.630
4148,-1.015,-0.605
4149,-1.015,-0.660
4150,-1.015,-0.700
4151,-1.010,-0.710
4152,-1.005,-0.650
4153,-1.015,-0.600
4154,-1.035,-0.580
4155,-1.045,-0.620
4156,-1.050,-0.685
4157,-1.045,-0.730
4158,-1.035,-0.705
4159,-1.045,-0.665
4160,-1.065,-0.625
4161,-1.075,-0.670
4162,-1.065,-0.705
4163,-1.060,-0.700
4164,-1.080,-0.660
4165,-1.115,-0.620
4166,-1.170,-0.620
4167,-1.230,-0.655
4168,-1.240,-0.715
4169,-1.220,-0.725
4170,-1.160,-0.630
4171,-1.035,-0.520
4172,-0.905,-0.425
4173,-0.715,-0.400
4174,-0.505,-0.405
4175,-0.315,-0.370
4176,-0.135,-0.285
4177,0.055,-0.200
4178,0.190,-0.145
4179,0.340,-0.185
4180,0.475,-0.300
4181,0.585,-0.405
4182,0.640,-0.480
4183,0.660,-0.550
4184,0.615,-0.615
4185,0.555,-0.660
4186,0.500,-0.670
4187,0.395,-0.585
4188,0.215,-0.450
4189,-0.035,-0.365
4190,-0.340,-0.380
4191,-0.630,-0.500
4192,-0.825,-0.670
4193,-0.925,-0.755
4194,-0.955,-0.760
4195,-0.950,-0.715
4196,-0.930,-0.660
4197,-0.905,-0.660
4198,-0.870,-0.685
4199,-0.880,-0.665
4200,-0.930,-0.630
4201,-0.985,-0.590
4202,-1.055,-0.610
4203,-1.085,-0.660
4204,-1.100,-0.715
4205,-1.100,-0.735
4206,-1.110,-0.690
4207,-1.115,-0.655
4208,-1.135,-0.650
4209,-1.120,-0.675
4210,-1.090,-0.670
4211,-1.085,-0.625
4212,-1.080,-0.570
4213,-1.065,-0.540
4214,-1.080,-0.565
4215,-1.080,-0.660
4216,-1.075,-0.665
4217,-1.070,-0.655
4218,-1.100,-0.590
4219,-1.105,-0.590
4220,-1.115,-0.615
4221,-1.105,-0.660
4222,-1.085,-0.670
4223,-1.055,-0.610
4224,-1.065,-0.545
4225,-1.065,-0.500
4226,-1.075,-0.535
4227,-1.085,-0.595
4228,-1.070,-0.635
4229,-1.055,-0.610
4230,-1.055,-0.565
4231,-1.070,-0.520
4232,-1.085,-0.535
4233,-1.070,-0.585
4234,-1.065,-0.605
4235,-1.055,-0.575
4236,-1.050,-0.520
4237,-1.050,-0.465
4238,-1.060,-0.460
4239,-1.070,-0.525
4240,-1.050,-0.585
4241,-1.045,-0.565
4242,-1.060,-0.515
4243,-1.060,-0.455
4244,-1.070,-0.455
4245,-1.075,-0.490
4246,-1.035,-0.520
4247,-1.015,-0.525
4248,-0.985,-0.440
4249,-0.995,-0.405
4250,-1.020,-0.400
4251,-1.020,-0.440
4252,-1.025,-0.505
4253,-1.015,-0.520
4254,-0.990,-0.480
4255,-0.990,-0.430
4256,-1.000,-0.410
4257,-1.005,-0.435
4258,-0.990,-0.480
4259,-0.970,-0.510
4260,-0.955,-0.465
4261,-0.950,-0.425
4262,-0.960,-0.395
4263,-0.960,-0.455
4264,-0.975,-0.540
4265,-0.975,-0.565
4266,-0.965,-0.550
4267,-0.970,-0.480
4268,-0.980,-0.460
4269,-0.980,-0.465
4270,-0.955,-0.530
4271,-0.940,-0.560
4272,-0.910,-0.525
4273,-0.900,-0.480
4274,-0.910,-0.430
4275,-0.930,-0.470
4276,-0.935,-0.550
4277,-0.930,-0.595
4278,-0.935,-0.610
4279,-0.935,-0.560
4280,-0.955,-0.520
4281,-0.960,-0.535
4282,-0.940,-0.590
4283,-0.925,-0.615
4284,-0.920,-0.575
4285,-0.905,-0.525
4286,-0.930,-0.515
4287,-0.935,-0.545
4288,-0.945,-0.620
4289,-0.935,-0.645
4290,-0.935,-0.635
4291,-0.935,-0.595
4292,-0.955,-0.565
4293,-0.960,-0.600
4294,-0.950,-0.660
4295,-0.940,-0.685
4296,-0.925,-0.640
4297,-0.930,-0.580
4298,-0.930,-0.550
4299,-0.965,-0.550
4300,-0.950,-0.620
4301,-0.960,-0.695
4302,-0.940,-0.710
4303,-0.945,-0.645
4304,-0.970,-0.595
4305,-0.955,-0.585
4306,-0.970,-0.645
4307,-0.955,-0.670
4308,-0.945,-0.650
4309,-0.950,-0.600
4310,-0.955,-0.575
4311,-0.970,-0.590
4312,-0.975,-0.645
4313,-0.980,-0.685
4314,-0.970,-0.660
4315,-0.995,-0.625
4316,-1.020,-0.590
4317,-1.025,-0.580
4318,-1.010,-0.630
4319,-0.990,-0.660
4320,-0.985,-0.630
4321,-0.965,-0.575
4322,-0.995,-0.550
4323,-1.025,-0.560
4324,-1.030,-0.635
4325,-1.035,-0.685
4326,-1.035,-0.670
4327,-1.035,-0.625
4328,-1.070,-0.600
4329,-1.075,-0.605
4330,-1.070,-0.645
4331,-1.045,-0.660
4332,-1.030,-0.615
4333,-1.030,-0.585
4334,-1.035,-0.575
4335,-1.035,-0.615
4336,-1.025,-0.670
4337,-1.040,-0.680
4338,-1.030,-0.645
4339,-1.035,-0.600
4340,-1.045,-0.580
4341,-1.035,-0.620
4342,-1.025,-0.665
4343,-1.005,-0.665
4344,-0.985,-0.605
4345,-0.990,-0.560
4346,-0.995,-0.555
4347,-1.005,-0.605
4348,-1.000,-0.655
4349,-0.980,-0.645
4350,-0.985,-0.605
4351,-1.010,-0.590
4352,-1.005,-0.600
4353,-0.975,-0.635
4354,-0.945,-0.625
4355,-0.925,-0.605
4356,-0.925,-0.550
4357,-0.920,-0.565
4358,-0.910,-0.595
4359,-0.915,-0.620
4360,-0.905,-0.630
4361,-0.895,-0.570
4362,-0.885,-0.575
4363,-0.880,-0.610
4364,-0.860,-0.640
4365,-0.840,-0.645
4366,-0.800,-0.575
4367,-0.775,-0.530
4368,-0.760,-0.495
4369,-0.765,-0.510
4370,-0.735,-0.560
4371,-0.740,-0.555
4372,-0.725,-0.535
4373,-0.725,-0.495
4374,-0.775,-0.495
4375,-0.780,-0.545
4376,-0.785,-0.595
4377,-0.775,-0.580
4378,-0.780,-0.540
4379,-0.785,-0.495
4380,-0.795,-0.465
4381,-0.780,-0.505
4382,-0.785,-0.550
4383,-0.780,-0.560
4384,-0.795,-0.545
4385,-0.830,-0.520
4386,-0.875,-0.525
4387,-0.905,-0.590
4388,-0.945,-0.660
4389,-0.925,-0.690
4390,-0.935,-0.635
4391,-0.940,-0.560
4392,-0.960,-0.530
4393,-0.965,-0.545
4394,-0.950,-0.600
4395,-0.940,-0.615
4396,-0.945,-0.600
4397,-0.960,-0.570
4398,-0.995,-0.545
4399,-1.005,-0.580
4400,-1.015,-0.630
4401,-0.995,-0.640
4402,-1.000,-0.590
4403,-0.980,-0.570
4404,-0.985,-0.540
4405,-0.990,-0.565
4406,-0.980,-0.610
4407,-0.985,-0.625
4408,-1.010,-0.585
4409,-1.050,-0.555
4410,-1.105,-0.565
4411,-1.165,-0.635
4412,-1.210,-0.690
4413,-1.200,-0.675
4414,-1.160,-0.590
4415,-1.085,-0.485
4416,-0.995,-0.395
4417,-0.835,-0.365
4418,-0.625,-0.340
4419,-0.415,-0.305
4420,-0.215,-0.220
4421,-0.045,-0.135
4422,0.135,-0.115
4423,0.310,-0.160
4424,0.470,-0.230
4425,0.605,-0.255
4426,0.710,-0.305
4427,0.755,-0.390
4428,0.760,-0.510
4429,0.735,-0.590
4430,0.685,-0.600
4431,0.575,-0.490
4432,0.390,-0.370
4433,0.115,-0.305
4434,-0.205,-0.365
4435,-0.495,-0.480
4436,-0.715,-0.575
4437,-0.860,-0.585
4438,-0.915,-0.580
4439,-0.890,-0.580
4440,-0.835,-0.585
4441,-0.775,-0.605
4442,-0.775,-0.585
4443,-0.785,-0.540
4444,-0.840,-0.505
4445,-0.930,-0.515
4446,-0.985,-0.575
4447,-1.030,-0.625
4448,-1.040,-0.620
4449,-1.045,-0.570
4450,-1.050,-0.500
4451,-1.050,-0.490
4452,-1.055,-0.515
4453,-1.040,-0.565
4454,-1.025,-0.575
4455,-1.025,-0.530
4456,-1.035,-0.500
4457,-1.040,-0.490
4458,-1.030,-0.530
4459,-1.035,-0.575
4460,-1.025,-0.585
4461,-1.010,-0.545
4462,-1.030,-0.470
4463,-1.020,-0.445
4464,-1.025,-0.465
4465,-1.030,-0.510
4466,-1.000,-0.550
4467,-1.000,-0.510
4468,-1.005,-0.460
4469,-1.020,-0.450
4470,-1.055,-0.495
4471,-1.040,-0.550
4472,-1.030,-0.565
4473,-1.005,-0.530
4474,-1.005,-0.460
4475,-1.000,-0.410
4476,-1.020,-0.410
4477,-1.000,-0.465
4478,-0.985,-0.505
4479,-0.965,-0.475
4480,-0.990,-0.435
4481,-1.015,-0.400
4482,-1.020,-0.435
4483,-1.010,-0.475
4484,-0.995,-0.500
4485,-0.980,-0.500
4486,-0.980,-0.410
4487,-0.990,-0.360
4488,-0.995,-0.340
4489,-0.990,-0.390
4490,-0.965,-0.435
4491,-0.945,-0.450
4492,-0.945,-0.415
4493,-0.960,-0.365
4494,-0.985,-0.370
4495,-0.975,-0.400
4496,-0.975,-0.450
4497,-0.945,-0.445
4498,-0.955,-0.410
4499,-0.945,-0.340
4500,-0.945,-0.325
4501,-0.925,-0.365
4502,-0.920,-0.390
4503,-0.900,-0.400
4504,-0.910,-0.370
4505,-0.935,-0.345
4506,-0.940,-0.380
4507,-0.955,-0.425
4508,-0.930,-0.455
4509,-0.915,-0.460
4510,-0.905,-0.390
4511,-0.905,-0.360
4512,-0.925,-0.345
4513,-0.910,-0.410
4514,-0.895,-0.465
4515,-0.865,-0.480
4516,-0.855,-0.440
4517,-0.880,-0.410
4518,-0.900,-0.385
4519,-0.920,-0.465
4520,-0.925,-0.520
4521,-0.895,-0.550
4522,-0.885,-0.495
4523,-0.865,-0.435
4524,-0.870,-0.400
4525,-0.875,-0.435
4526,-0.860,-0.500
4527,-0.870,-0.525
4528,-0.855,-0.530
4529,-0.870,-0.490
4530,-0.885,-0.470
4531,-0.890,-0.505
4532,-0.910,-0.575
4533,-0.905,-0.580
4534,-0.895,-0.540
4535,-0.890,-0.480
4536,-0.890,-0.455
4537,-0.895,-0.465
4538,-0.885,-0.545
4539,-0.885,-0.585
4540,-0.870,-0.575
4541,-0.875,-0.530
4542,-0.890,-0.495
4543,-0.920,-0.510
4544,-0.915,-0.570
4545,-0.895,-0.575
4546,-0.895,-0.570
4547,-0.880,-0.500
4548,-0.880,-0.490
4549,-0.890,-0.490
4550,-0.880,-0.555
4551,-0.880,-0.585
4552,-0.900,-0.560
4553,-0.910,-0.530
4554,-0.935,-0.520
4555,-0.950,-0.550
4556,-0.945,-0.615
4557,-0.940,-0.620
4558,-0.940,-0.585
4559,-0.935,-0.535
4560,-0.940,-0.475
4561,-0.955,-0.475
4562,-0.960,-0.540
4563,-0.965,-0.615
4564,-0.945,-0.630
4565,-0.940,-0.595
4566,-0.965,-0.535
4567,-1.005,-0.535
4568,-1.010,-0.575
4569,-1.000,-0.625
4570,-0.995,-0.640
4571,-0.995,-0.600
4572,-0.975,-0.530
4573,-0.995,-0.520
4574,-1.010,-0.535
4575,-1.020,-0.590
4576,-1.015,-0.630
4577,-1.010,-0.600
4578,-1.035,-0.575
4579,-1.025,-0.550
4580,-1.025,-0.585
4581,-1.025,-0.655
4582,-1.005,-0.650
4583,-0.990,-0.620
4584,-0.980,-0.530
4585,-0.985,-0.510
4586,-0.985,-0.565
4587,-0.985,-0.630
4588,-0.985,-0.680
4589,-0.970,-0.665
4590,-0.970,-0.605
4591,-0.980,-0.540
4592,-1.005,-0.555
4593,-1.000,-0.610
4594,-0.995,-0.650
4595,-0.960,-0.655
4596,-0.960,-0.615
4597,-0.940,-0.535
4598,-0.945,-0.515
4599,-0.965,-0.565
4600,-0.955,-0.610
4601,-0.950,-0.640
4602,-0.950,-0.605
4603,-0.945,-0.565
4604,-0.945,-0.540
4605,-0.950,-0.555
4606,-0.950,-0.625
4607,-0.910,-0.650
4608,-0.880,-0.615
4609,-0.895,-0.545
4610,-0.890,-0.490
4611,-0.890,-0.505
4612,-0.880,-0.585
4613,-0.860,-0.645
4614,-0.835,-0.655
4615,-0.810,-0.605
4616,-0.800,-0.545
4617,-0.805,-0.495
4618,-0.795,-0.510
4619,-0.765,-0.565
4620,-0.745,-0.575
4621,-0.715,-0.540
4622,-0.705,-0.480
4623,-0.710,-0.450
4624,-0.735,-0.470
4625,-0.735,-0.530
4626,-0.745,-0.595
4627,-0.750,-0.575
4628,-0.755,-0.520
4629,-0.770,-0.480
4630,-0.790,-0.470
4631,-0.780,-0.510
4632,-0.780,-0.570
4633,-0.785,-0.580
4634,-0.785,-0.545
4635,-0.790,-0.460
4636,-0.800,-0.455
4637,-0.840,-0.490
4638,-0.850,-0.600
4639,-0.875,-0.665
4640,-0.895,-0.680
4641,-0.900,-0.625
4642,-0.930,-0.585
4643,-0.935,-0.575
4644,-0.950,-0.605
4645,-0.935,-0.620
4646,-0.930,-0.630
4647,-0.940,-0.565
4648,-0.950,-0.545
4649,-0.975,-0.570
4650,-0.985,-0.625
4651,-0.975,-0.675
4652,-0.985,-0.650
4653,-0.990,-0.600
4654,-1.000,-0.570
4655,-0.995,-0.585
4656,-1.005,-0.625
4657,-0.975,-0.650
4658,-0.970,-0.630
4659,-0.975,-0.570
4660,-1.005,-0.550
4661,-1.025,-0.580
4662,-1.065,-0.645
4663,-1.105,-0.710
4664,-1.115,-0.735
4665,-1.145,-0.685
4666,-1.185,-0.605
4667,-1.210,-0.560
4668,-1.170,-0.565
4669,-1.075,-0.575
4670,-0.950,-0.545
4671,-0.790,-0.470
4672,-0.590,-0.375
4673,-0.400,-0.285
4674,-0.240,-0.265
4675,-0.060,-0.260
4676,0.125,-0.270
4677,0.300,-0.225
4678,0.465,-0.175
4679,0.585,-0.195
4680,0.670,-0.310
4681,0.715,-0.475
4682,0.730,-0.605
4683,0.710,-0.655
4684,0.640,-0.610
4685,0.530,-0.530
4686,0.430,-0.480
4687,0.265,-0.455
4688,0.045,-0.475
4689,-0.230,-0.470
4690,-0.490,-0.475
4691,-0.715,-0.500
4692,-0.855,-0.560
4693,-0.915,-0.660
4694,-0.900,-0.720
4695,-0.855,-0.720
4696,-0.820,-0.660
4697,-0.805,-0.575
4698,-0.845,-0.565
4699,-0.900,-0.600
4700,-0.950,-0.670
4701,-0.985,-0.690
4702,-0.985,-0.675
4703,-1.005,-0.585
4704,-1.035,-0.540
4705,-1.050,-0.555
4706,-1.035,-0.625
4707,-1.025,-0.680
4708,-1.020,-0.675
4709,-1.030,-0.635
4710,-1.055,-0.585
4711,-1.070,-0.555
4712,-1.065,-0.605
4713,-1.055,-0.650
4714,-1.035,-0.675
4715,-1.015,-0.615
4716,-1.015,-0.560
4717,-1.015,-0.510
4718,-1.040,-0.550
4719,-1.025,-0.600
4720,-1.030,-0.640
4721,-1.015,-0.620
4722,-1.015,-0.575
4723,-1.045,-0.550
4724,-1.045,-0.595
4725,-1.050,-0.635
4726,-1.045,-0.630
4727,-1.035,-0.570
4728,-1.020,-0.515
4729,-1.025,-0.485
4730,-1.025,-0.540
4731,-0.995,-0.595
4732,-1.005,-0.605
4733,-1.010,-0.550
4734,-1.030,-0.505
4735,-1.040,-0.505
4736,-1.055,-0.540
4737,-1.050,-0.585
4738,-1.020,-0.600
4739,-1.005,-0.555
4740,-1.005,-0.475
4741,-1.020,-0.420
4742,-1.005,-0.465
4743,-1.010,-0.515
4744,-0.990,-0.575
4745,-0.990,-0.550
4746,-0.985,-0.510
4747,-0.995,-0.450
4748,-1.015,-0.475
4749,-1.000,-0.515
4750,-0.990,-0.535
4751,-0.980,-0.500
4752,-0.965,-0.440
4753,-0.985,-0.405
4754,-0.980,-0.430
4755,-0.980,-0.475
4756,-0.940,-0.535
4757,-0.935,-0.520
4758,-0.965,-0.470
4759,-0.965,-0.430
4760,-0.975,-0.430
4761,-0.960,-0.505
4762,-0.940,-0.550
4763,-0.930,-0.555
4764,-0.905,-0.515
4765,-0.915,-0.425
4766,-0.915,-0.400
4767,-0.945,-0.440
4768,-0.930,-0.530
4769,-0.920,-0.575
4770,-0.905,-0.565
4771,-0.920,-0.515
4772,-0.920,-0.485
4773,-0.925,-0.485
4774,-0.920,-0.550
4775,-0.900,-0.595
4776,-0.885,-0.590
4777,-0.870,-0.520
4778,-0.875,-0.475
4779,-0.910,-0.500
4780,-0.920,-0.565
4781,-0.905,-0.640
4782,-0.890,-0.655
4783,-0.895,-0.620
4784,-0.910,-0.565
4785,-0.925,-0.565
4786,-0.930,-0.595
4787,-0.910,-0.640
4788,-0.900,-0.635
4789,-0.885,-0.595
4790,-0.895,-0.550
4791,-0.915,-0.545
4792,-0.930,-0.600
4793,-0.925,-0.680
4794,-0.925,-0.680
4795,-0.930,-0.635
4796,-0.950,-0.600
4797,-0.945,-0.620
4798,-0.950,-0.650
4799,-0.925,-0.660
4800,-0.920,-0.625
4801,-0.930,-0.565
4802,-0.920,-0.575
4803,-0.925,-0.615
4804,-0.930,-0.675
4805,-0.935,-0.690
4806,-0.960,-0.630
4807,-0.970,-0.605
4808,-0.990,-0.615
4809,-0.985,-0.675
4810,-0.970,-0.700
4811,-0.955,-0.690
4812,-0.950,-0.620
4813,-0.955,-0.555
4814,-0.970,-0.565
4815,-1.005,-0.630
4816,-0.985,-0.695
4817,-0.985,-0.735
4818,-0.975,-0.680
4819,-1.000,-0.635
4820,-1.025,-0.620
4821,-1.035,-0.675
4822,-1.025,-0.710
4823,-1.020,-0.710
4824,-1.025,-0.665
4825,-1.035,-0.615
4826,-1.035,-0.595
4827,-1.035,-0.660
4828,-1.045,-0.700
4829,-1.035,-0.725
4830,-1.035,-0.690
4831,-1.055,-0.650
4832,-1.070,-0.650
4833,-1.075,-0.690
4834,-1.055,-0.750
4835,-1.055,-0.740
4836,-1.030,-0.700
4837,-1.030,-0.620
4838,-1.030,-0.610
4839,-1.055,-0.645
4840,-1.035,-0.715
4841,-1.035,-0.755
4842,-1.040,-0.760
4843,-1.040,-0.690
4844,-1.055,-0.675
4845,-1.065,-0.680
4846,-1.055,-0.720
4847,-1.025,-0.750
4848,-0.990,-0.705
4849,-1.005,-0.650
4850,-1.000,-0.625
4851,-1.010,-0.645
4852,-1.015,-0.690
4853,-1.010,-0.755
4854,-1.025,-0.760
4855,-1.015,-0.710
4856,-1.020,-0.650
4857,-1.030,-0.625
4858,-1.020,-0.635
4859,-0.995,-0.695
4860,-0.960,-0.740
4861,-0.940,-0.695
4862,-0.935,-0.640
4863,-0.955,-0.610
4864,-0.970,-0.615
4865,-0.965,-0.700
4866,-0.940,-0.735
4867,-0.930,-0.720
4868,-0.905,-0.675
4869,-0.900,-0.655
4870,-0.885,-0.680
4871,-0.835,-0.685
4872,-0.810,-0.680
4873,-0.780,-0.610
4874,-0.780,-0.580
4875,-0.780,-0.565
4876,-0.780,-0.630
4877,-0.770,-0.650
4878,-0.775,-0.625
4879,-0.775,-0.570
4880,-0.800,-0.575
4881,-0.815,-0.610
4882,-0.815,-0.650
4883,-0.795,-0.675
4884,-0.785,-0.625
4885,-0.805,-0.550
4886,-0.810,-0.515
4887,-0.845,-0.555
4888,-0.850,-0.615
4889,-0.835,-0.675
4890,-0.860,-0.680
4891,-0.895,-0.650
4892,-0.925,-0.640
4893,-0.950,-0.660
4894,-0.970,-0.730
4895,-0.945,-0.730
4896,-0.960,-0.700
4897,-0.980,-0.630
4898,-0.975,-0.610
4899,-1.005,-0.670
4900,-0.990,-0.710
4901,-1.005,-0.740
4902,-1.015,-0.680
4903,-1.020,-0.640
4904,-1.040,-0.635
4905,-1.040,-0.675
4906,-1.025,-0.735
4907,-1.010,-0.735
4908,-0.995,-0.700
4909,-1.015,-0.635
4910,-1.005,-0.595
4911,-1.020,-0.640
4912,-1.025,-0.705
4913,-1.030,-0.735
4914,-1.055,-0.705
4915,-1.095,-0.680
4916,-1.180,-0.655
4917,-1.225,-0.705
4918,-1.230,-0.730
4919,-1.215,-0.705
4920,-1.145,-0.610
4921,-1.040,-0.505
4922,-0.900,-0.445
4923,-0.710,-0.440
4924,-0.510,-0.450
4925,-0.325,-0.435
4926,-0.145,-0.360
4927,0.015,-0.250
4928,0.175,-0.215
4929,0.315,-0.245
4930,0.475,-0.320
4931,0.605,-0.385
4932,0.675,-0.450
4933,0.705,-0.500
4934,0.690,-0.585
4935,0.635,-0.660
4936,0.575,-0.685
4937,0.455,-0.595
4938,0.255,-0.500
4939,-0.025,-0.460
4940,-0.375,-0.510
4941,-0.660,-0.620
4942,-0.865,-0.685
4943,-0.970,-0.700
4944,-0.995,-0.675
4945,-0.960,-0.685
4946,-0.925,-0.710
4947,-0.885,-0.730
4948,-0.900,-0.690
4949,-0.955,-0.650
4950,-0.995,-0.650
4951,-1.055,-0.700
4952,-1.085,-0.765
4953,-1.095,-0.765
4954,-1.100,-0.695
4955,-1.115,-0.625
4956,-1.105,-0.600
4957,-1.100,-0.620
4958,-1.095,-0.680
4959,-1.085,-0.690
4960,-1.065,-0.665
4961,-1.075,-0.625
4962,-1.100,-0.605
4963,-1.100,-0.650
4964,-1.105,-0.690
4965,-1.090,-0.730
4966,-1.080,-0.680
4967,-1.070,-0.610
4968,-1.090,-0.580
4969,-1.085,-0.600
4970,-1.070,-0.655
4971,-1.065,-0.675
4972,-1.070,-0.635
4973,-1.085,-0.580
4974,-1.095,-0.585
4975,-1.100,-0.615
4976,-1.095,-0.670
4977,-1.075,-0.685
4978,-1.050,-0.660
4979,-1.075,-0.585
4980,-1.085,-0.535
4981,-1.070,-0.530
4982,-1.065,-0.585
4983,-1.045,-0.630
4984,-1.045,-0.640
4985,-1.035,-0.600
4986,-1.050,-0.545
4987,-1.070,-0.545
4988,-1.075,-0.605
4989,-1.085,-0.640
4990,-1.065,-0.640
4991,-1.040,-0.575
4992,-1.040,-0.485
4993,-1.055,-0.455
4994,-1.045,-0.500
4995,-1.045,-0.570
4996,-1.030,-0.620
4997,-1.025,-0.580
4998,-1.020,-0.525
4999,-1.050,-0.485
5000,-1.055,-0.490
5001,-1.050,-0.545
5002,-1.030,-0.600
5003,-1.000,-0.575
5004,-0.980,-0.530
5005,-0.980,-0.450
5006,-0.990,-0.420
5007,-0.990,-0.475
5008,-0.985,-0.545
5009,-0.975,-0.585
5010,-0.965,-0.565
5011,-0.975,-0.500
5012,-0.995,-0.490
5013,-1.015,-0.510
5014,-0.985,-0.570
5015,-0.965,-0.585
5016,-0.945,-0.530
5017,-0.945,-0.500
5018,-0.945,-0.510
5019,-0.940,-0.555
5020,-0.935,-0.590
5021,-0.930,-0.590
5022,-0.950,-0.565
5023,-0.960,-0.550
5024,-0.955,-0.590
5025,-0.970,-0.635
5026,-0.940,-0.670
5027,-0.930,-0.630
5028,-0.930,-0.560
5029,-0.940,-0.535
5030,-0.930,-0.565
5031,-0.945,-0.650
5032,-0.945,-0.685
5033,-0.940,-0.675
5034,-0.935,-0.635
5035,-0.965,-0.615
5036,-0.985,-0.635
5037,-0.985,-0.685
5038,-0.970,-0.725
5039,-0.950,-0.710
5040,-0.935,-0.655
5041,-0.940,-0.600
5042,-0.960,-0.605
5043,-0.960,-0.675
5044,-0.950,-0.715
5045,-0.955,-0.700
5046,-0.980,-0.665
5047,-1.000,-0.640
5048,-1.005,-0.660
5049,-0.990,-0.725
5050,-0.980,-0.750
5051,-0.965,-0.725
5052,-0.960,-0.670
5053,-0.960,-0.615
5054,-0.975,-0.640
5055,-0.960,-0.705
5056,-0.960,-0.760
5057,-0.955,-0.735
5058,-0.965,-0.700
5059,-0.985,-0.660
5060,-1.000,-0.665
5061,-1.010,-0.710
5062,-1.020,-0.750
5063,-1.005,-0.755
5064,-0.990,-0.705
5065,-1.000,-0.620
5066,-1.015,-0.640
5067,-1.015,-0.690
5068,-1.010,-0.750
5069,-1.005,-0.760
5070,-1.025,-0.715
5071,-1.055,-0.675
5072,-1.075,-0.680
5073,-1.085,-0.730
5074,-1.070,-0.770
5075,-1.040,-0.770
5076,-1.040,-0.720
5077,-1.035,-0.650
5078,-1.050,-0.635
5079,-1.060,-0.685
5080,-1.070,-0.740
5081,-1.065,-0.785
5082,-1.055,-0.745
5083,-1.060,-0.695
5084,-1.085,-0.695
5085,-1.085,-0.715
5086,-1.085,-0.740
5087,-1.055,-0.750
5088,-1.045,-0.690
5089,-1.040,-0.660
5090,-1.050,-0.655
5091,-1.050,-0.705
5092,-1.060,-0.730
5093,-1.055,-0.735
5094,-1.060,-0.695
5095,-1.055,-0.690
5096,-1.070,-0.720
5097,-1.060,-0.760
5098,-1.055,-0.780
5099,-1.015,-0.735
5100,-1.015,-0.690
5101,-1.025,-0.635
5102,-1.010,-0.660
5103,-1.025,-0.735
5104,-1.015,-0.775
5105,-0.990,-0.765
5106,-1.010,-0.710
5107,-1.015,-0.685
5108,-1.020,-0.700
5109,-1.010,-0.755
5110,-0.985,-0.785
5111,-0.960,-0.755
5112,-0.960,-0.700
5113,-0.955,-0.650
5114,-0.940,-0.670
5115,-0.920,-0.700
5116,-0.915,-0.735
5117,-0.905,-0.725
5118,-0.890,-0.700
5119,-0.875,-0.670
5120,-0.855,-0.705
5121,-0.820,-0.740
5122,-0.800,-0.730
5123,-0.770,-0.665
5124,-0.785,-0.600
5125,-0.790,-0.540
5126,-0.780,-0.590
5127,-0.785,-0.660
5128,-0.765,-0.695
5129,-0.765,-0.690
5130,-0.775,-0.635
5131,-0.805,-0.610
5132,-0.830,-0.615
5133,-0.850,-0.665
5134,-0.845,-0.700
5135,-0.830,-0.685
5136,-0.830,-0.630
5137,-0.845,-0.575
5138,-0.840,-0.580
5139,-0.850,-0.645
5140,-0.875,-0.730
5141,-0.895,-0.745
5142,-0.915,-0.730
5143,-0.950,-0.685
5144,-0.990,-0.665
5145,-1.010,-0.710
5146,-1.015,-0.775
5147,-0.990,-0.780
5148,-0.960,-0.745
5149,-0.970,-0.665
5150,-0.985,-0.630
5151,-1.010,-0.635
5152,-1.015,-0.700
5153,-1.020,-0.750
5154,-1.015,-0.755
5155,-1.030,-0.725
5156,-1.050,-0.685
5157,-1.055,-0.690
5158,-1.040,-0.720
5159,-1.020,-0.740
5160,-1.010,-0.715
5161,-1.010,-0.660
5162,-1.030,-0.650
5163,-1.030,-0.685
5164,-1.065,-0.740
5165,-1.100,-0.750
5166,-1.160,-0.730
5167,-1.220,-0.700
5168,-1.250,-0.690
5169,-1.230,-0.715
5170,-1.140,-0.705
5171,-0.980,-0.615
5172,-0.815,-0.490
5173,-0.620,-0.395
5174,-0.410,-0.360
5175,-0.230,-0.365
5176,-0.045,-0.380
5177,0.125,-0.360
5178,0.275,-0.295
5179,0.410,-0.280
5180,0.510,-0.325
5181,0.575,-0.440
5182,0.645,-0.570
5183,0.685,-0.675
5184,0.685,-0.680
5185,0.655,-0.665
5186,0.570,-0.615
5187,0.475,-0.580
5188,0.330,-0.570
5189,0.100,-0.550
5190,-0.205,-0.520
5191,-0.520,-0.560
5192,-0.770,-0.635
5193,-0.935,-0.745
5194,-0.990,-0.825
5195,-0.965,-0.835
5196,-0.910,-0.780
5197,-0.865,-0.685
5198,-0.855,-0.635
5199,-0.885,-0.675
5200,-0.915,-0.725
5201,-0.950,-0.775
5202,-1.000,-0.765
5203,-1.030,-0.735
5204,-1.080,-0.685
5205,-1.110,-0.695
5206,-1.120,-0.745
5207,-1.095,-0.765
5208,-1.065,-0.745
5209,-1.075,-0.695
5210,-1.075,-0.630
5211,-1.100,-0.640
5212,-1.100,-0.685
5213,-1.110,-0.755
5214,-1.105,-0.770
5215,-1.100,-0.735
5216,-1.095,-0.675
5217,-1.120,-0.625
5218,-1.095,-0.655
5219,-1.100,-0.680
5220,-1.060,-0.720
5221,-1.050,-0.705
5222,-1.040,-0.650
5223,-1.075,-0.615
5224,-1.080,-0.635
5225,-1.080,-0.675
5226,-1.075,-0.715
5227,-1.070,-0.705
5228,-1.090,-0.650
5229,-1.110,-0.630
5230,-1.105,-0.640
5231,-1.090,-0.675
5232,-1.060,-0.675
5233,-1.055,-0.615
5234,-1.040,-0.570
5235,-1.060,-0.555
5236,-1.055,-0.600
5237,-1.065,-0.655
5238,-1.065,-0.630
5239,-1.070,-0.600
5240,-1.075,-0.580
5241,-1.070,-0.605
5242,-1.070,-0.625
5243,-1.035,-0.615
5244,-1.030,-0.575
5245,-1.030,-0.520
5246,-1.025,-0.510
5247,-1.025,-0.555
5248,-1.010,-0.600
5249,-1.005,-0.610
5250,-0.995,-0.565
5251,-1.020,-0.515
5252,-1.020,-0.525
5253,-1.035,-0.565
5254,-1.020,-0.625
5255,-0.985,-0.615
5256,-0.970,-0.570
5257,-0.970,-0.520
5258,-0.980,-0.515
5259,-0.985,-0.535
5260,-0.970,-0.580
5261,-0.960,-0.615
5262,-0.970,-0.575
5263,-0.980,-0.565
5264,-0.975,-0.580
5265,-0.975,-0.605
5266,-0.965,-0.610
5267,-0.945,-0.575
5268,-0.950,-0.545
5269,-0.950,-0.545
5270,-0.950,-0.580
5271,-0.940,-0.640
5272,-0.925,-0.645
5273,-0.915,-0.610
5274,-0.935,-0.575
5275,-0.960,-0.590
5276,-0.970,-0.630
5277,-0.955,-0.705
5278,-0.950,-0.710
5279,-0.940,-0.665
5280,-0.930,-0.610
5281,-0.940,-0.590
5282,-0.935,-0.630
5283,-0.935,-0.695
5284,-0.930,-0.705
5285,-0.940,-0.695
5286,-0.955,-0.665
5287,-0.965,-0.660
5288,-0.970,-0.690
5289,-0.965,-0.755
5290,-0.960,-0.740
5291,-0.940,-0.695
5292,-0.950,-0.655
5293,-0.945,-0.640
5294,-0.960,-0.675
5295,-0.945,-0.725
5296,-0.935,-0.760
5297,-0.930,-0.715
5298,-0.955,-0.670
5299,-0.975,-0.670
5300,-0.980,-0.710
5301,-0.975,-0.765
5302,-0.965,-0.770
5303,-0.955,-0.715
5304,-0.965,-0.665
5305,-0.970,-0.680
5306,-0.960,-0.720
5307,-0.960,-0.730
5308,-0.970,-0.715
5309,-0.985,-0.690
5310,-1.000,-0.700
5311,-1.000,-0.740
5312,-0.995,-0.765
5313,-1.005,-0.760
5314,-1.015,-0.700
5315,-1.025,-0.685
5316,-1.030,-0.710
5317,-1.010,-0.750
5318,-1.010,-0.740
5319,-1.015,-0.710
5320,-1.025,-0.675
5321,-1.045,-0.705
5322,-1.060,-0.735
5323,-1.065,-0.790
5324,-1.060,-0.810
5325,-1.055,-0.755
5326,-1.065,-0.725
5327,-1.080,-0.705
5328,-1.075,-0.730
5329,-1.070,-0.760
5330,-1.050,-0.760
5331,-1.050,-0.715
5332,-1.055,-0.675
5333,-1.070,-0.715
5334,-1.075,-0.770
5335,-1.060,-0.800
5336,-1.050,-0.785
5337,-1.060,-0.745
5338,-1.065,-0.715
5339,-1.060,-0.720
5340,-1.035,-0.760
5341,-1.020,-0.760
5342,-1.005,-0.745
5343,-1.000,-0.695
5344,-1.005,-0.650
5345,-1.030,-0.710
5346,-1.040,-0.750
5347,-1.020,-0.805
5348,-1.020,-0.790
5349,-1.015,-0.725
5350,-1.015,-0.690
5351,-1.015,-0.710
5352,-1.000,-0.750
5353,-0.975,-0.760
5354,-0.945,-0.725
5355,-0.955,-0.685
5356,-0.970,-0.680
5357,-0.985,-0.720
5358,-0.955,-0.775
5359,-0.955,-0.790
5360,-0.945,-0.755
5361,-0.940,-0.710
5362,-0.950,-0.685
5363,-0.925,-0.720
5364,-0.900,-0.735
5365,-0.825,-0.750
5366,-0.805,-0.695
5367,-0.795,-0.640
5368,-0.785,-0.630
5369,-0.785,-0.670
5370,-0.780,-0.700
5371,-0.780,-0.680
5372,-0.765,-0.645
5373,-0.795,-0.610
5374,-0.805,-0.625
5375,-0.785,-0.690
5376,-0.770,-0.685
5377,-0.770,-0.655
5378,-0.790,-0.610
5379,-0.790,-0.620
5380,-0.820,-0.655
5381,-0.830,-0.695
5382,-0.840,-0.690
5383,-0.840,-0.655
5384,-0.875,-0.670
5385,-0.915,-0.715
5386,-0.920,-0.760
5387,-0.935,-0.750
5388,-0.950,-0.710
5389,-0.965,-0.680
5390,-0.970,-0.695
5391,-0.975,-0.740
5392,-0.990,-0.775
5393,-1.000,-0.750
5394,-1.000,-0.695
5395,-1.015,-0.685
5396,-1.025,-0.725
5397,-1.035,-0.780
5398,-1.035,-0.810
5399,-1.005,-0.770
5400,-1.010,-0.700
5401,-0.995,-0.685
5402,-0.990,-0.700
5403,-0.985,-0.735
5404,-0.990,-0.755
5405,-0.995,-0.745
5406,-1.015,-0.710
5407,-1.055,-0.710
5408,-1.110,-0.765
5409,-1.150,-0.790
5410,-1.200,-0.795
5411,-1.195,-0.750
5412,-1.180,-0.655
5413,-1.135,-0.625
5414,-1.005,-0.610
5415,-0.850,-0.595
5416,-0.650,-0.525
5417,-0.460,-0.440
5418,-0.265,-0.360
5419,-0.080,-0.345
5420,0.085,-0.370
5421,0.255,-0.395
5422,0.430,-0.385
5423,0.560,-0.370
5424,0.660,-0.415
5425,0.700,-0.510
5426,0.735,-0.670
5427,0.720,-0.750
5428,0.665,-0.740
5429,0.585,-0.645
5430,0.425,-0.555
5431,0.220,-0.525
5432,-0.075,-0.535
5433,-0.365,-0.595
5434,-0.625,-0.645
5435,-0.815,-0.675
5436,-0.925,-0.715
5437,-0.955,-0.735
5438,-0.905,-0.785
5439,-0.850,-0.800
5440,-0.810,-0.745
5441,-0.830,-0.690
5442,-0.870,-0.645
5443,-0.935,-0.690
5444,-0.985,-0.755
5445,-1.025,-0.790
5446,-1.050,-0.760
5447,-1.070,-0.700
5448,-1.090,-0.685
5449,-1.080,-0.680
5450,-1.055,-0.715
5451,-1.060,-0.720
5452,-1.070,-0.665
5453,-1.070,-0.665
5454,-1.095,-0.670
5455,-1.085,-0.720
5456,-1.065,-0.735
5457,-1.045,-0.720
5458,-1.060,-0.675
5459,-1.050,-0.650
5460,-1.060,-0.645
5461,-1.060,-0.695
5462,-1.045,-0.695
5463,-1.050,-0.675
5464,-1.045,-0.635
5465,-1.050,-0.625
5466,-1.065,-0.660
5467,-1.060,-0.710
5468,-1.050,-0.755
5469,-1.045,-0.695
5470,-1.055,-0.655
5471,-1.065,-0.590
5472,-1.060,-0.610
5473,-1.050,-0.630
5474,-1.040,-0.665
5475,-1.020,-0.670
5476,-1.020,-0.605
5477,-1.045,-0.585
5478,-1.060,-0.595
5479,-1.060,-0.655
5480,-1.040,-0.685
5481,-1.045,-0.660
5482,-1.035,-0.595
5483,-1.030,-0.565
5484,-1.040,-0.560
5485,-1.030,-0.610
5486,-1.010,-0.615
5487,-1.000,-0.600
5488,-0.985,-0.565
5489,-1.005,-0.520
5490,-1.030,-0.530
5491,-1.010,-0.565
5492,-1.015,-0.635
5493,-0.995,-0.625
5494,-0.985,-0.575
5495,-1.000,-0.520
5496,-0.985,-0.495
5497,-0.970,-0.540
5498,-0.960,-0.575
5499,-0.950,-0.570
5500,-0.945,-0.540
5501,-0.945,-0.495
5502,-0.965,-0.525
5503,-0.975,-0.610
5504,-0.965,-0.635
5505,-0.945,-0.610
5506,-0.955,-0.555
5507,-0.950,-0.520
5508,-0.955,-0.530
5509,-0.940,-0.565
5510,-0.925,-0.605
5511,-0.915,-0.605
5512,-0.905,-0.570
5513,-0.920,-0.530
5514,-0.945,-0.545
5515,-0.940,-0.595
5516,-0.935,-0.655
5517,-0.935,-0.660
5518,-0.910,-0.640
5519,-0.920,-0.590
5520,-0.930,-0.585
5521,-0.925,-0.620
5522,-0.885,-0.660
5523,-0.875,-0.675
5524,-0.880,-0.640
5525,-0.925,-0.630
5526,-0.925,-0.645
5527,-0.935,-0.700
5528,-0.920,-0.755
5529,-0.925,-0.735
5530,-0.935,-0.695
5531,-0.945,-0.635
5532,-0.950,-0.650
5533,-0.935,-0.705
5534,-0.915,-0.725
5535,-0.900,-0.695
5536,-0.900,-0.650
5537,-0.930,-0.645
5538,-0.955,-0.660
5539,-0.960,-0.735
5540,-0.935,-0.765
5541,-0.945,-0.750
5542,-0.950,-0.705
5543,-0.955,-0.650
5544,-0.960,-0.655
5545,-0.945,-0.675
5546,-0.925,-0.725
5547,-0.915,-0.720
5548,-0.915,-0.680
5549,-0.930,-0.645
5550,-0.955,-0.660
5551,-0.970,-0.700
5552,-0.970,-0.765
5553,-0.945,-0.780
5554,-0.960,-0.725
5555,-0.960,-0.645
5556,-0.985,-0.625
5557,-0.970,-0.665
5558,-0.945,-0.720
5559,-0.945,-0.745
5560,-0.930,-0.740
5561,-0.945,-0.680
5562,-0.985,-0.650
5563,-0.995,-0.660
5564,-1.000,-0.705
5565,-1.010,-0.770
5566,-0.995,-0.765
5567,-1.000,-0.720
5568,-1.000,-0.660
5569,-1.015,-0.645
5570,-1.020,-0.670
5571,-1.015,-0.735
5572,-1.015,-0.755
5573,-1.010,-0.760
5574,-1.020,-0.700
5575,-1.035,-0.675
5576,-1.055,-0.690
5577,-1.050,-0.760
5578,-1.040,-0.785
5579,-1.015,-0.750
5580,-1.000,-0.685
5581,-1.005,-0.640
5582,-1.010,-0.645
5583,-1.005,-0.695
5584,-1.005,-0.755
5585,-1.000,-0.760
5586,-1.005,-0.740
5587,-1.005,-0.690
5588,-1.010,-0.660
5589,-1.010,-0.695
5590,-1.010,-0.750
5591,-0.990,-0.755
5592,-0.975,-0.730
5593,-0.970,-0.655
5594,-0.980,-0.630
5595,-0.990,-0.670
5596,-0.980,-0.725
5597,-0.985,-0.760
5598,-0.980,-0.750
5599,-0.980,-0.705
5600,-1.010,-0.685
5601,-1.010,-0.705
5602,-0.975,-0.745
5603,-0.960,-0.750
5604,-0.925,-0.705
5605,-0.920,-0.665
5606,-0.915,-0.650
5607,-0.915,-0.655
5608,-0.900,-0.730
5609,-0.885,-0.745
5610,-0.885,-0.715
5611,-0.880,-0.660
5612,-0.875,-0.650
5613,-0.860,-0.695
5614,-0.840,-0.735
5615,-0.805,-0.730
5616,-0.780,-0.690
5617,-0.770,-0.625
5618,-0.770,-0.565
5619,-0.770,-0.570
5620,-0.745,-0.640
5621,-0.740,-0.670
5622,-0.735,-0.660
5623,-0.750,-0.620
5624,-0.770,-0.575
5625,-0.780,-0.595
5626,-0.800,-0.635
5627,-0.775,-0.670
5628,-0.785,-0.660
5629,-0.780,-0.615
5630,-0.805,-0.545
5631,-0.805,-0.575
5632,-0.820,-0.640
5633,-0.795,-0.690
5634,-0.805,-0.705
5635,-0.830,-0.660
5636,-0.870,-0.640
5637,-0.910,-0.670
5638,-0.920,-0.705
5639,-0.920,-0.765
5640,-0.920,-0.745
5641,-0.930,-0.685
5642,-0.935,-0.655
5643,-0.955,-0.650
5644,-0.955,-0.700
5645,-0.955,-0.750
5646,-0.950,-0.780
5647,-0.965,-0.730
5648,-0.990,-0.690
5649,-1.030,-0.685
5650,-1.025,-0.725
5651,-1.025,-0.745
5652,-0.995,-0.730
5653,-0.985,-0.670
5654,-0.990,-0.635
5655,-1.000,-0.650
5656,-1.000,-0.680
5657,-1.010,-0.740
5658,-1.005,-0.765
5659,-0.995,-0.735
5660,-1.045,-0.680
5661,-1.115,-0.660
5662,-1.150,-0.700
5663,-1.210,-0.745
5664,-1.185,-0.750
5665,-1.175,-0.710
5666,-1.120,-0.605
5667,-1.030,-0.545
5668,-0.905,-0.515
5669,-0.715,-0.505
5670,-0.505,-0.495
5671,-0.320,-0.415
5672,-0.125,-0.335
5673,0.050,-0.285
5674,0.235,-0.305
5675,0.410,-0.345
5676,0.580,-0.380
5677,0.675,-0.400
5678,0.740,-0.455
5679,0.755,-0.585
5680,0.735,-0.685
5681,0.675,-0.725
5682,0.565,-0.695
5683,0.440,-0.570
5684,0.245,-0.460
5685,-0.045,-0.460
5686,-0.340,-0.530
5687,-0.590,-0.630
5688,-0.770,-0.710
5689,-0.860,-0.715
5690,-0.890,-0.680
5691,-0.895,-0.685
5692,-0.860,-0.700
5693,-0.820,-0.730
5694,-0.800,-0.750
5695,-0.810,-0.720
5696,-0.875,-0.660
5697,-0.970,-0.630
5698,-1.015,-0.675
5699,-1.040,-0.735
5700,-1.040,-0.745
5701,-1.020,-0.715
5702,-1.030,-0.675
5703,-1.035,-0.630
5704,-1.055,-0.650
5705,-1.065,-0.710
5706,-1.045,-0.735
5707,-1.045,-0.715
5708,-1.055,-0.655
5709,-1.075,-0.610
5710,-1.080,-0.610
5711,-1.080,-0.665
5712,-1.060,-0.710
5713,-1.020,-0.705
5714,-1.010,-0.650
5715,-1.025,-0.595
5716,-1.045,-0.555
5717,-1.055,-0.605
5718,-1.065,-0.675
5719,-1.055,-0.710
5720,-1.050,-0.705
5721,-1.045,-0.635
5722,-1.060,-0.590
5723,-1.065,-0.590
5724,-1.040,-0.635
5725,-1.020,-0.645
5726,-1.000,-0.635
5727,-0.990,-0.575
5728,-1.005,-0.540
5729,-1.040,-0.565
5730,-1.055,-0.620
5731,-1.030,-0.670
5732,-1.020,-0.660
5733,-1.010,-0.600
5734,-1.030,-0.545
5735,-1.030,-0.520
5736,-1.020,-0.555
5737,-1.010,-0.600
5738,-0.975,-0.580
5739,-0.980,-0.540
5740,-1.000,-0.495
5741,-1.005,-0.515
5742,-1.005,-0.550
5743,-1.005,-0.600
5744,-0.995,-0.580
5745,-0.990,-0.550
5746,-1.005,-0.505
5747,-1.015,-0.530
5748,-1.010,-0.545
5749,-0.965,-0.545
5750,-0.945,-0.495
5751,-0.940,-0.440
5752,-0.950,-0.460
5753,-0.945,-0.510
5754,-0.935,-0.565
5755,-0.945,-0.565
5756,-0.955,-0.520
5757,-0.960,-0.470
5758,-0.975,-0.475
5759,-0.970,-0.520
5760,-0.945,-0.570
5761,-0.910,-0.585
5762,-0.890,-0.520
5763,-0.905,-0.485
5764,-0.910,-0.470
5765,-0.925,-0.495
5766,-0.910,-0.565
5767,-0.910,-0.615
5768,-0.890,-0.600
5769,-0.905,-0.535
5770,-0.915,-0.530
5771,-0.905,-0.560
5772,-0.905,-0.605
5773,-0.870,-0.620
5774,-0.850,-0.580
5775,-0.855,-0.535
5776,-0.885,-0.540
5777,-0.915,-0.590
5778,-0.910,-0.660
5779,-0.900,-0.695
5780,-0.900,-0.655
5781,-0.915,-0.600
5782,-0.915,-0.590
5783,-0.900,-0.610
5784,-0.890,-0.655
5785,-0.875,-0.685
5786,-0.865,-0.645
5787,-0.875,-0.595
5788,-0.895,-0.575
5789,-0.910,-0.615
5790,-0.915,-0.690
5791,-0.910,-0.700
5792,-0.915,-0.680
5793,-0.930,-0.640
5794,-0.945,-0.620
5795,-0.955,-0.620
5796,-0.925,-0.655
5797,-0.910,-0.685
5798,-0.890,-0.625
5799,-0.895,-0.600
5800,-0.910,-0.580
5801,-0.925,-0.630
5802,-0.945,-0.685
5803,-0.930,-0.720
5804,-0.945,-0.690
5805,-0.940,-0.625
5806,-0.960,-0.610
5807,-0.960,-0.625
5808,-0.955,-0.660
5809,-0.925,-0.680
5810,-0.920,-0.635
5811,-0.925,-0.595
5812,-0.940,-0.595
5813,-0.950,-0.635
5814,-0.945,-0.695
5815,-0.950,-0.700
5816,-0.970,-0.670
5817,-1.005,-0.635
5818,-1.005,-0.665
5819,-1.005,-0.690
5820,-1.000,-0.705
5821,-0.985,-0.670
5822,-0.985,-0.615
5823,-1.005,-0.610
5824,-1.020,-0.650
5825,-1.000,-0.705
5826,-1.030,-0.700
5827,-1.025,-0.660
5828,-1.050,-0.635
5829,-1.055,-0.645
5830,-1.045,-0.705
5831,-1.025,-0.705
5832,-1.015,-0.680
5833,-1.015,-0.610
5834,-1.025,-0.565
5835,-1.010,-0.600
5836,-1.005,-0.675
5837,-0.990,-0.685
5838,-0.995,-0.690
5839,-0.985,-0.625
5840,-1.005,-0.590
5841,-1.010,-0.635
5842,-1.020,-0.665
5843,-0.990,-0.695
5844,-0.990,-0.675
5845,-0.975,-0.605
5846,-0.980,-0.550
5847,-0.970,-0.590
5848,-0.980,-0.650
5849,-0.985,-0.685
5850,-0.965,-0.670
5851,-0.970,-0.625
5852,-0.985,-0.595
5853,-0.985,-0.625
5854,-0.980,-0.685
5855,-0.945,-0.690
5856,-0.910,-0.670
5857,-0.900,-0.600
5858,-0.930,-0.560
5859,-0.915,-0.605
5860,-0.905,-0.665
5861,-0.890,-0.685
5862,-0.860,-0.665
5863,-0.855,-0.625
5864,-0.860,-0.585
5865,-0.840,-0.590
5866,-0.825,-0.645
5867,-0.780,-0.660
5868,-0.745,-0.620
5869,-0.725,-0.550
5870,-0.720,-0.480
5871,-0.715,-0.485
5872,-0.750,-0.535
5873,-0.735,-0.560
5874,-0.740,-0.550
5875,-0.755,-0.525
5876,-0.775,-0.510
5877,-0.765,-0.520
5878,-0.760,-0.565
5879,-0.760,-0.600
5880,-0.755,-0.565
5881,-0.760,-0.480
5882,-0.775,-0.465
5883,-0.785,-0.495
5884,-0.785,-0.550
5885,-0.800,-0.595
5886,-0.795,-0.605
5887,-0.830,-0.560
5888,-0.880,-0.565
5889,-0.895,-0.620
5890,-0.910,-0.655
5891,-0.915,-0.640
5892,-0.930,-0.600
5893,-0.945,-0.550
5894,-0.945,-0.540
5895,-0.935,-0.570
5896,-0.945,-0.615
5897,-0.940,-0.605
5898,-0.960,-0.590
5899,-0.975,-0.570
5900,-0.980,-0.575
5901,-0.990,-0.630
5902,-0.970,-0.675
5903,-0.960,-0.635
5904,-0.960,-0.545
5905,-0.975,-0.515
5906,-0.970,-0.530
5907,-0.965,-0.605
5908,-0.960,-0.665
5909,-0.970,-0.625
5910,-1.010,-0.595
5911,-1.075,-0.555
5912,-1.150,-0.550
5913,-1.205,-0.620
5914,-1.195,-0.650
5915,-1.135,-0.640
5916,-1.050,-0.545
5917,-0.925,-0.405
5918,-0.785,-0.350
5919,-0.595,-0.320
5920,-0.405,-0.310
5921,-0.175,-0.290
5922,-0.015,-0.205
5923,0.160,-0.135
5924,0.310,-0.155
5925,0.435,-0.210
5926,0.575,-0.275
5927,0.665,-0.345
5928,0.735,-0.390
5929,0.775,-0.415
5930,0.790,-0.440
5931,0.755,-0.495
5932,0.695,-0.530
5933,0.605,-0.510
5934,0.440,-0.440
5935,0.185,-0.345
5936,-0.120,-0.310
5937,-0.435,-0.400
5938,-0.670,-0.530
5939,-0.810,-0.605
5940,-0.865,-0.615
5941,-0.855,-0.570
5942,-0.820,-0.525
5943,-0.795,-0.535
5944,-0.775,-0.565
5945,-0.780,-0.600
5946,-0.835,-0.580
5947,-0.890,-0.525
5948,-0.970,-0.500
5949,-1.000,-0.530
5950,-1.040,-0.590
5951,-1.015,-0.620
5952,-1.010,-0.595
5953,-1.010,-0.535
5954,-0.995,-0.475
5955,-1.000,-0.450
5956,-1.020,-0.505
5957,-1.020,-0.550
5958,-1.005,-0.585
5959,-1.015,-0.540
5960,-1.030,-0.480
5961,-1.050,-0.485
5962,-1.045,-0.525
5963,-1.010,-0.560
5964,-0.995,-0.545
5965,-1.000,-0.480
5966,-1.000,-0.450
5967,-1.005,-0.465
5968,-1.015,-0.500
5969,-1.005,-0.515
5970,-0.995,-0.505
5971,-0.995,-0.460
5972,-1.010,-0.465
5973,-1.010,-0.500
5974,-0.990,-0.535
5975,-0.985,-0.515
5976,-0.990,-0.455
5977,-0.975,-0.400
5978,-0.990,-0.390
5979,-0.995,-0.430
5980,-0.975,-0.470
5981,-0.965,-0.500
5982,-0.960,-0.460
5983,-0.980,-0.410
5984,-0.985,-0.395
5985,-0.995,-0.440
5986,-1.010,-0.475
5987,-0.990,-0.490
5988,-0.985,-0.445
5989,-0.960,-0.385
5990,-0.975,-0.340
5991,-0.970,-0.360
5992,-0.960,-0.415
5993,-0.940,-0.450
5994,-0.930,-0.435
5995,-0.935,-0.395
5996,-0.940,-0.350
5997,-0.960,-0.355
5998,-0.945,-0.390
5999,-0.935,-0.440
6000,-0.920,-0.405
6001,-0.920,-0.350
6002,-0.930,-0.295
6003,-0.930,-0.285
6004,-0.930,-0.350
6005,-0.905,-0.400
6006,-0.910,-0.415
6007,-0.910,-0.380
6008,-0.920,-0.345
6009,-0.930,-0.355
6010,-0.935,-0.410
6011,-0.925,-0.440
6012,-0.910,-0.415
6013,-0.905,-0.350
6014,-0.905,-0.310
6015,-0.885,-0.350
6016,-0.865,-0.415
6017,-0.845,-0.435
6018,-0.840,-0.415
6019,-0.840,-0.380
6020,-0.865,-0.365
6021,-0.870,-0.415
6022,-0.890,-0.475
6023,-0.875,-0.490
6024,-0.855,-0.445
6025,-0.850,-0.390
6026,-0.860,-0.355
6027,-0.865,-0.375
6028,-0.860,-0.450
6029,-0.845,-0.480
6030,-0.845,-0.470
6031,-0.860,-0.430
6032,-0.885,-0.440
6033,-0.890,-0.470
6034,-0.900,-0.520
6035,-0.885,-0.525
6036,-0.875,-0.485
6037,-0.875,-0.425
6038,-0.875,-0.405
6039,-0.865,-0.455
6040,-0.865,-0.500
6041,-0.855,-0.510
6042,-0.875,-0.470
6043,-0.885,-0.440
6044,-0.910,-0.480
6045,-0.905,-0.510
6046,-0.900,-0.525
6047,-0.885,-0.520
6048,-0.905,-0.450
6049,-0.900,-0.420
6050,-0.905,-0.440
6051,-0.895,-0.485
6052,-0.870,-0.525
6053,-0.885,-0.520
6054,-0.895,-0.475
6055,-0.905,-0.435
6056,-0.915,-0.465
6057,-0.930,-0.520
6058,-0.905,-0.550
6059,-0.915,-0.545
6060,-0.890,-0.475
6061,-0.910,-0.425
6062,-0.930,-0.395
6063,-0.915,-0.450
6064,-0.925,-0.530
6065,-0.910,-0.535
6066,-0.910,-0.505
6067,-0.940,-0.465
6068,-0.940,-0.460
6069,-0.945,-0.485
6070,-0.965,-0.540
6071,-0.950,-0.540
6072,-0.940,-0.485
6073,-0.940,-0.425
6074,-0.955,-0.400
6075,-0.940,-0.445
6076,-0.940,-0.515
6077,-0.935,-0.540
6078,-0.945,-0.550
6079,-0.955,-0.485
6080,-0.995,-0.465
6081,-1.010,-0.485
6082,-1.000,-0.530
6083,-0.985,-0.560
6084,-0.950,-0.510
6085,-0.945,-0.455
6086,-0.965,-0.430
6087,-0.960,-0.445
6088,-0.960,-0.500
6089,-0.960,-0.525
6090,-0.935,-0.515
6091,-0.945,-0.480
6092,-0.960,-0.455
6093,-0.965,-0.485
6094,-0.960,-0.540
6095,-0.930,-0.535
6096,-0.900,-0.485
6097,-0.885,-0.425
6098,-0.890,-0.395
6099,-0.900,-0.435
6100,-0.910,-0.495
6101,-0.895,-0.505
6102,-0.890,-0.500
6103,-0.905,-0.450
6104,-0.915,-0.475
6105,-0.925,-0.485
6106,-0.895,-0.535
6107,-0.865,-0.540
6108,-0.845,-0.465
6109,-0.845,-0.405
6110,-0.840,-0.410
6111,-0.820,-0.450
6112,-0.790,-0.490
6113,-0.800,-0.495
6114,-0.790,-0.460
6115,-0.785,-0.445
6116,-0.785,-0.460
6117,-0.750,-0.500
6118,-0.725,-0.510
6119,-0.710,-0.440
6120,-0.700,-0.360
6121,-0.700,-0.350
6122,-0.685,-0.400
6123,-0.660,-0.420
6124,-0.670,-0.405
6125,-0.665,-0.365
6126,-0.690,-0.330
6127,-0.725,-0.340
6128,-0.740,-0.415
6129,-0.740,-0.465
6130,-0.730,-0.490
6131,-0.740,-0.440
6132,-0.745,-0.375
6133,-0.770,-0.355
6134,-0.775,-0.405
6135,-0.795,-0.475
6136,-0.805,-0.515
6137,-0.830,-0.490
6138,-0.865,-0.475
6139,-0.885,-0.450
6140,-0.890,-0.505
6141,-0.900,-0.550
6142,-0.890,-0.540
6143,-0.900,-0.475
6144,-0.910,-0.420
6145,-0.925,-0.370
6146,-0.940,-0.425
6147,-0.920,-0.465
6148,-0.920,-0.520
6149,-0.920,-0.505
6150,-0.920,-0.475
6151,-0.925,-0.420
6152,-0.925,-0.465
6153,-0.940,-0.505
6154,-0.925,-0.520
6155,-0.940,-0.495
6156,-0.925,-0.430
6157,-0.950,-0.385
6158,-0.960,-0.405
6159,-0.985,-0.475
6160,-1.015,-0.500
6161,-1.055,-0.505
6162,-1.085,-0.465
6163,-1.145,-0.440
6164,-1.165,-0.465
6165,-1.145,-0.500
6166,-1.055,-0.475
6167,-0.920,-0.385
6168,-0.730,-0.240
6169,-0.535,-0.160
6170,-0.325,-0.110
6171,-0.115,-0.115
6172,0.040,-0.115
6173,0.200,-0.080
6174,0.335,-0.035
6175,0.465,-0.040
6176,0.570,-0.150
6177,0.650,-0.285
6178,0.710,-0.445
6179,0.755,-0.550
6180,0.765,-0.540
6181,0.720,-0.505
6182,0.625,-0.470
6183,0.460,-0.440
6184,0.255,-0.390
6185,-0.075,-0.325
6186,-0.405,-0.305
6187,-0.685,-0.355
6188,-0.850,-0.445
6189,-0.915,-0.550
6190,-0.900,-0.540
6191,-0.835,-0.505
6192,-0.795,-0.430
6193,-0.760,-0.380
6194,-0.790,-0.405
6195,-0.805,-0.440
6196,-0.855,-0.430
6197,-0.910,-0.390
6198,-0.965,-0.380
6199,-1.000,-0.420
6200,-0.995,-0.470
6201,-0.985,-0.500
6202,-0.970,-0.470
6203,-0.970,-0.420
6204,-0.985,-0.360
6205,-1.005,-0.360
6206,-1.005,-0.385
6207,-0.995,-0.425
6208,-0.960,-0.420
6209,-0.955,-0.360
6210,-0.965,-0.350
6211,-0.975,-0.360
6212,-0.985,-0.430
6213,-0.965,-0.460
6214,-0.960,-0.420
6215,-0.960,-0.365
6216,-0.965,-0.310
6217,-0.985,-0.315
6218,-0.970,-0.375
6219,-0.975,-0.410
6220,-0.960,-0.395
6221,-0.965,-0.355
6222,-0.980,-0.320
6223,-0.995,-0.325
6224,-1.005,-0.380
6225,-0.975,-0.415
6226,-0.955,-0.405
6227,-0.970,-0.330
6228,-0.950,-0.285
6229,-0.955,-0.290
6230,-0.945,-0.335
6231,-0.940,-0.370
6232,-0.915,-0.335
6233,-0.920,-0.280
6234,-0.940,-0.255
6235,-0.960,-0.275
6236,-0.950,-0.340
6237,-0.960,-0.400
6238,-0.955,-0.375
6239,-0.970,-0.295
6240,-0.960,-0.245
6241,-0.945,-0.235
6242,-0.925,-0.265
6243,-0.895,-0.310
6244,-0.880,-0.300
6245,-0.895,-0.255
6246,-0.910,-0.215
6247,-0.930,-0.235
6248,-0.930,-0.280
6249,-0.930,-0.330
6250,-0.890,-0.330
6251,-0.870,-0.255
6252,-0.875,-0.210
6253,-0.880,-0.220
6254,-0.875,-0.255
6255,-0.865,-0.315
6256,-0.870,-0.305
6257,-0.880,-0.250
6258,-0.885,-0.235
6259,-0.900,-0.250
6260,-0.910,-0.335
6261,-0.885,-0.370
6262,-0.875,-0.355
6263,-0.870,-0.270
6264,-0.865,-0.235
6265,-0.865,-0.245
6266,-0.855,-0.300
6267,-0.840,-0.340
6268,-0.820,-0.335
6269,-0.815,-0.285
6270,-0.840,-0.265
6271,-0.865,-0.280
6272,-0.865,-0.355
6273,-0.865,-0.405
6274,-0.855,-0.425
6275,-0.850,-0.350
6276,-0.865,-0.295
6277,-0.870,-0.280
6278,-0.870,-0.310
6279,-0.850,-0.375
6280,-0.840,-0.425
6281,-0.845,-0.395
6282,-0.850,-0.345
6283,-0.860,-0.300
6284,-0.890,-0.340
6285,-0.895,-0.410
6286,-0.885,-0.465
6287,-0.870,-0.430
6288,-0.870,-0.360
6289,-0.860,-0.320
6290,-0.855,-0.330
6291,-0.865,-0.380
6292,-0.840,-0.435
6293,-0.840,-0.420
6294,-0.845,-0.385
6295,-0.855,-0.335
6296,-0.885,-0.345
6297,-0.895,-0.395
6298,-0.905,-0.440
6299,-0.870,-0.460
6300,-0.880,-0.420
6301,-0.870,-0.340
6302,-0.885,-0.295
6303,-0.885,-0.330
6304,-0.890,-0.415
6305,-0.895,-0.440
6306,-0.890,-0.425
6307,-0.895,-0.375
6308,-0.895,-0.360
6309,-0.895,-0.390
6310,-0.895,-0.430
6311,-0.865,-0.445
6312,-0.875,-0.410
6313,-0.880,-0.350
6314,-0.885,-0.305
6315,-0.885,-0.330
6316,-0.890,-0.410
6317,-0.870,-0.440
6318,-0.865,-0.440
6319,-0.900,-0.385
6320,-0.925,-0.355
6321,-0.910,-0.385
6322,-0.930,-0.435
6323,-0.910,-0.455
6324,-0.895,-0.430
6325,-0.885,-0.355
6326,-0.905,-0.320
6327,-0.910,-0.340
6328,-0.910,-0.405
6329,-0.895,-0.430
6330,-0.905,-0.415
6331,-0.905,-0.365
6332,-0.915,-0.360
6333,-0.905,-0.400
6334,-0.915,-0.435
6335,-0.885,-0.440
6336,-0.890,-0.400
6337,-0.895,-0.345
6338,-0.895,-0.335
6339,-0.895,-0.375
6340,-0.885,-0.430
6341,-0.860,-0.430
6342,-0.865,-0.400
6343,-0.885,-0.365
6344,-0.880,-0.365
6345,-0.880,-0.425
6346,-0.865,-0.480
6347,-0.845,-0.470
6348,-0.805,-0.405
6349,-0.810,-0.330
6350,-0.810,-0.310
6351,-0.800,-0.330
6352,-0.780,-0.385
6353,-0.750,-0.435
6354,-0.740,-0.390
6355,-0.740,-0.355
6356,-0.735,-0.340
6357,-0.725,-0.375
6358,-0.705,-0.405
6359,-0.685,-0.400
6360,-0.675,-0.360
6361,-0.680,-0.275
6362,-0.665,-0.265
6363,-0.660,-0.300
6364,-0.650,-0.350
6365,-0.635,-0.350
6366,-0.640,-0.335
6367,-0.680,-0.265
6368,-0.720,-0.300
6369,-0.735,-0.340
6370,-0.735,-0.385
6371,-0.730,-0.390
6372,-0.725,-0.340
6373,-0.720,-0.285
6374,-0.715,-0.270
6375,-0.730,-0.335
6376,-0.725,-0.390
6377,-0.755,-0.415
6378,-0.795,-0.405
6379,-0.820,-0.385
6380,-0.835,-0.400
6381,-0.840,-0.450
6382,-0.870,-0.455
6383,-0.865,-0.430
6384,-0.870,-0.360
6385,-0.880,-0.340
6386,-0.905,-0.355
6387,-0.895,-0.415
6388,-0.880,-0.445
