'sample interval','MLII','V1'
'0.00277778 sec','mV','mV'
0,0.045,-0.760
1,0.045,-0.760
2,0.045,-0.760
3,0.045,-0.760
4,0.045,-0.760
5,0.045,-0.760
6,0.045,-0.760
7,0.045,-0.770
8,0.045,-0.760
9,0.035,-0.740
10,0.030,-0.720
11,0.045,-0.685
12,0.050,-0.655
13,0.065,-0.640
14,0.035,-0.645
15,0.030,-0.610
16,0.015,-0.570
17,0.040,-0.530
18,0.045,-0.485
19,0.020,-0.470
20,0.010,-0.450
21,-0.020,-0.420
22,-0.010,-0.395
23,-0.010,-0.350
24,-0.015,-0.320
25,-0.035,-0.295
26,-0.055,-0.290
27,-0.070,-0.250
28,-0.085,-0.225
29,-0.075,-0.175
30,-0.075,-0.160
31,-0.100,-0.145
32,-0.120,-0.125
33,-0.135,-0.105
34,-0.150,-0.080
35,-0.130,-0.045
36,-0.130,-0.020
37,-0.135,-0.010
38,-0.155,-0.005
39,-0.170,0.000
40,-0.175,0.040
41,-0.165,0.050
42,-0.160,0.080
43,-0.175,0.075
44,-0.205,0.065
45,-0.200,0.075
46,-0.195,0.085
47,-0.205,0.100
48,-0.190,0.120
49,-0.195,0.110
50,-0.210,0.105
51,-0.210,0.105
52,-0.205,0.100
53,-0.190,0.115
54,-0.175,0.115
55,-0.190,0.100
56,-0.195,0.080
57,-0.205,0.070
58,-0.200,0.080
59,-0.185,0.110
60,-0.170,0.115
61,-0.155,0.125
62,-0.185,0.110
63,-0.195,0.120
64,-0.205,0.125
65,-0.185,0.145
66,-0.175,0.150
67,-0.180,0.140
68,-0.190,0.135
69,-0.220,0.135
70,-0.200,0.140
71,-0.180,0.155
72,-0.185,0.170
73,-0.180,0.150
74,-0.195,0.150
75,-0.220,0.155
76,-0.200,0.160
77,-0.175,0.175
78,-0.175,0.175
79,-0.185,0.170
80,-0.200,0.150
81,-0.215,0.150
82,-0.225,0.170
83,-0.210,0.185
84,-0.195,0.190
85,-0.200,0.170
86,-0.215,0.160
87,-0.235,0.160
88,-0.235,0.170
89,-0.220,0.175
90,-0.225,0.180
91,-0.215,0.165
92,-0.230,0.160
93,-0.240,0.145
94,-0.245,0.155
95,-0.230,0.165
96,-0.210,0.165
97,-0.215,0.150
98,-0.220,0.145
99,-0.235,0.130
100,-0.220,0.145
101,-0.205,0.165
102,-0.215,0.150
103,-0.205,0.145
104,-0.205,0.150
105,-0.215,0.155
106,-0.250,0.165
107,-0.215,0.175
108,-0.200,0.185
109,-0.215,0.165
110,-0.220,0.160
111,-0.240,0.160
112,-0.230,0.175
113,-0.215,0.180
114,-0.200,0.185
115,-0.200,0.185
116,-0.215,0.160
117,-0.210,0.160
118,-0.215,0.175
119,-0.200,0.185
120,-0.190,0.190
121,-0.190,0.170
122,-0.200,0.150
123,-0.195,0.165
124,-0.205,0.170
125,-0.215,0.180
126,-0.190,0.180
127,-0.195,0.180
128,-0.225,0.155
129,-0.220,0.160
130,-0.235,0.170
131,-0.230,0.180
132,-0.195,0.190
133,-0.210,0.165
134,-0.220,0.135
135,-0.225,0.145
136,-0.220,0.145
137,-0.195,0.155
138,-0.175,0.155
139,-0.175,0.155
140,-0.190,0.140
141,-0.200,0.140
142,-0.210,0.145
143,-0.195,0.135
144,-0.185,0.145
145,-0.165,0.135
146,-0.180,0.125
147,-0.195,0.115
148,-0.195,0.135
149,-0.185,0.145
150,-0.170,0.155
151,-0.185,0.160
152,-0.195,0.145
153,-0.200,0.145
154,-0.200,0.160
155,-0.180,0.165
156,-0.150,0.160
157,-0.175,0.160
158,-0.170,0.150
159,-0.190,0.135
160,-0.195,0.150
161,-0.165,0.155
162,-0.145,0.170
163,-0.145,0.140
164,-0.165,0.135
165,-0.170,0.140
166,-0.160,0.160
167,-0.150,0.170
168,-0.150,0.170
169,-0.145,0.155
170,-0.155,0.130
171,-0.170,0.135
172,-0.160,0.125
173,-0.165,0.145
174,-0.140,0.150
175,-0.150,0.125
176,-0.165,0.105
177,-0.205,0.100
178,-0.195,0.105
179,-0.190,0.125
180,-0.155,0.110
181,-0.165,0.095
182,-0.175,0.090
183,-0.165,0.080
184,-0.155,0.105
185,-0.145,0.105
186,-0.130,0.100
187,-0.125,0.075
188,-0.115,0.045
189,-0.105,0.050
190,-0.085,0.060
191,-0.030,0.080
192,0.045,0.075
193,0.170,0.065
194,0.455,0.065
195,0.905,0.065
196,1.415,0.070
197,1.650,0.065
198,1.520,0.020
199,1.225,-0.080
200,1.030,-0.250
201,0.940,-0.525
202,0.860,-0.860
203,0.795,-1.075
204,0.700,-1.075
205,0.590,-0.955
206,0.450,-0.860
207,0.350,-0.835
208,0.250,-0.800
209,0.145,-0.765
210,0.035,-0.750
211,-0.070,-0.755
212,-0.205,-0.765
213,-0.330,-0.760
214,-0.465,-0.755
215,-0.595,-0.765
216,-0.750,-0.775
217,-0.910,-0.790
218,-1.050,-0.805
219,-1.185,-0.805
220,-1.275,-0.805
221,-1.350,-0.810
222,-1.420,-0.820
223,-1.485,-0.835
224,-1.550,-0.855
225,-1.600,-0.865
226,-1.605,-0.890
227,-1.590,-0.890
228,-1.550,-0.910
229,-1.510,-0.940
230,-1.465,-0.985
231,-1.420,-1.025
232,-1.325,-1.060
233,-1.205,-1.085
234,-1.070,-1.095
235,-0.970,-1.110
236,-0.865,-1.110
237,-0.780,-1.080
238,-0.675,-1.035
239,-0.620,-0.955
240,-0.575,-0.910
241,-0.535,-0.885
242,-0.475,-0.870
243,-0.385,-0.825
244,-0.290,-0.770
245,-0.190,-0.690
246,-0.100,-0.600
247,-0.035,-0.520
248,-0.005,-0.430
249,0.015,-0.320
250,0.035,-0.190
251,0.060,-0.090
252,0.085,0.005
253,0.105,0.050
254,0.090,0.080
255,0.090,0.105
256,0.095,0.120
257,0.120,0.150
258,0.140,0.180
259,0.130,0.170
260,0.100,0.175
261,0.095,0.180
262,0.105,0.195
263,0.115,0.215
264,0.155,0.230
265,0.145,0.220
266,0.140,0.205
267,0.130,0.225
268,0.125,0.220
269,0.150,0.255
270,0.180,0.265
271,0.175,0.260
272,0.180,0.235
273,0.185,0.235
274,0.195,0.250
275,0.225,0.245
276,0.250,0.270
277,0.285,0.255
278,0.270,0.245
279,0.285,0.245
280,0.300,0.255
281,0.330,0.280
282,0.355,0.285
283,0.365,0.285
284,0.355,0.285
285,0.360,0.305
286,0.380,0.330
287,0.395,0.345
288,0.425,0.360
289,0.435,0.345
290,0.435,0.355
291,0.435,0.365
292,0.445,0.385
293,0.470,0.400
294,0.500,0.410
295,0.515,0.390
296,0.515,0.385
297,0.530,0.395
298,0.525,0.425
299,0.555,0.450
300,0.580,0.450
301,0.610,0.450
302,0.595,0.440
303,0.620,0.450
304,0.630,0.465
305,0.650,0.480
306,0.670,0.500
307,0.670,0.490
308,0.665,0.485
309,0.650,0.495
310,0.645,0.525
311,0.660,0.535
312,0.650,0.550
313,0.665,0.550
314,0.655,0.545
315,0.650,0.540
316,0.650,0.560
317,0.660,0.580
318,0.670,0.595
319,0.670,0.575
320,0.650,0.565
321,0.630,0.555
322,0.600,0.580
323,0.610,0.570
324,0.605,0.570
325,0.590,0.555
326,0.555,0.540
327,0.520,0.540
328,0.505,0.545
329,0.490,0.575
330,0.475,0.555
331,0.450,0.555
332,0.405,0.525
333,0.370,0.515
334,0.340,0.515
335,0.320,0.520
336,0.305,0.500
337,0.300,0.480
338,0.265,0.460
339,0.235,0.445
340,0.205,0.440
341,0.210,0.445
342,0.190,0.430
343,0.180,0.395
344,0.150,0.365
345,0.120,0.350
346,0.100,0.340
347,0.090,0.340
348,0.090,0.320
349,0.070,0.310
350,0.050,0.270
351,0.040,0.255
352,0.030,0.245
353,0.035,0.265
354,0.030,0.255
355,0.015,0.235
356,-0.005,0.215
357,-0.015,0.200
358,-0.030,0.215
359,-0.025,0.230
360,-0.015,0.220
361,-0.020,0.215
362,-0.030,0.200
363,-0.040,0.185
364,-0.050,0.190
365,-0.050,0.190
366,-0.030,0.190
367,-0.035,0.180
368,-0.045,0.170
369,-0.065,0.165
370,-0.065,0.165
371,-0.050,0.160
372,-0.040,0.160
373,-0.015,0.140
374,-0.015,0.110
375,-0.025,0.120
376,-0.035,0.125
377,-0.015,0.160
378,-0.010,0.155
379,-0.015,0.135
380,-0.025,0.120
381,-0.050,0.120
382,-0.050,0.135
383,-0.050,0.160
384,-0.035,0.165
385,-0.040,0.150
386,-0.065,0.140
387,-0.065,0.140
388,-0.070,0.160
389,-0.060,0.170
390,-0.050,0.170
391,-0.065,0.170
392,-0.080,0.160
393,-0.095,0.155
394,-0.105,0.160
395,-0.095,0.170
396,-0.075,0.170
397,-0.100,0.155
398,-0.100,0.140
399,-0.120,0.145
400,-0.120,0.155
401,-0.110,0.175
402,-0.115,0.175
403,-0.110,0.160
404,-0.120,0.155
405,-0.150,0.140
406,-0.135,0.160
407,-0.130,0.175
408,-0.140,0.180
409,-0.145,0.175
410,-0.150,0.165
411,-0.175,0.155
412,-0.185,0.170
413,-0.180,0.170
414,-0.170,0.170
415,-0.180,0.155
416,-0.185,0.145
417,-0.200,0.135
418,-0.190,0.150
419,-0.155,0.150
420,-0.145,0.160
421,-0.145,0.145
422,-0.155,0.120
423,-0.175,0.115
424,-0.160,0.120
425,-0.145,0.125
426,-0.140,0.120
427,-0.150,0.115
428,-0.155,0.085
429,-0.170,0.080
430,-0.160,0.100
431,-0.150,0.105
432,-0.150,0.100
433,-0.160,0.105
434,-0.150,0.090
435,-0.170,0.095
436,-0.170,0.110
437,-0.160,0.115
438,-0.150,0.125
439,-0.160,0.110
440,-0.150,0.105
441,-0.175,0.100
442,-0.170,0.105
443,-0.180,0.125
444,-0.160,0.130
445,-0.165,0.115
446,-0.180,0.100
447,-0.190,0.100
448,-0.185,0.100
449,-0.180,0.115
450,-0.170,0.115
451,-0.180,0.095
452,-0.205,0.105
453,-0.215,0.100
454,-0.200,0.110
455,-0.185,0.115
456,-0.175,0.115
457,-0.170,0.110
458,-0.190,0.105
459,-0.195,0.100
460,-0.200,0.120
461,-0.215,0.130
462,-0.200,0.125
463,-0.210,0.125
464,-0.205,0.110
465,-0.215,0.105
466,-0.220,0.115
467,-0.200,0.110
468,-0.190,0.120
469,-0.195,0.115
470,-0.215,0.090
471,-0.200,0.085
472,-0.215,0.090
473,-0.175,0.095
474,-0.160,0.085
475,-0.160,0.080
476,-0.150,0.055
477,-0.155,0.065
478,-0.160,0.070
479,-0.130,0.085
480,-0.115,0.075
481,-0.120,0.065
482,-0.115,0.035
483,-0.115,0.040
484,-0.080,0.055
485,-0.040,0.060
486,0.010,0.065
487,0.100,0.050
488,0.275,0.040
489,0.625,0.045
490,1.125,0.050
491,1.530,0.050
492,1.600,0.015
493,1.365,-0.065
494,1.085,-0.195
495,0.955,-0.430
496,0.885,-0.755
497,0.820,-1.070
498,0.735,-1.265
499,0.645,-1.250
500,0.555,-1.145
501,0.445,-1.040
502,0.350,-0.970
503,0.250,-0.930
504,0.165,-0.900
505,0.060,-0.885
506,-0.075,-0.875
507,-0.190,-0.865
508,-0.320,-0.850
509,-0.430,-0.835
510,-0.535,-0.845
511,-0.665,-0.855
512,-0.825,-0.875
513,-0.975,-0.895
514,-1.125,-0.885
515,-1.245,-0.880
516,-1.340,-0.875
517,-1.430,-0.890
518,-1.515,-0.895
519,-1.600,-0.890
520,-1.665,-0.900
521,-1.710,-0.895
522,-1.740,-0.895
523,-1.790,-0.910
524,-1.810,-0.930
525,-1.830,-0.945
526,-1.835,-0.940
527,-1.775,-0.935
528,-1.725,-0.955
529,-1.690,-0.995
530,-1.645,-1.025
531,-1.580,-1.045
532,-1.470,-1.040
533,-1.350,-1.055
534,-1.195,-1.070
535,-1.070,-1.090
536,-0.950,-1.075
537,-0.880,-1.040
538,-0.825,-0.980
539,-0.775,-0.920
540,-0.720,-0.880
541,-0.665,-0.850
542,-0.615,-0.810
543,-0.565,-0.770
544,-0.500,-0.705
545,-0.430,-0.650
546,-0.365,-0.580
547,-0.310,-0.550
548,-0.265,-0.495
549,-0.225,-0.435
550,-0.175,-0.360
551,-0.100,-0.280
552,-0.025,-0.215
553,0.020,-0.170
554,0.050,-0.130
555,0.065,-0.055
556,0.095,0.000
557,0.120,0.050
558,0.170,0.080
559,0.170,0.115
560,0.165,0.125
561,0.185,0.135
562,0.190,0.155
563,0.205,0.180
564,0.230,0.205
565,0.235,0.200
566,0.230,0.190
567,0.230,0.200
568,0.235,0.220
569,0.255,0.235
570,0.285,0.245
571,0.290,0.240
572,0.280,0.230
573,0.275,0.235
574,0.260,0.240
575,0.305,0.245
576,0.320,0.245
577,0.320,0.235
578,0.315,0.220
579,0.315,0.220
580,0.345,0.240
581,0.365,0.255
582,0.385,0.250
583,0.400,0.245
584,0.405,0.245
585,0.410,0.235
586,0.440,0.250
587,0.460,0.260
588,0.500,0.255
589,0.500,0.260
590,0.505,0.235
591,0.505,0.260
592,0.535,0.280
593,0.570,0.305
594,0.600,0.330
595,0.615,0.330
596,0.625,0.330
597,0.635,0.330
598,0.650,0.355
599,0.680,0.375
600,0.705,0.380
601,0.725,0.395
602,0.740,0.390
603,0.755,0.400
604,0.775,0.420
605,0.800,0.430
606,0.845,0.435
607,0.850,0.435
608,0.860,0.445
609,0.880,0.455
610,0.905,0.455
611,0.925,0.485
612,0.945,0.480
613,0.955,0.465
614,0.975,0.475
615,0.980,0.480
616,1.005,0.505
617,1.025,0.535
618,1.055,0.535
619,1.045,0.540
620,1.030,0.540
621,1.025,0.555
622,1.045,0.570
623,1.060,0.585
624,1.060,0.580
625,1.050,0.585
626,1.055,0.580
627,1.020,0.590
628,1.005,0.600
629,0.990,0.610
630,0.975,0.615
631,0.940,0.600
632,0.905,0.575
633,0.885,0.570
634,0.850,0.585
635,0.825,0.595
636,0.815,0.585
637,0.765,0.565
638,0.725,0.540
639,0.680,0.520
640,0.650,0.510
641,0.620,0.530
642,0.610,0.520
643,0.560,0.495
644,0.495,0.470
645,0.445,0.455
646,0.400,0.455
647,0.380,0.455
648,0.355,0.445
649,0.300,0.415
650,0.265,0.395
651,0.215,0.380
652,0.180,0.370
653,0.175,0.370
654,0.160,0.360
655,0.125,0.320
656,0.080,0.295
657,0.055,0.280
658,0.050,0.295
659,0.035,0.295
660,0.025,0.275
661,0.010,0.255
662,-0.020,0.240
663,-0.045,0.225
664,-0.045,0.240
665,-0.060,0.240
666,-0.055,0.225
667,-0.065,0.225
668,-0.095,0.195
669,-0.105,0.195
670,-0.110,0.190
671,-0.105,0.185
672,-0.095,0.205
673,-0.100,0.190
674,-0.115,0.175
675,-0.155,0.165
676,-0.160,0.170
677,-0.145,0.190
678,-0.130,0.185
679,-0.145,0.165
680,-0.150,0.155
681,-0.150,0.150
682,-0.155,0.145
683,-0.130,0.155
684,-0.130,0.145
685,-0.130,0.115
686,-0.150,0.100
687,-0.150,0.105
688,-0.140,0.105
689,-0.120,0.120
690,-0.100,0.115
691,-0.100,0.100
692,-0.115,0.090
693,-0.135,0.090
694,-0.130,0.100
695,-0.135,0.115
696,-0.120,0.125
697,-0.130,0.105
698,-0.140,0.105
699,-0.145,0.090
700,-0.165,0.100
701,-0.170,0.120
702,-0.145,0.115
703,-0.145,0.105
704,-0.165,0.090
705,-0.180,0.100
706,-0.185,0.105
707,-0.190,0.135
708,-0.175,0.120
709,-0.200,0.100
710,-0.205,0.110
711,-0.220,0.110
712,-0.210,0.130
713,-0.205,0.140
714,-0.205,0.120
715,-0.215,0.120
716,-0.225,0.115
717,-0.230,0.110
718,-0.235,0.120
719,-0.235,0.130
720,-0.220,0.145
721,-0.245,0.135
722,-0.255,0.120
723,-0.275,0.110
724,-0.275,0.130
725,-0.290,0.155
726,-0.280,0.155
727,-0.290,0.140
728,-0.295,0.135
729,-0.315,0.135
730,-0.275,0.150
731,-0.265,0.155
732,-0.245,0.155
733,-0.235,0.145
734,-0.255,0.135
735,-0.260,0.125
736,-0.240,0.115
737,-0.240,0.130
738,-0.220,0.110
739,-0.230,0.090
740,-0.250,0.090
741,-0.240,0.090
742,-0.240,0.095
743,-0.210,0.105
744,-0.200,0.110
745,-0.205,0.105
746,-0.225,0.085
747,-0.235,0.085
748,-0.215,0.090
749,-0.215,0.115
750,-0.195,0.100
751,-0.205,0.090
752,-0.215,0.070
753,-0.235,0.085
754,-0.255,0.095
755,-0.230,0.085
756,-0.215,0.095
757,-0.220,0.100
758,-0.225,0.070
759,-0.245,0.080
760,-0.255,0.090
761,-0.245,0.085
762,-0.245,0.095
763,-0.245,0.075
764,-0.265,0.055
765,-0.270,0.065
766,-0.265,0.085
767,-0.265,0.090
768,-0.240,0.090
769,-0.250,0.085
770,-0.245,0.075
771,-0.270,0.065
772,-0.270,0.095
773,-0.265,0.100
774,-0.255,0.100
775,-0.275,0.100
776,-0.285,0.080
777,-0.300,0.085
778,-0.305,0.090
779,-0.305,0.105
780,-0.290,0.105
781,-0.290,0.100
782,-0.300,0.090
783,-0.285,0.090
784,-0.245,0.085
785,-0.235,0.090
786,-0.210,0.105
787,-0.200,0.095
788,-0.195,0.075
789,-0.205,0.055
790,-0.195,0.040
791,-0.185,0.055
792,-0.165,0.040
793,-0.155,0.025
794,-0.160,0.015
795,-0.150,0.010
796,-0.125,0.020
797,-0.095,0.030
798,-0.040,0.030
799,0.025,0.010
800,0.170,-0.010
801,0.460,-0.010
802,0.890,-0.010
803,1.315,-0.020
804,1.470,-0.050
805,1.320,-0.135
806,1.095,-0.250
807,0.930,-0.445
808,0.865,-0.725
809,0.800,-1.025
810,0.740,-1.220
811,0.635,-1.210
812,0.535,-1.095
813,0.435,-1.010
814,0.350,-0.945
815,0.250,-0.910
816,0.160,-0.880
817,0.040,-0.870
818,-0.070,-0.865
819,-0.200,-0.845
820,-0.310,-0.840
821,-0.440,-0.820
822,-0.565,-0.825
823,-0.700,-0.845
824,-0.855,-0.860
825,-1.020,-0.885
826,-1.160,-0.865
827,-1.300,-0.855
828,-1.400,-0.870
829,-1.500,-0.870
830,-1.595,-0.875
831,-1.695,-0.875
832,-1.755,-0.885
833,-1.800,-0.885
834,-1.830,-0.890
835,-1.865,-0.890
836,-1.905,-0.925
837,-1.930,-0.935
838,-1.915,-0.935
839,-1.865,-0.935
840,-1.800,-0.960
841,-1.765,-0.990
842,-1.730,-1.050
843,-1.680,-1.060
844,-1.580,-1.090
845,-1.465,-1.075
846,-1.335,-1.075
847,-1.235,-1.085
848,-1.105,-1.090
849,-1.010,-1.050
850,-0.930,-1.000
851,-0.875,-0.960
852,-0.830,-0.900
853,-0.775,-0.875
854,-0.725,-0.855
855,-0.680,-0.805
856,-0.605,-0.750
857,-0.520,-0.680
858,-0.435,-0.635
859,-0.370,-0.575
860,-0.315,-0.525
861,-0.275,-0.475
862,-0.210,-0.390
863,-0.150,-0.320
864,-0.085,-0.270
865,-0.050,-0.210
866,-0.020,-0.170
867,-0.005,-0.125
868,0.015,-0.070
869,0.040,-0.015
870,0.055,0.015
871,0.070,0.025
872,0.075,0.045
873,0.075,0.065
874,0.085,0.100
875,0.115,0.135
876,0.125,0.150
877,0.125,0.140
878,0.130,0.145
879,0.110,0.150
880,0.110,0.175
881,0.135,0.205
882,0.140,0.215
883,0.155,0.205
884,0.160,0.195
885,0.160,0.205
886,0.180,0.215
887,0.220,0.235
888,0.235,0.235
889,0.255,0.235
890,0.255,0.235
891,0.265,0.240
892,0.285,0.250
893,0.315,0.260
894,0.345,0.260
895,0.350,0.245
896,0.365,0.235
897,0.350,0.235
898,0.350,0.250
899,0.385,0.265
900,0.420,0.270
901,0.425,0.270
902,0.430,0.260
903,0.420,0.260
904,0.440,0.280
905,0.480,0.295
906,0.500,0.300
907,0.515,0.295
908,0.515,0.295
909,0.515,0.315
910,0.530,0.320
911,0.565,0.345
912,0.600,0.345
913,0.620,0.340
914,0.635,0.335
915,0.645,0.350
916,0.655,0.370
917,0.675,0.395
918,0.710,0.395
919,0.725,0.385
920,0.715,0.390
921,0.720,0.400
922,0.745,0.425
923,0.770,0.440
924,0.800,0.445
925,0.830,0.445
926,0.840,0.440
927,0.845,0.445
928,0.870,0.470
929,0.890,0.495
930,0.915,0.515
931,0.920,0.505
932,0.895,0.505
933,0.905,0.520
934,0.905,0.530
935,0.930,0.540
936,0.935,0.560
937,0.905,0.560
938,0.900,0.545
939,0.860,0.545
940,0.855,0.560
941,0.850,0.575
942,0.845,0.575
943,0.825,0.570
944,0.800,0.560
945,0.775,0.570
946,0.770,0.575
947,0.755,0.575
948,0.750,0.575
949,0.720,0.560
950,0.655,0.545
951,0.615,0.560
952,0.565,0.540
953,0.555,0.545
954,0.530,0.525
955,0.480,0.500
956,0.430,0.475
957,0.375,0.455
958,0.345,0.450
959,0.310,0.460
960,0.260,0.435
961,0.235,0.410
962,0.185,0.365
963,0.155,0.370
964,0.135,0.360
965,0.120,0.350
966,0.115,0.335
967,0.075,0.305
968,0.045,0.270
969,0.020,0.250
970,0.005,0.250
971,0.005,0.255
972,0.000,0.250
973,-0.025,0.235
974,-0.050,0.205
975,-0.090,0.200
976,-0.085,0.200
977,-0.090,0.200
978,-0.085,0.195
979,-0.095,0.175
980,-0.110,0.150
981,-0.130,0.150
982,-0.130,0.150
983,-0.130,0.170
984,-0.115,0.165
985,-0.115,0.150
986,-0.125,0.125
987,-0.145,0.120
988,-0.160,0.140
989,-0.130,0.155
990,-0.125,0.145
991,-0.145,0.120
992,-0.165,0.105
993,-0.175,0.110
994,-0.180,0.105
995,-0.165,0.115
996,-0.145,0.110
997,-0.160,0.100
998,-0.200,0.095
999,-0.195,0.105
1000,-0.190,0.120
1001,-0.180,0.125
1002,-0.175,0.120
1003,-0.180,0.105
1004,-0.190,0.105
1005,-0.165,0.130
1006,-0.170,0.140
1007,-0.160,0.130
1008,-0.140,0.135
1009,-0.160,0.110
1010,-0.175,0.105
1011,-0.175,0.120
1012,-0.195,0.140
1013,-0.160,0.135
1014,-0.165,0.125
1015,-0.180,0.125
1016,-0.175,0.115
1017,-0.175,0.130
1018,-0.170,0.140
1019,-0.170,0.145
1020,-0.175,0.125
1021,-0.185,0.120
1022,-0.210,0.115
1023,-0.205,0.125
1024,-0.185,0.135
1025,-0.180,0.135
1026,-0.190,0.140
1027,-0.215,0.125
1028,-0.210,0.120
1029,-0.220,0.135
1030,-0.200,0.145
1031,-0.200,0.140
1032,-0.220,0.115
1033,-0.225,0.115
1034,-0.215,0.110
1035,-0.245,0.125
1036,-0.225,0.140
1037,-0.210,0.135
1038,-0.235,0.125
1039,-0.240,0.120
1040,-0.245,0.110
1041,-0.245,0.105
1042,-0.225,0.120
1043,-0.230,0.115
1044,-0.230,0.105
1045,-0.255,0.085
1046,-0.250,0.085
1047,-0.250,0.105
1048,-0.235,0.110
1049,-0.255,0.100
1050,-0.250,0.080
1051,-0.285,0.060
1052,-0.295,0.050
1053,-0.315,0.055
1054,-0.315,0.060
1055,-0.290,0.070
1056,-0.290,0.055
1057,-0.310,0.060
1058,-0.305,0.045
1059,-0.285,0.070
1060,-0.250,0.080
1061,-0.245,0.080
1062,-0.245,0.070
1063,-0.260,0.055
1064,-0.270,0.055
1065,-0.265,0.055
1066,-0.240,0.090
1067,-0.220,0.080
1068,-0.245,0.075
1069,-0.255,0.070
1070,-0.260,0.065
1071,-0.250,0.090
1072,-0.235,0.095
1073,-0.230,0.105
1074,-0.215,0.085
1075,-0.235,0.085
1076,-0.245,0.075
1077,-0.230,0.090
1078,-0.235,0.095
1079,-0.225,0.110
1080,-0.230,0.100
1081,-0.245,0.085
1082,-0.250,0.090
1083,-0.245,0.095
1084,-0.240,0.110
1085,-0.220,0.110
1086,-0.230,0.100
1087,-0.245,0.095
1088,-0.260,0.090
1089,-0.255,0.105
1090,-0.245,0.110
1091,-0.235,0.110
1092,-0.255,0.095
1093,-0.255,0.075
1094,-0.270,0.070
1095,-0.270,0.070
1096,-0.250,0.095
1097,-0.235,0.080
1098,-0.245,0.070
1099,-0.260,0.050
1100,-0.275,0.050
1101,-0.270,0.035
1102,-0.250,0.050
1103,-0.235,0.040
1104,-0.235,0.030
1105,-0.235,0.010
1106,-0.255,0.010
1107,-0.260,0.020
1108,-0.245,0.030
1109,-0.230,0.025
1110,-0.230,0.005
1111,-0.235,-0.015
1112,-0.230,-0.005
1113,-0.200,0.005
1114,-0.160,0.000
1115,-0.120,0.005
1116,-0.090,-0.025
1117,-0.070,-0.030
1118,-0.010,-0.045
1119,0.150,-0.035
1120,0.480,-0.010
1121,0.955,-0.030
1122,1.355,-0.070
1123,1.470,-0.120
1124,1.285,-0.180
1125,1.065,-0.275
1126,0.940,-0.445
1127,0.880,-0.740
1128,0.810,-1.055
1129,0.745,-1.205
1130,0.640,-1.185
1131,0.565,-1.065
1132,0.500,-0.970
1133,0.425,-0.940
1134,0.335,-0.930
1135,0.220,-0.915
1136,0.110,-0.895
1137,0.020,-0.845
1138,-0.085,-0.820
1139,-0.205,-0.830
1140,-0.335,-0.820
1141,-0.470,-0.840
1142,-0.610,-0.840
1143,-0.755,-0.840
1144,-0.900,-0.825
1145,-1.050,-0.835
1146,-1.215,-0.860
1147,-1.350,-0.865
1148,-1.465,-0.875
1149,-1.560,-0.855
1150,-1.620,-0.875
1151,-1.690,-0.875
1152,-1.780,-0.910
1153,-1.835,-0.955
1154,-1.860,-0.960
1155,-1.885,-0.970
1156,-1.875,-0.955
1157,-1.865,-0.960
1158,-1.855,-0.985
1159,-1.815,-1.050
1160,-1.800,-1.080
1161,-1.755,-1.105
1162,-1.700,-1.100
1163,-1.580,-1.110
1164,-1.460,-1.140
1165,-1.360,-1.145
1166,-1.235,-1.125
1167,-1.105,-1.090
1168,-0.980,-1.045
1169,-0.895,-1.000
1170,-0.885,-0.990
1171,-0.900,-0.990
1172,-0.870,-0.970
1173,-0.815,-0.920
1174,-0.720,-0.860
1175,-0.630,-0.815
1176,-0.545,-0.785
1177,-0.495,-0.725
1178,-0.460,-0.675
1179,-0.390,-0.620
1180,-0.320,-0.540
1181,-0.250,-0.475
1182,-0.195,-0.420
1183,-0.150,-0.380
1184,-0.115,-0.320
1185,-0.065,-0.235
1186,-0.020,-0.175
1187,0.025,-0.125
1188,0.050,-0.090
1189,0.050,-0.055
1190,0.045,-0.010
1191,0.070,0.040
1192,0.100,0.075
1193,0.120,0.095
1194,0.125,0.115
1195,0.135,0.125
1196,0.130,0.130
1197,0.140,0.145
1198,0.155,0.165
1199,0.175,0.175
1200,0.175,0.170
1201,0.170,0.175
1202,0.170,0.190
1203,0.180,0.195
1204,0.200,0.220
1205,0.215,0.220
1206,0.220,0.210
1207,0.215,0.215
1208,0.200,0.200
1209,0.215,0.225
1210,0.245,0.240
1211,0.255,0.245
1212,0.255,0.225
1213,0.275,0.220
1214,0.275,0.230
1215,0.285,0.265
1216,0.305,0.280
1217,0.335,0.280
1218,0.345,0.280
1219,0.350,0.280
1220,0.360,0.290
1221,0.380,0.285
1222,0.410,0.315
1223,0.440,0.320
1224,0.450,0.310
1225,0.455,0.315
1226,0.475,0.335
1227,0.505,0.355
1228,0.540,0.365
1229,0.570,0.380
1230,0.565,0.380
1231,0.575,0.355
1232,0.590,0.375
1233,0.610,0.395
1234,0.655,0.405
1235,0.675,0.415
1236,0.700,0.425
1237,0.700,0.410
1238,0.705,0.420
1239,0.715,0.450
1240,0.760,0.470
1241,0.785,0.475
1242,0.810,0.480
1243,0.805,0.475
1244,0.810,0.480
1245,0.815,0.500
1246,0.845,0.520
1247,0.885,0.515
1248,0.885,0.515
1249,0.890,0.510
1250,0.900,0.520
1251,0.890,0.530
1252,0.910,0.550
1253,0.920,0.550
1254,0.915,0.545
1255,0.905,0.550
1256,0.890,0.550
1257,0.885,0.575
1258,0.885,0.595
1259,0.880,0.605
1260,0.865,0.600
1261,0.835,0.595
1262,0.815,0.595
1263,0.810,0.605
1264,0.790,0.610
1265,0.775,0.615
1266,0.740,0.595
1267,0.680,0.580
1268,0.650,0.570
1269,0.620,0.590
1270,0.600,0.605
1271,0.575,0.590
1272,0.515,0.565
1273,0.475,0.535
1274,0.430,0.510
1275,0.395,0.505
1276,0.380,0.505
1277,0.340,0.485
1278,0.300,0.455
1279,0.265,0.430
1280,0.220,0.410
1281,0.195,0.410
1282,0.170,0.410
1283,0.165,0.385
1284,0.135,0.360
1285,0.080,0.330
1286,0.035,0.305
1287,0.015,0.300
1288,0.015,0.300
1289,0.020,0.280
1290,-0.010,0.260
1291,-0.020,0.225
1292,-0.040,0.215
1293,-0.040,0.215
1294,-0.050,0.215
1295,-0.050,0.195
1296,-0.080,0.175
1297,-0.100,0.155
1298,-0.120,0.160
1299,-0.120,0.160
1300,-0.105,0.175
1301,-0.105,0.165
1302,-0.125,0.140
1303,-0.150,0.140
1304,-0.150,0.135
1305,-0.140,0.145
1306,-0.125,0.155
1307,-0.105,0.150
1308,-0.110,0.135
1309,-0.130,0.110
1310,-0.140,0.120
1311,-0.150,0.130
1312,-0.160,0.155
1313,-0.140,0.155
1314,-0.135,0.125
1315,-0.145,0.130
1316,-0.150,0.130
1317,-0.140,0.130
1318,-0.135,0.160
1319,-0.110,0.155
1320,-0.105,0.145
1321,-0.135,0.130
1322,-0.140,0.135
1323,-0.140,0.140
1324,-0.130,0.160
1325,-0.100,0.150
1326,-0.110,0.135
1327,-0.130,0.130
1328,-0.140,0.135
1329,-0.145,0.150
1330,-0.130,0.165
1331,-0.120,0.165
1332,-0.135,0.140
1333,-0.150,0.135
1334,-0.165,0.130
1335,-0.160,0.150
1336,-0.160,0.160
1337,-0.140,0.155
1338,-0.155,0.140
1339,-0.150,0.120
1340,-0.175,0.120
1341,-0.160,0.115
1342,-0.155,0.145
1343,-0.145,0.140
1344,-0.170,0.130
1345,-0.170,0.120
1346,-0.170,0.110
1347,-0.180,0.120
1348,-0.170,0.130
1349,-0.145,0.120
1350,-0.165,0.105
1351,-0.170,0.095
1352,-0.195,0.095
1353,-0.200,0.095
1354,-0.200,0.110
1355,-0.195,0.115
1356,-0.205,0.095
1357,-0.235,0.085
1358,-0.250,0.090
1359,-0.240,0.095
1360,-0.220,0.110
1361,-0.205,0.105
1362,-0.200,0.105
1363,-0.210,0.080
1364,-0.230,0.075
1365,-0.205,0.090
1366,-0.180,0.105
1367,-0.155,0.090
1368,-0.170,0.090
1369,-0.185,0.075
1370,-0.200,0.090
1371,-0.210,0.105
1372,-0.205,0.110
1373,-0.200,0.125
1374,-0.190,0.125
1375,-0.195,0.105
1376,-0.205,0.100
1377,-0.200,0.110
1378,-0.180,0.120
1379,-0.170,0.110
1380,-0.160,0.100
1381,-0.175,0.075
1382,-0.185,0.070
1383,-0.185,0.085
1384,-0.185,0.090
1385,-0.165,0.080
1386,-0.185,0.065
1387,-0.205,0.050
1388,-0.215,0.045
1389,-0.205,0.055
1390,-0.185,0.065
1391,-0.180,0.080
1392,-0.170,0.065
1393,-0.200,0.060
1394,-0.215,0.075
1395,-0.210,0.075
1396,-0.205,0.100
1397,-0.190,0.105
1398,-0.200,0.095
1399,-0.215,0.070
1400,-0.215,0.065
1401,-0.220,0.080
1402,-0.220,0.080
1403,-0.215,0.070
1404,-0.225,0.055
1405,-0.235,0.030
1406,-0.240,0.030
1407,-0.240,0.045
1408,-0.225,0.060
1409,-0.205,0.045
1410,-0.195,0.045
1411,-0.215,0.015
1412,-0.210,0.015
1413,-0.205,0.025
1414,-0.185,0.045
1415,-0.175,0.035
1416,-0.175,0.010
1417,-0.175,0.005
1418,-0.170,0.005
1419,-0.170,-0.005
1420,-0.145,0.020
1421,-0.125,0.020
1422,-0.100,0.000
1423,-0.105,-0.010
1424,-0.080,-0.015
1425,-0.035,-0.015
1426,0.050,-0.010
1427,0.220,-0.015
1428,0.555,-0.030
1429,0.985,-0.050
1430,1.340,-0.065
1431,1.415,-0.095
1432,1.260,-0.160
1433,1.050,-0.260
1434,0.915,-0.455
1435,0.830,-0.750
1436,0.755,-1.025
1437,0.690,-1.130
1438,0.600,-1.080
1439,0.535,-0.975
1440,0.440,-0.920
1441,0.315,-0.905
1442,0.195,-0.895
1443,0.080,-0.865
1444,-0.020,-0.840
1445,-0.150,-0.835
1446,-0.295,-0.850
1447,-0.470,-0.860
1448,-0.610,-0.865
1449,-0.755,-0.870
1450,-0.905,-0.865
1451,-1.065,-0.880
1452,-1.190,-0.895
1453,-1.330,-0.905
1454,-1.440,-0.915
1455,-1.520,-0.900
1456,-1.575,-0.880
1457,-1.640,-0.885
1458,-1.700,-0.900
1459,-1.750,-0.930
1460,-1.785,-0.920
1461,-1.760,-0.905
1462,-1.700,-0.890
1463,-1.640,-0.895
1464,-1.580,-0.915
1465,-1.515,-0.940
1466,-1.445,-0.945
1467,-1.370,-0.950
1468,-1.285,-0.955
1469,-1.210,-0.960
1470,-1.155,-0.980
1471,-1.050,-1.000
1472,-0.970,-0.975
1473,-0.855,-0.935
1474,-0.735,-0.890
1475,-0.615,-0.865
1476,-0.515,-0.850
1477,-0.440,-0.835
1478,-0.360,-0.800
1479,-0.250,-0.755
1480,-0.140,-0.680
1481,-0.065,-0.630
1482,-0.045,-0.545
1483,-0.025,-0.470
1484,-0.025,-0.375
1485,-0.005,-0.280
1486,0.010,-0.185
1487,0.035,-0.140
1488,0.035,-0.090
1489,0.025,-0.090
1490,0.020,-0.065
1491,0.025,-0.030
1492,0.035,-0.005
1493,0.040,0.005
1494,0.035,0.020
1495,0.045,0.025
1496,0.025,0.040
1497,0.030,0.070
1498,0.040,0.085
1499,0.060,0.095
1500,0.060,0.085
1501,0.045,0.090
1502,0.035,0.100
1503,0.065,0.125
1504,0.075,0.140
1505,0.095,0.155
1506,0.105,0.150
1507,0.085,0.165
1508,0.095,0.170
1509,0.100,0.175
1510,0.125,0.195
1511,0.130,0.200
1512,0.150,0.190
1513,0.140,0.195
1514,0.140,0.210
1515,0.130,0.215
1516,0.160,0.230
1517,0.175,0.225
1518,0.175,0.205
1519,0.185,0.190
1520,0.180,0.205
1521,0.195,0.220
1522,0.205,0.225
1523,0.230,0.215
1524,0.230,0.200
1525,0.210,0.200
1526,0.210,0.210
1527,0.240,0.220
1528,0.260,0.240
1529,0.290,0.240
1530,0.275,0.235
1531,0.300,0.220
1532,0.295,0.225
1533,0.320,0.250
1534,0.345,0.250
1535,0.380,0.255
1536,0.390,0.255
1537,0.370,0.250
1538,0.385,0.270
1539,0.410,0.280
1540,0.430,0.300
1541,0.475,0.300
1542,0.485,0.290
1543,0.500,0.285
1544,0.495,0.270
1545,0.500,0.295
1546,0.525,0.320
1547,0.535,0.320
1548,0.550,0.335
1549,0.545,0.325
1550,0.535,0.345
1551,0.560,0.355
1552,0.590,0.380
1553,0.600,0.395
1554,0.590,0.400
1555,0.585,0.400
1556,0.575,0.410
1557,0.570,0.435
1558,0.570,0.450
1559,0.585,0.445
1560,0.560,0.440
1561,0.520,0.430
1562,0.500,0.430
1563,0.485,0.440
1564,0.465,0.450
1565,0.455,0.445
1566,0.430,0.450
1567,0.395,0.425
1568,0.350,0.425
1569,0.330,0.425
1570,0.310,0.430
1571,0.300,0.415
1572,0.260,0.400
1573,0.210,0.375
1574,0.175,0.370
1575,0.150,0.365
1576,0.115,0.370
1577,0.115,0.355
1578,0.090,0.335
1579,0.050,0.315
1580,0.015,0.290
1581,0.000,0.295
1582,-0.005,0.280
1583,-0.005,0.280
1584,-0.015,0.260
1585,-0.040,0.245
1586,-0.075,0.230
1587,-0.075,0.230
1588,-0.090,0.220
1589,-0.100,0.205
1590,-0.125,0.190
1591,-0.145,0.165
1592,-0.170,0.155
1593,-0.165,0.170
1594,-0.155,0.170
1595,-0.145,0.160
1596,-0.145,0.160
1597,-0.160,0.150
1598,-0.180,0.175
1599,-0.175,0.175
1600,-0.175,0.200
1601,-0.155,0.200
1602,-0.175,0.180
1603,-0.200,0.180
1604,-0.195,0.180
1605,-0.200,0.195
1606,-0.170,0.205
1607,-0.165,0.200
1608,-0.180,0.190
1609,-0.200,0.190
1610,-0.220,0.185
1611,-0.215,0.200
1612,-0.210,0.205
1613,-0.200,0.195
1614,-0.195,0.180
1615,-0.195,0.165
1616,-0.210,0.145
1617,-0.205,0.155
1618,-0.195,0.155
1619,-0.210,0.145
1620,-0.205,0.140
1621,-0.210,0.120
1622,-0.215,0.115
1623,-0.220,0.130
1624,-0.205,0.130
1625,-0.185,0.125
1626,-0.185,0.110
1627,-0.190,0.095
1628,-0.195,0.105
1629,-0.200,0.125
1630,-0.190,0.135
1631,-0.200,0.135
1632,-0.215,0.140
1633,-0.210,0.105
1634,-0.230,0.110
1635,-0.250,0.115
1636,-0.235,0.120
1637,-0.235,0.120
1638,-0.230,0.115
1639,-0.235,0.115
1640,-0.255,0.115
1641,-0.250,0.145
1642,-0.230,0.150
1643,-0.225,0.140
1644,-0.230,0.140
1645,-0.230,0.125
1646,-0.245,0.140
1647,-0.245,0.155
1648,-0.250,0.165
1649,-0.235,0.165
1650,-0.235,0.150
1651,-0.255,0.125
1652,-0.260,0.135
1653,-0.270,0.145
1654,-0.255,0.160
1655,-0.235,0.160
1656,-0.255,0.155
1657,-0.260,0.135
1658,-0.270,0.145
1659,-0.250,0.145
1660,-0.235,0.150
1661,-0.230,0.145
1662,-0.245,0.130
1663,-0.265,0.125
1664,-0.290,0.115
1665,-0.290,0.125
1666,-0.265,0.135
1667,-0.270,0.115
1668,-0.270,0.105
1669,-0.260,0.100
1670,-0.260,0.090
1671,-0.260,0.100
1672,-0.250,0.110
1673,-0.225,0.115
1674,-0.245,0.105
1675,-0.265,0.095
1676,-0.285,0.080
1677,-0.275,0.085
1678,-0.270,0.090
1679,-0.250,0.085
1680,-0.275,0.080
1681,-0.285,0.065
1682,-0.295,0.075
1683,-0.300,0.090
1684,-0.280,0.100
1685,-0.280,0.100
1686,-0.285,0.090
1687,-0.295,0.075
1688,-0.300,0.090
1689,-0.305,0.095
1690,-0.305,0.100
1691,-0.300,0.100
1692,-0.305,0.095
1693,-0.310,0.085
1694,-0.320,0.075
1695,-0.325,0.085
1696,-0.310,0.105
1697,-0.290,0.115
1698,-0.300,0.100
1699,-0.300,0.080
1700,-0.290,0.095
1701,-0.290,0.105
1702,-0.285,0.125
1703,-0.265,0.115
1704,-0.280,0.110
1705,-0.285,0.100
1706,-0.290,0.090
1707,-0.300,0.085
1708,-0.295,0.110
1709,-0.300,0.095
1710,-0.310,0.100
1711,-0.335,0.075
1712,-0.330,0.080
1713,-0.320,0.085
1714,-0.305,0.115
1715,-0.275,0.090
1716,-0.270,0.075
1717,-0.285,0.050
1718,-0.280,0.050
1719,-0.285,0.070
1720,-0.285,0.050
1721,-0.275,0.055
1722,-0.260,0.030
1723,-0.260,0.015
1724,-0.245,0.005
1725,-0.235,0.020
1726,-0.210,0.025
1727,-0.175,0.040
1728,-0.125,0.025
1729,-0.055,0.000
1730,0.120,0.005
1731,0.485,0.010
1732,0.985,0.010
1733,1.350,-0.025
1734,1.375,-0.085
1735,1.180,-0.175
1736,0.955,-0.315
1737,0.835,-0.555
1738,0.790,-0.885
1739,0.740,-1.155
1740,0.655,-1.235
1741,0.545,-1.165
1742,0.465,-1.040
1743,0.390,-0.970
1744,0.300,-0.930
1745,0.240,-0.915
1746,0.140,-0.895
1747,0.040,-0.885
1748,-0.070,-0.860
1749,-0.180,-0.860
1750,-0.280,-0.830
1751,-0.360,-0.825
1752,-0.470,-0.840
1753,-0.615,-0.860
1754,-0.730,-0.870
1755,-0.830,-0.855
1756,-0.890,-0.830
1757,-0.880,-0.830
1758,-0.840,-0.840
1759,-0.800,-0.860
1760,-0.775,-0.855
1761,-0.760,-0.845
1762,-0.765,-0.840
1763,-0.775,-0.865
1764,-0.780,-0.895
1765,-0.775,-0.925
1766,-0.740,-0.935
1767,-0.715,-0.940
1768,-0.685,-0.905
1769,-0.690,-0.885
1770,-0.740,-0.880
1771,-0.765,-0.875
1772,-0.735,-0.855
1773,-0.635,-0.825
1774,-0.510,-0.770
1775,-0.400,-0.740
1776,-0.330,-0.685
1777,-0.295,-0.605
1778,-0.295,-0.500
1779,-0.270,-0.410
1780,-0.250,-0.325
1781,-0.220,-0.255
1782,-0.220,-0.180
1783,-0.235,-0.145
1784,-0.240,-0.100
1785,-0.250,-0.050
1786,-0.245,-0.020
1787,-0.230,-0.005
1788,-0.230,-0.005
1789,-0.240,-0.010
1790,-0.260,0.000
1791,-0.255,0.030
1792,-0.235,0.055
1793,-0.220,0.065
1794,-0.225,0.060
1795,-0.240,0.045
1796,-0.260,0.045
1797,-0.260,0.065
1798,-0.260,0.095
1799,-0.250,0.080
1800,-0.270,0.095
1801,-0.270,0.085
1802,-0.280,0.080
1803,-0.270,0.105
1804,-0.260,0.125
1805,-0.245,0.120
1806,-0.255,0.125
1807,-0.265,0.105
1808,-0.285,0.115
1809,-0.280,0.125
1810,-0.285,0.140
1811,-0.270,0.135
1812,-0.270,0.135
1813,-0.315,0.125
1814,-0.325,0.150
1815,-0.325,0.170
1816,-0.295,0.180
1817,-0.280,0.185
1818,-0.285,0.165
1819,-0.275,0.165
1820,-0.270,0.160
1821,-0.270,0.185
1822,-0.270,0.200
1823,-0.255,0.200
1824,-0.255,0.190
1825,-0.265,0.170
1826,-0.275,0.185
1827,-0.265,0.205
1828,-0.240,0.225
1829,-0.225,0.220
1830,-0.235,0.215
1831,-0.245,0.195
1832,-0.245,0.200
1833,-0.235,0.220
1834,-0.225,0.225
1835,-0.210,0.225
1836,-0.210,0.230
1837,-0.220,0.215
1838,-0.225,0.215
1839,-0.205,0.225
1840,-0.180,0.245
1841,-0.170,0.245
1842,-0.180,0.245
1843,-0.195,0.220
1844,-0.220,0.225
1845,-0.205,0.230
1846,-0.205,0.225
1847,-0.195,0.240
1848,-0.205,0.235
1849,-0.225,0.230
1850,-0.245,0.240
1851,-0.255,0.260
1852,-0.265,0.275
1853,-0.270,0.260
1854,-0.285,0.250
1855,-0.315,0.240
1856,-0.320,0.255
1857,-0.330,0.265
1858,-0.340,0.280
1859,-0.345,0.285
1860,-0.355,0.285
1861,-0.395,0.285
1862,-0.420,0.280
1863,-0.435,0.290
1864,-0.440,0.310
1865,-0.445,0.305
1866,-0.455,0.305
1867,-0.490,0.280
1868,-0.480,0.270
1869,-0.470,0.285
1870,-0.470,0.275
1871,-0.445,0.285
1872,-0.445,0.270
1873,-0.445,0.245
1874,-0.445,0.250
1875,-0.435,0.255
1876,-0.410,0.270
1877,-0.380,0.265
1878,-0.390,0.250
1879,-0.400,0.235
1880,-0.405,0.220
1881,-0.400,0.220
1882,-0.380,0.230
1883,-0.340,0.200
1884,-0.350,0.185
1885,-0.355,0.185
1886,-0.360,0.210
1887,-0.360,0.225
1888,-0.370,0.235
1889,-0.355,0.230
1890,-0.370,0.210
1891,-0.380,0.205
1892,-0.390,0.205
1893,-0.395,0.215
1894,-0.380,0.225
1895,-0.380,0.205
1896,-0.395,0.160
1897,-0.415,0.150
1898,-0.425,0.155
1899,-0.425,0.170
1900,-0.430,0.155
1901,-0.405,0.160
1902,-0.415,0.150
1903,-0.420,0.160
1904,-0.435,0.160
1905,-0.435,0.180
1906,-0.405,0.180
1907,-0.410,0.190
1908,-0.435,0.165
1909,-0.450,0.175
1910,-0.465,0.170
1911,-0.460,0.190
1912,-0.450,0.195
1913,-0.455,0.205
1914,-0.450,0.185
1915,-0.455,0.175
1916,-0.460,0.185
1917,-0.445,0.190
1918,-0.420,0.195
1919,-0.405,0.190
1920,-0.390,0.200
1921,-0.390,0.170
1922,-0.390,0.180
1923,-0.390,0.205
1924,-0.375,0.210
1925,-0.350,0.210
1926,-0.360,0.190
1927,-0.370,0.170
1928,-0.370,0.175
1929,-0.375,0.190
1930,-0.355,0.210
1931,-0.365,0.185
1932,-0.365,0.170
1933,-0.375,0.145
1934,-0.380,0.155
1935,-0.370,0.165
1936,-0.360,0.175
1937,-0.360,0.180
1938,-0.390,0.165
1939,-0.415,0.150
1940,-0.405,0.165
1941,-0.405,0.180
1942,-0.380,0.195
1943,-0.355,0.185
1944,-0.360,0.170
1945,-0.370,0.150
1946,-0.380,0.160
1947,-0.385,0.175
1948,-0.385,0.200
1949,-0.380,0.200
1950,-0.395,0.180
1951,-0.420,0.165
1952,-0.440,0.185
1953,-0.430,0.195
1954,-0.420,0.205
1955,-0.435,0.205
1956,-0.430,0.190
1957,-0.455,0.180
1958,-0.475,0.180
1959,-0.475,0.190
1960,-0.450,0.195
1961,-0.430,0.195
1962,-0.430,0.195
1963,-0.435,0.190
1964,-0.455,0.185
1965,-0.430,0.195
1966,-0.420,0.220
1967,-0.390,0.195
1968,-0.380,0.200
1969,-0.390,0.165
1970,-0.400,0.160
1971,-0.400,0.160
1972,-0.395,0.165
1973,-0.405,0.170
1974,-0.410,0.170
1975,-0.430,0.170
1976,-0.435,0.170
1977,-0.425,0.175
1978,-0.390,0.195
1979,-0.380,0.170
1980,-0.395,0.160
1981,-0.400,0.150
1982,-0.420,0.165
1983,-0.420,0.160
1984,-0.405,0.175
1985,-0.405,0.155
1986,-0.430,0.140
1987,-0.455,0.135
1988,-0.445,0.140
1989,-0.440,0.150
1990,-0.410,0.180
1991,-0.405,0.155
1992,-0.395,0.155
1993,-0.410,0.135
1994,-0.425,0.140
1995,-0.415,0.140
1996,-0.415,0.180
1997,-0.425,0.170
1998,-0.425,0.150
1999,-0.450,0.125
2000,-0.475,0.145
2001,-0.475,0.150
2002,-0.455,0.175
2003,-0.445,0.160
2004,-0.445,0.140
2005,-0.460,0.125
2006,-0.455,0.115
2007,-0.450,0.120
2008,-0.440,0.130
2009,-0.430,0.140
2010,-0.430,0.145
2011,-0.440,0.130
2012,-0.455,0.125
2013,-0.465,0.125
2014,-0.430,0.145
2015,-0.410,0.140
2016,-0.400,0.130
2017,-0.390,0.105
2018,-0.370,0.110
2019,-0.340,0.125
2020,-0.285,0.140
2021,-0.205,0.140
2022,-0.060,0.135
2023,0.250,0.120
2024,0.745,0.125
2025,1.190,0.125
2026,1.305,0.110
2027,1.100,0.035
2028,0.835,-0.150
2029,0.680,-0.410
2030,0.585,-0.800
2031,0.520,-1.155
2032,0.415,-1.265
2033,0.315,-1.130
2034,0.225,-0.950
2035,0.120,-0.870
2036,0.000,-0.845
2037,-0.115,-0.805
2038,-0.235,-0.765
2039,-0.380,-0.755
2040,-0.520,-0.765
2041,-0.660,-0.760
2042,-0.805,-0.760
2043,-0.935,-0.760
2044,-1.090,-0.750
2045,-1.260,-0.755
2046,-1.420,-0.770
2047,-1.585,-0.790
2048,-1.685,-0.790
2049,-1.760,-0.765
2050,-1.820,-0.760
2051,-1.885,-0.780
2052,-1.975,-0.805
2053,-2.020,-0.845
2054,-2.060,-0.855
2055,-2.060,-0.840
2056,-2.060,-0.825
2057,-2.045,-0.840
2058,-2.025,-0.885
2059,-1.995,-0.915
2060,-1.995,-0.960
2061,-1.920,-0.985
2062,-1.825,-0.995
2063,-1.695,-1.010
2064,-1.560,-1.035
2065,-1.435,-1.025
2066,-1.350,-1.010
2067,-1.250,-0.950
2068,-1.200,-0.910
2069,-1.165,-0.860
2070,-1.155,-0.840
2071,-1.125,-0.820
2072,-1.090,-0.770
2073,-1.030,-0.710
2074,-0.950,-0.640
2075,-0.870,-0.585
2076,-0.815,-0.520
2077,-0.740,-0.475
2078,-0.690,-0.410
2079,-0.615,-0.340
2080,-0.530,-0.250
2081,-0.445,-0.185
2082,-0.395,-0.115
2083,-0.365,-0.080
2084,-0.355,-0.005
2085,-0.320,0.060
2086,-0.290,0.130
2087,-0.270,0.170
2088,-0.260,0.175
2089,-0.250,0.195
2090,-0.240,0.240
2091,-0.235,0.285
2092,-0.220,0.320
2093,-0.210,0.335
2094,-0.205,0.350
2095,-0.210,0.350
2096,-0.185,0.360
2097,-0.170,0.385
2098,-0.145,0.405
2099,-0.125,0.385
2100,-0.090,0.395
2101,-0.080,0.375
2102,-0.065,0.390
2103,-0.055,0.400
2104,-0.035,0.430
2105,-0.010,0.420
2106,0.000,0.400
2107,0.005,0.395
2108,-0.005,0.410
2109,0.015,0.425
2110,0.030,0.430
2111,0.045,0.430
2112,0.060,0.425
2113,0.065,0.425
2114,0.080,0.425
2115,0.085,0.445
2116,0.085,0.465
2117,0.100,0.475
2118,0.110,0.465
2119,0.110,0.450
2120,0.105,0.455
2121,0.135,0.465
2122,0.165,0.495
2123,0.200,0.505
2124,0.235,0.490
2125,0.260,0.490
2126,0.265,0.505
2127,0.295,0.515
2128,0.330,0.540
2129,0.355,0.545
2130,0.355,0.540
2131,0.360,0.540
2132,0.380,0.545
2133,0.400,0.570
2134,0.425,0.585
2135,0.430,0.600
2136,0.460,0.595
2137,0.470,0.590
2138,0.495,0.605
2139,0.525,0.635
2140,0.555,0.660
2141,0.600,0.645
2142,0.610,0.645
2143,0.620,0.645
2144,0.650,0.675
2145,0.670,0.710
2146,0.710,0.725
2147,0.725,0.735
2148,0.720,0.735
2149,0.710,0.715
2150,0.690,0.735
2151,0.700,0.735
2152,0.700,0.750
2153,0.720,0.730
2154,0.695,0.720
2155,0.680,0.705
2156,0.650,0.705
2157,0.640,0.730
2158,0.620,0.740
2159,0.595,0.750
2160,0.545,0.715
2161,0.490,0.685
2162,0.435,0.685
2163,0.405,0.685
2164,0.390,0.690
2165,0.365,0.680
2166,0.320,0.635
2167,0.265,0.620
2168,0.200,0.605
2169,0.150,0.595
2170,0.120,0.595
2171,0.090,0.570
2172,0.055,0.540
2173,0.000,0.505
2174,-0.030,0.505
2175,-0.075,0.505
2176,-0.105,0.505
2177,-0.145,0.465
2178,-0.190,0.435
2179,-0.225,0.395
2180,-0.265,0.385
2181,-0.265,0.385
2182,-0.295,0.400
2183,-0.300,0.385
2184,-0.325,0.360
2185,-0.325,0.345
2186,-0.355,0.355
2187,-0.355,0.340
2188,-0.345,0.365
2189,-0.330,0.345
2190,-0.330,0.335
2191,-0.330,0.310
2192,-0.350,0.320
2193,-0.355,0.320
2194,-0.345,0.345
2195,-0.350,0.330
2196,-0.350,0.295
2197,-0.345,0.280
2198,-0.355,0.270
2199,-0.380,0.280
2200,-0.360,0.280
2201,-0.345,0.295
2202,-0.335,0.285
2203,-0.345,0.265
2204,-0.350,0.250
2205,-0.360,0.265
2206,-0.345,0.275
2207,-0.335,0.265
2208,-0.330,0.255
2209,-0.345,0.235
2210,-0.355,0.230
2211,-0.360,0.240
2212,-0.345,0.260
2213,-0.340,0.250
2214,-0.345,0.245
2215,-0.350,0.240
2216,-0.370,0.245
2217,-0.375,0.260
2218,-0.360,0.280
2219,-0.355,0.265
2220,-0.350,0.255
2221,-0.360,0.255
2222,-0.380,0.250
2223,-0.385,0.265
2224,-0.375,0.265
2225,-0.380,0.255
2226,-0.390,0.250
2227,-0.400,0.235
2228,-0.420,0.245
2229,-0.430,0.250
2230,-0.420,0.265
2231,-0.420,0.255
2232,-0.430,0.240
2233,-0.450,0.250
2234,-0.450,0.245
2235,-0.440,0.265
2236,-0.415,0.275
2237,-0.375,0.280
2238,-0.370,0.270
2239,-0.365,0.265
2240,-0.395,0.245
2241,-0.410,0.260
2242,-0.405,0.260
2243,-0.410,0.235
2244,-0.420,0.215
2245,-0.435,0.200
2246,-0.425,0.185
2247,-0.400,0.195
2248,-0.390,0.230
2249,-0.370,0.215
2250,-0.370,0.210
2251,-0.390,0.215
2252,-0.420,0.210
2253,-0.435,0.210
2254,-0.425,0.215
2255,-0.415,0.195
2256,-0.420,0.180
2257,-0.430,0.160
2258,-0.445,0.165
2259,-0.425,0.180
2260,-0.415,0.195
2261,-0.405,0.190
2262,-0.420,0.180
2263,-0.415,0.165
2264,-0.415,0.155
2265,-0.425,0.180
2266,-0.415,0.180
2267,-0.395,0.190
2268,-0.405,0.175
2269,-0.425,0.160
2270,-0.435,0.165
2271,-0.445,0.190
2272,-0.455,0.190
2273,-0.450,0.195
2274,-0.440,0.175
2275,-0.445,0.180
2276,-0.465,0.175
2277,-0.460,0.195
2278,-0.450,0.200
2279,-0.425,0.205
2280,-0.420,0.180
2281,-0.430,0.165
2282,-0.440,0.180
2283,-0.425,0.190
2284,-0.415,0.205
2285,-0.395,0.210
2286,-0.390,0.195
2287,-0.400,0.185
2288,-0.400,0.170
2289,-0.415,0.165
2290,-0.415,0.170
2291,-0.395,0.155
2292,-0.410,0.155
2293,-0.405,0.130
2294,-0.405,0.135
2295,-0.395,0.145
2296,-0.390,0.150
2297,-0.375,0.135
2298,-0.380,0.120
2299,-0.405,0.100
2300,-0.405,0.110
2301,-0.390,0.120
2302,-0.390,0.115
2303,-0.380,0.105
2304,-0.400,0.100
2305,-0.385,0.095
2306,-0.395,0.095
2307,-0.370,0.105
2308,-0.360,0.125
2309,-0.335,0.115
2310,-0.340,0.095
2311,-0.315,0.075
2312,-0.295,0.070
2313,-0.200,0.075
2314,-0.005,0.080
2315,0.375,0.075
2316,0.895,0.060
2317,1.310,0.015
2318,1.350,-0.050
2319,1.100,-0.110
2320,0.850,-0.305
2321,0.720,-0.620
2322,0.645,-1.025
2323,0.550,-1.260
2324,0.430,-1.220
2325,0.310,-1.050
2326,0.200,-0.910
2327,0.085,-0.885
2328,-0.065,-0.875
2329,-0.190,-0.850
2330,-0.310,-0.820
2331,-0.410,-0.780
2332,-0.535,-0.765
2333,-0.660,-0.775
2334,-0.810,-0.795
2335,-0.990,-0.820
2336,-1.165,-0.850
2337,-1.315,-0.845
2338,-1.450,-0.845
2339,-1.545,-0.850
2340,-1.640,-0.875
2341,-1.750,-0.890
2342,-1.845,-0.925
2343,-1.920,-0.910
2344,-1.975,-0.910
2345,-2.000,-0.935
2346,-2.035,-0.950
2347,-2.060,-0.980
2348,-2.070,-0.980
2349,-2.035,-0.995
2350,-1.990,-1.000
2351,-1.940,-1.030
2352,-1.900,-1.070
2353,-1.845,-1.115
2354,-1.760,-1.135
2355,-1.615,-1.130
2356,-1.470,-1.110
2357,-1.340,-1.105
2358,-1.225,-1.090
2359,-1.140,-1.065
2360,-1.110,-1.015
2361,-1.075,-0.965
2362,-1.010,-0.915
2363,-0.955,-0.900
2364,-0.920,-0.860
2365,-0.860,-0.825
2366,-0.810,-0.775
2367,-0.735,-0.695
2368,-0.640,-0.640
2369,-0.570,-0.580
2370,-0.505,-0.515
2371,-0.435,-0.455
2372,-0.370,-0.395
2373,-0.325,-0.305
2374,-0.260,-0.235
2375,-0.235,-0.175
2376,-0.205,-0.120
2377,-0.195,-0.070
2378,-0.165,-0.020
2379,-0.115,0.040
2380,-0.090,0.090
2381,-0.080,0.115
2382,-0.080,0.130
2383,-0.075,0.125
2384,-0.060,0.130
2385,-0.020,0.160
2386,0.010,0.175
2387,0.035,0.175
2388,0.050,0.165
2389,0.050,0.155
2390,0.055,0.165
2391,0.065,0.195
2392,0.095,0.220
2393,0.115,0.225
2394,0.110,0.230
2395,0.105,0.220
2396,0.115,0.225
2397,0.120,0.250
2398,0.140,0.260
2399,0.165,0.255
2400,0.170,0.250
2401,0.180,0.240
2402,0.170,0.245
2403,0.190,0.250
2404,0.205,0.270
2405,0.215,0.285
2406,0.220,0.285
2407,0.215,0.290
2408,0.225,0.280
2409,0.255,0.310
2410,0.290,0.320
2411,0.320,0.330
2412,0.340,0.325
2413,0.330,0.300
2414,0.330,0.315
2415,0.345,0.335
2416,0.395,0.350
2417,0.425,0.360
2418,0.435,0.345
2419,0.455,0.335
2420,0.470,0.360
2421,0.490,0.375
2422,0.520,0.400
2423,0.545,0.400
2424,0.555,0.395
2425,0.565,0.390
2426,0.580,0.400
2427,0.615,0.430
2428,0.650,0.440
2429,0.685,0.455
2430,0.700,0.445
2431,0.725,0.435
2432,0.740,0.445
2433,0.760,0.455
2434,0.790,0.475
2435,0.815,0.480
2436,0.825,0.465
2437,0.815,0.450
2438,0.835,0.460
2439,0.855,0.485
2440,0.885,0.505
2441,0.900,0.520
2442,0.880,0.515
2443,0.875,0.505
2444,0.865,0.515
2445,0.865,0.555
2446,0.875,0.575
2447,0.865,0.575
2448,0.830,0.570
2449,0.795,0.555
2450,0.765,0.565
2451,0.740,0.575
2452,0.740,0.575
2453,0.705,0.575
2454,0.665,0.555
2455,0.615,0.555
2456,0.560,0.540
2457,0.555,0.550
2458,0.505,0.560
2459,0.470,0.540
2460,0.410,0.515
2461,0.340,0.485
2462,0.280,0.485
2463,0.245,0.470
2464,0.210,0.470
2465,0.185,0.440
2466,0.140,0.415
2467,0.080,0.365
2468,0.040,0.365
2469,0.005,0.355
2470,-0.025,0.370
2471,-0.045,0.340
2472,-0.070,0.320
2473,-0.090,0.285
2474,-0.130,0.280
2475,-0.150,0.275
2476,-0.170,0.270
2477,-0.210,0.260
2478,-0.220,0.235
2479,-0.250,0.210
2480,-0.280,0.205
2481,-0.270,0.190
2482,-0.260,0.205
2483,-0.260,0.195
2484,-0.255,0.175
2485,-0.275,0.150
2486,-0.295,0.125
2487,-0.290,0.140
2488,-0.290,0.125
2489,-0.300,0.115
2490,-0.295,0.110
2491,-0.305,0.085
2492,-0.305,0.080
2493,-0.300,0.085
2494,-0.300,0.105
2495,-0.305,0.095
2496,-0.300,0.095
2497,-0.310,0.070
2498,-0.310,0.060
2499,-0.295,0.075
2500,-0.280,0.090
2501,-0.270,0.085
2502,-0.275,0.075
2503,-0.290,0.070
2504,-0.320,0.090
2505,-0.305,0.105
2506,-0.300,0.110
2507,-0.285,0.110
2508,-0.300,0.100
2509,-0.305,0.075
2510,-0.310,0.085
2511,-0.300,0.110
2512,-0.280,0.130
2513,-0.280,0.120
2514,-0.275,0.115
2515,-0.305,0.105
2516,-0.315,0.095
2517,-0.305,0.110
2518,-0.295,0.110
2519,-0.290,0.115
2520,-0.320,0.110
2521,-0.325,0.095
2522,-0.340,0.090
2523,-0.330,0.115
2524,-0.310,0.120
2525,-0.320,0.115
2526,-0.320,0.115
2527,-0.350,0.105
2528,-0.340,0.110
2529,-0.345,0.120
2530,-0.330,0.130
2531,-0.315,0.130
2532,-0.335,0.110
2533,-0.355,0.105
2534,-0.370,0.095
2535,-0.350,0.080
2536,-0.355,0.090
2537,-0.365,0.090
2538,-0.380,0.065
2539,-0.370,0.050
2540,-0.380,0.070
2541,-0.375,0.070
2542,-0.355,0.095
2543,-0.325,0.090
2544,-0.345,0.085
2545,-0.370,0.080
2546,-0.385,0.060
2547,-0.380,0.080
2548,-0.365,0.085
2549,-0.355,0.080
2550,-0.360,0.060
2551,-0.375,0.035
2552,-0.375,0.040
2553,-0.375,0.060
2554,-0.355,0.075
2555,-0.355,0.065
2556,-0.345,0.065
2557,-0.360,0.050
2558,-0.375,0.055
2559,-0.365,0.060
2560,-0.360,0.060
2561,-0.365,0.065
2562,-0.385,0.055
2563,-0.380,0.040
2564,-0.390,0.055
2565,-0.375,0.065
2566,-0.370,0.085
2567,-0.355,0.080
2568,-0.365,0.060
2569,-0.370,0.060
2570,-0.385,0.060
2571,-0.375,0.070
2572,-0.375,0.070
2573,-0.360,0.070
2574,-0.370,0.065
2575,-0.390,0.050
2576,-0.400,0.045
2577,-0.405,0.060
2578,-0.395,0.065
2579,-0.380,0.080
2580,-0.400,0.075
2581,-0.405,0.070
2582,-0.395,0.065
2583,-0.390,0.070
2584,-0.385,0.080
2585,-0.370,0.065
2586,-0.370,0.050
2587,-0.380,0.030
2588,-0.380,0.015
2589,-0.385,0.030
2590,-0.365,0.030
2591,-0.360,0.035
2592,-0.365,0.020
2593,-0.375,0.010
2594,-0.360,0.020
2595,-0.370,0.035
2596,-0.350,0.045
2597,-0.335,0.040
2598,-0.340,0.030
2599,-0.345,0.010
2600,-0.355,0.000
2601,-0.350,0.005
2602,-0.340,0.025
2603,-0.325,0.015
2604,-0.325,0.000
2605,-0.340,-0.010
2606,-0.330,-0.005
2607,-0.325,0.010
2608,-0.315,0.015
2609,-0.295,0.005
2610,-0.305,-0.015
2611,-0.305,-0.025
2612,-0.305,-0.020
2613,-0.280,-0.030
2614,-0.255,-0.020
2615,-0.180,-0.030
2616,-0.095,-0.065
2617,0.125,-0.060
2618,0.530,-0.055
2619,1.065,-0.050
2620,1.445,-0.070
2621,1.455,-0.130
2622,1.210,-0.210
2623,0.950,-0.350
2624,0.820,-0.575
2625,0.730,-0.885
2626,0.655,-1.160
2627,0.545,-1.295
2628,0.425,-1.225
2629,0.305,-1.100
2630,0.185,-1.010
2631,0.080,-0.965
2632,-0.040,-0.935
2633,-0.165,-0.915
2634,-0.305,-0.900
2635,-0.445,-0.895
2636,-0.575,-0.885
2637,-0.715,-0.890
2638,-0.830,-0.890
2639,-0.970,-0.905
2640,-1.120,-0.945
2641,-1.265,-0.965
2642,-1.410,-0.975
2643,-1.510,-0.960
2644,-1.585,-0.945
2645,-1.645,-0.965
2646,-1.730,-0.980
2647,-1.830,-1.000
2648,-1.895,-1.015
2649,-1.945,-1.010
2650,-1.970,-0.995
2651,-1.985,-1.030
2652,-2.010,-1.050
2653,-2.030,-1.065
2654,-2.040,-1.065
2655,-2.005,-1.070
2656,-1.945,-1.095
2657,-1.890,-1.125
2658,-1.860,-1.155
2659,-1.790,-1.200
2660,-1.700,-1.210
2661,-1.580,-1.200
2662,-1.430,-1.175
2663,-1.270,-1.165
2664,-1.150,-1.155
2665,-1.080,-1.130
2666,-1.045,-1.080
2667,-1.025,-1.035
2668,-0.985,-1.000
2669,-0.950,-0.975
2670,-0.900,-0.950
2671,-0.845,-0.910
2672,-0.785,-0.860
2673,-0.710,-0.785
2674,-0.635,-0.710
2675,-0.555,-0.670
2676,-0.475,-0.610
2677,-0.435,-0.545
2678,-0.370,-0.460
2679,-0.305,-0.370
2680,-0.240,-0.280
2681,-0.170,-0.200
2682,-0.130,-0.155
2683,-0.120,-0.105
2684,-0.120,-0.045
2685,-0.110,0.005
2686,-0.070,0.045
2687,-0.040,0.070
2688,-0.015,0.075
2689,-0.015,0.080
2690,-0.010,0.090
2691,0.015,0.115
2692,0.015,0.140
2693,0.045,0.120
2694,0.035,0.115
2695,0.025,0.100
2696,0.035,0.115
2697,0.040,0.125
2698,0.060,0.135
2699,0.075,0.135
2700,0.085,0.135
2701,0.095,0.140
2702,0.115,0.135
2703,0.135,0.165
2704,0.165,0.190
2705,0.195,0.190
2706,0.190,0.185
2707,0.180,0.175
2708,0.175,0.180
2709,0.190,0.205
2710,0.225,0.240
2711,0.250,0.245
2712,0.255,0.245
2713,0.255,0.240
2714,0.255,0.255
2715,0.270,0.265
2716,0.300,0.290
2717,0.330,0.310
2718,0.335,0.300
2719,0.355,0.295
2720,0.360,0.315
2721,0.390,0.335
2722,0.430,0.350
2723,0.460,0.350
2724,0.480,0.345
2725,0.475,0.330
2726,0.495,0.355
2727,0.525,0.370
2728,0.560,0.395
2729,0.580,0.400
2730,0.625,0.390
2731,0.640,0.390
2732,0.670,0.395
2733,0.710,0.425
2734,0.740,0.450
2735,0.765,0.450
2736,0.785,0.450
2737,0.795,0.450
2738,0.800,0.465
2739,0.830,0.500
2740,0.865,0.505
2741,0.860,0.515
2742,0.890,0.515
2743,0.875,0.515
2744,0.870,0.515
2745,0.865,0.540
2746,0.870,0.565
2747,0.875,0.560
2748,0.880,0.550
2749,0.850,0.545
2750,0.825,0.550
2751,0.825,0.560
2752,0.820,0.550
2753,0.795,0.535
2754,0.765,0.500
2755,0.715,0.490
2756,0.670,0.480
2757,0.630,0.475
2758,0.595,0.465
2759,0.540,0.455
2760,0.480,0.420
2761,0.415,0.410
2762,0.360,0.405
2763,0.320,0.410
2764,0.285,0.410
2765,0.250,0.395
2766,0.190,0.360
2767,0.145,0.335
2768,0.085,0.320
2769,0.065,0.315
2770,0.025,0.315
2771,-0.025,0.290
2772,-0.045,0.270
2773,-0.065,0.230
2774,-0.105,0.220
2775,-0.120,0.215
2776,-0.125,0.225
2777,-0.145,0.215
2778,-0.155,0.195
2779,-0.185,0.165
2780,-0.195,0.160
2781,-0.200,0.170
2782,-0.205,0.170
2783,-0.200,0.155
2784,-0.225,0.145
2785,-0.245,0.125
2786,-0.240,0.130
2787,-0.240,0.130
2788,-0.225,0.155
2789,-0.230,0.145
2790,-0.230,0.135
2791,-0.240,0.120
2792,-0.255,0.115
2793,-0.240,0.125
2794,-0.225,0.130
2795,-0.235,0.140
2796,-0.245,0.120
2797,-0.260,0.110
2798,-0.265,0.120
2799,-0.260,0.125
2800,-0.270,0.140
2801,-0.265,0.130
2802,-0.285,0.120
2803,-0.295,0.120
2804,-0.315,0.120
2805,-0.300,0.135
2806,-0.295,0.145
2807,-0.265,0.135
2808,-0.280,0.130
2809,-0.295,0.115
2810,-0.280,0.100
2811,-0.280,0.110
2812,-0.270,0.105
2813,-0.255,0.100
2814,-0.270,0.080
2815,-0.285,0.075
2816,-0.275,0.085
2817,-0.275,0.100
2818,-0.265,0.115
2819,-0.255,0.105
2820,-0.265,0.090
2821,-0.275,0.085
2822,-0.275,0.075
2823,-0.270,0.100
2824,-0.270,0.110
2825,-0.270,0.110
2826,-0.275,0.100
2827,-0.305,0.080
2828,-0.320,0.080
2829,-0.325,0.095
2830,-0.295,0.115
2831,-0.300,0.100
2832,-0.310,0.070
2833,-0.305,0.060
2834,-0.310,0.055
2835,-0.320,0.080
2836,-0.305,0.100
2837,-0.280,0.100
2838,-0.305,0.085
2839,-0.325,0.065
2840,-0.325,0.065
2841,-0.320,0.080
2842,-0.300,0.085
2843,-0.300,0.085
2844,-0.315,0.070
2845,-0.330,0.060
2846,-0.340,0.070
2847,-0.335,0.075
2848,-0.335,0.100
2849,-0.320,0.095
2850,-0.325,0.070
2851,-0.340,0.070
2852,-0.360,0.075
2853,-0.350,0.085
2854,-0.335,0.095
2855,-0.335,0.105
2856,-0.345,0.095
2857,-0.360,0.070
2858,-0.380,0.085
2859,-0.370,0.095
2860,-0.355,0.105
2861,-0.360,0.105
2862,-0.360,0.095
2863,-0.380,0.090
2864,-0.365,0.105
2865,-0.370,0.110
2866,-0.330,0.125
2867,-0.310,0.110
2868,-0.310,0.090
2869,-0.320,0.075
2870,-0.315,0.065
2871,-0.320,0.070
2872,-0.310,0.075
2873,-0.305,0.085
2874,-0.320,0.075
2875,-0.335,0.075
2876,-0.330,0.085
2877,-0.335,0.105
2878,-0.305,0.135
2879,-0.310,0.130
2880,-0.310,0.140
2881,-0.315,0.130
2882,-0.305,0.125
2883,-0.305,0.110
2884,-0.290,0.110
2885,-0.285,0.080
2886,-0.280,0.090
2887,-0.290,0.070
2888,-0.315,0.050
2889,-0.300,0.045
2890,-0.295,0.025
2891,-0.305,0.005
2892,-0.305,0.000
2893,-0.310,-0.025
2894,-0.315,-0.015
2895,-0.305,-0.015
2896,-0.290,-0.005
2897,-0.275,0.000
2898,-0.290,-0.010
2899,-0.325,-0.020
2900,-0.315,-0.015
2901,-0.305,-0.005
2902,-0.275,0.020
2903,-0.265,0.015
2904,-0.280,0.005
2905,-0.290,0.005
2906,-0.295,-0.005
2907,-0.265,0.005
2908,-0.250,0.020
2909,-0.240,0.010
2910,-0.235,-0.005
2911,-0.240,-0.015
2912,-0.235,-0.015
2913,-0.195,-0.015
2914,-0.105,0.005
2915,0.040,-0.010
2916,0.330,-0.025
2917,0.780,-0.055
2918,1.230,-0.055
2919,1.475,-0.080
2920,1.405,-0.125
2921,1.165,-0.230
2922,0.965,-0.410
2923,0.860,-0.695
2924,0.805,-1.035
2925,0.735,-1.265
2926,0.670,-1.280
2927,0.585,-1.145
2928,0.470,-1.065
2929,0.360,-1.025
2930,0.245,-0.990
2931,0.135,-0.965
2932,0.025,-0.935
2933,-0.080,-0.925
2934,-0.215,-0.935
2935,-0.365,-0.930
2936,-0.485,-0.915
2937,-0.605,-0.915
2938,-0.730,-0.910
2939,-0.860,-0.930
2940,-1.030,-0.955
2941,-1.200,-0.965
2942,-1.340,-0.965
2943,-1.450,-0.955
2944,-1.510,-0.940
2945,-1.595,-0.950
2946,-1.670,-0.970
2947,-1.785,-0.990
2948,-1.855,-0.990
2949,-1.905,-0.990
2950,-1.925,-0.980
2951,-1.940,-0.990
2952,-1.950,-1.035
2953,-1.945,-1.040
2954,-1.925,-1.045
2955,-1.880,-1.055
2956,-1.810,-1.065
2957,-1.770,-1.080
2958,-1.685,-1.105
2959,-1.610,-1.125
2960,-1.505,-1.135
2961,-1.385,-1.120
2962,-1.250,-1.100
2963,-1.125,-1.065
2964,-1.045,-1.035
2965,-0.985,-1.025
2966,-0.945,-0.990
2967,-0.910,-0.950
2968,-0.870,-0.905
2969,-0.810,-0.860
2970,-0.755,-0.830
2971,-0.720,-0.800
2972,-0.655,-0.735
2973,-0.570,-0.660
2974,-0.490,-0.585
2975,-0.395,-0.540
2976,-0.325,-0.465
2977,-0.275,-0.400
2978,-0.215,-0.355
2979,-0.150,-0.275
2980,-0.080,-0.200
2981,-0.030,-0.150
2982,0.000,-0.125
2983,0.025,-0.100
2984,0.050,-0.055
2985,0.075,-0.005
2986,0.100,0.035
2987,0.130,0.045
2988,0.145,0.070
2989,0.135,0.080
2990,0.150,0.105
2991,0.150,0.125
2992,0.165,0.135
2993,0.165,0.155
2994,0.165,0.160
2995,0.150,0.155
2996,0.155,0.170
2997,0.170,0.185
2998,0.195,0.220
2999,0.220,0.205
3000,0.215,0.220
3001,0.195,0.205
3002,0.205,0.215
3003,0.225,0.240
3004,0.240,0.265
3005,0.270,0.265
3006,0.270,0.260
3007,0.255,0.255
3008,0.275,0.270
3009,0.285,0.285
3010,0.305,0.295
3011,0.325,0.305
3012,0.340,0.290
3013,0.325,0.295
3014,0.345,0.295
3015,0.360,0.305
3016,0.385,0.320
3017,0.395,0.310
3018,0.415,0.315
3019,0.405,0.310
3020,0.420,0.325
3021,0.445,0.350
3022,0.455,0.360
3023,0.480,0.360
3024,0.490,0.345
3025,0.490,0.335
3026,0.505,0.345
3027,0.540,0.370
3028,0.560,0.380
3029,0.595,0.385
3030,0.590,0.375
3031,0.600,0.355
3032,0.620,0.380
3033,0.640,0.400
3034,0.680,0.405
3035,0.700,0.410
3036,0.730,0.385
3037,0.750,0.400
3038,0.760,0.410
3039,0.790,0.425
3040,0.820,0.445
3041,0.845,0.450
3042,0.865,0.455
3043,0.890,0.460
3044,0.900,0.490
3045,0.920,0.505
3046,0.935,0.545
3047,0.950,0.545
3048,0.940,0.535
3049,0.920,0.555
3050,0.925,0.565
3051,0.905,0.585
3052,0.920,0.605
3053,0.905,0.595
3054,0.880,0.600
3055,0.850,0.595
3056,0.805,0.605
3057,0.795,0.620
3058,0.770,0.610
3059,0.760,0.610
3060,0.710,0.595
3061,0.675,0.590
3062,0.625,0.580
3063,0.595,0.580
3064,0.570,0.590
3065,0.515,0.550
3066,0.460,0.540
3067,0.410,0.515
3068,0.350,0.505
3069,0.315,0.490
3070,0.290,0.485
3071,0.250,0.460
3072,0.200,0.440
3073,0.145,0.400
3074,0.105,0.385
3075,0.070,0.365
3076,0.040,0.360
3077,0.025,0.325
3078,-0.005,0.310
3079,-0.055,0.280
3080,-0.090,0.270
3081,-0.115,0.265
3082,-0.115,0.260
3083,-0.110,0.240
3084,-0.130,0.215
3085,-0.180,0.195
3086,-0.180,0.180
3087,-0.185,0.190
3088,-0.170,0.190
3089,-0.180,0.165
3090,-0.185,0.155
3091,-0.210,0.130
3092,-0.220,0.135
3093,-0.210,0.155
3094,-0.200,0.170
3095,-0.195,0.170
3096,-0.215,0.160
3097,-0.230,0.155
3098,-0.235,0.160
3099,-0.230,0.185
3100,-0.200,0.195
3101,-0.195,0.190
3102,-0.220,0.170
3103,-0.235,0.140
3104,-0.240,0.145
3105,-0.230,0.175
3106,-0.215,0.175
3107,-0.210,0.170
3108,-0.220,0.150
3109,-0.220,0.155
3110,-0.215,0.160
3111,-0.215,0.160
3112,-0.210,0.185
3113,-0.195,0.165
3114,-0.205,0.155
3115,-0.215,0.150
3116,-0.215,0.145
3117,-0.205,0.155
3118,-0.215,0.165
3119,-0.200,0.155
3120,-0.220,0.145
3121,-0.220,0.145
3122,-0.230,0.145
3123,-0.215,0.150
3124,-0.220,0.155
3125,-0.215,0.145
3126,-0.215,0.125
3127,-0.230,0.110
3128,-0.250,0.110
3129,-0.255,0.120
3130,-0.245,0.135
3131,-0.230,0.125
3132,-0.230,0.110
3133,-0.255,0.100
3134,-0.255,0.095
3135,-0.255,0.090
3136,-0.260,0.100
3137,-0.275,0.100
3138,-0.285,0.100
3139,-0.280,0.080
3140,-0.295,0.075
3141,-0.300,0.085
3142,-0.290,0.110
3143,-0.300,0.100
3144,-0.310,0.105
3145,-0.325,0.095
3146,-0.325,0.095
3147,-0.315,0.115
3148,-0.295,0.115
3149,-0.270,0.115
3150,-0.265,0.115
3151,-0.270,0.100
3152,-0.290,0.120
3153,-0.270,0.130
3154,-0.260,0.155
3155,-0.265,0.125
3156,-0.270,0.115
3157,-0.290,0.105
3158,-0.300,0.100
3159,-0.290,0.120
3160,-0.285,0.125
3161,-0.280,0.120
3162,-0.295,0.095
3163,-0.310,0.095
3164,-0.315,0.115
3165,-0.290,0.115
3166,-0.285,0.140
3167,-0.270,0.130
3168,-0.290,0.120
3169,-0.325,0.110
3170,-0.320,0.110
3171,-0.305,0.105
3172,-0.280,0.110
3173,-0.280,0.105
3174,-0.295,0.085
3175,-0.300,0.065
3176,-0.305,0.075
3177,-0.320,0.085
3178,-0.305,0.085
3179,-0.285,0.080
3180,-0.300,0.055
3181,-0.305,0.065
3182,-0.310,0.070
3183,-0.340,0.055
3184,-0.330,0.070
3185,-0.320,0.060
3186,-0.340,0.045
3187,-0.355,0.035
3188,-0.360,0.040
3189,-0.355,0.065
3190,-0.330,0.080
3191,-0.335,0.075
3192,-0.320,0.055
3193,-0.335,0.050
3194,-0.330,0.040
3195,-0.315,0.045
3196,-0.300,0.070
3197,-0.280,0.065
3198,-0.275,0.050
3199,-0.290,0.035
3200,-0.275,0.040
3201,-0.265,0.055
3202,-0.260,0.070
3203,-0.240,0.065
3204,-0.260,0.050
3205,-0.280,0.045
3206,-0.295,0.050
3207,-0.275,0.055
3208,-0.250,0.070
3209,-0.245,0.060
3210,-0.255,0.040
3211,-0.275,0.025
3212,-0.280,0.035
3213,-0.255,0.040
3214,-0.235,0.055
3215,-0.220,0.040
3216,-0.220,0.020
3217,-0.235,0.005
3218,-0.235,0.010
3219,-0.200,0.005
3220,-0.165,0.020
3221,-0.135,0.005
3222,-0.095,-0.015
3223,0.000,-0.030
3224,0.200,-0.025
3225,0.605,-0.020
3226,1.080,-0.040
3227,1.440,-0.080
3228,1.470,-0.150
3229,1.255,-0.230
3230,1.030,-0.355
3231,0.895,-0.550
3232,0.835,-0.835
3233,0.805,-1.115
3234,0.710,-1.245
3235,0.605,-1.210
3236,0.495,-1.100
3237,0.410,-1.025
3238,0.310,-0.990
3239,0.180,-0.975
3240,0.030,-0.955
3241,-0.105,-0.940
3242,-0.250,-0.920
3243,-0.355,-0.905
3244,-0.475,-0.875
3245,-0.605,-0.895
3246,-0.770,-0.915
3247,-0.910,-0.940
3248,-1.055,-0.940
3249,-1.175,-0.935
3250,-1.295,-0.915
3251,-1.380,-0.925
3252,-1.485,-0.935
3253,-1.585,-0.945
3254,-1.685,-0.940
3255,-1.770,-0.945
3256,-1.840,-0.925
3257,-1.885,-0.935
3258,-1.925,-0.960
3259,-1.955,-0.970
3260,-1.975,-0.975
3261,-1.960,-0.975
3262,-1.930,-0.955
3263,-1.875,-0.985
3264,-1.865,-1.010
3265,-1.845,-1.040
3266,-1.800,-1.070
3267,-1.715,-1.080
3268,-1.590,-1.080
3269,-1.455,-1.085
3270,-1.330,-1.085
3271,-1.200,-1.080
3272,-1.100,-1.040
3273,-1.010,-0.985
3274,-0.950,-0.930
3275,-0.935,-0.905
3276,-0.915,-0.890
3277,-0.885,-0.865
3278,-0.830,-0.820
3279,-0.760,-0.765
3280,-0.685,-0.705
3281,-0.600,-0.655
3282,-0.545,-0.620
3283,-0.480,-0.585
3284,-0.420,-0.515
3285,-0.325,-0.435
3286,-0.240,-0.355
3287,-0.170,-0.300
3288,-0.125,-0.265
3289,-0.100,-0.225
3290,-0.075,-0.185
3291,-0.040,-0.125
3292,-0.005,-0.080
3293,0.025,-0.050
3294,0.050,-0.035
3295,0.060,-0.005
3296,0.055,0.020
3297,0.090,0.045
3298,0.105,0.075
3299,0.125,0.095
3300,0.130,0.085
3301,0.145,0.110
3302,0.140,0.135
3303,0.160,0.140
3304,0.185,0.165
3305,0.200,0.175
3306,0.195,0.170
3307,0.195,0.175
3308,0.200,0.185
3309,0.220,0.205
3310,0.255,0.230
3311,0.265,0.245
3312,0.260,0.240
3313,0.260,0.245
3314,0.260,0.260
3315,0.290,0.295
3316,0.335,0.320
3317,0.355,0.330
3318,0.345,0.340
3319,0.330,0.315
3320,0.325,0.310
3321,0.345,0.290
3322,0.380,0.270
3323,0.395,0.230
3324,0.415,0.230
3325,0.390,0.215
3326,0.405,0.240
3327,0.435,0.275
3328,0.450,0.295
3329,0.485,0.295
3330,0.500,0.290
3331,0.490,0.285
3332,0.505,0.295
3333,0.515,0.315
3334,0.550,0.330
3335,0.585,0.325
3336,0.595,0.315
3337,0.590,0.315
3338,0.605,0.320
3339,0.645,0.330
3340,0.675,0.350
3341,0.710,0.355
3342,0.725,0.330
3343,0.740,0.325
3344,0.740,0.325
3345,0.770,0.335
3346,0.815,0.355
3347,0.835,0.345
3348,0.860,0.345
3349,0.880,0.340
3350,0.885,0.340
3351,0.920,0.355
3352,0.955,0.380
3353,0.960,0.390
3354,0.950,0.395
3355,0.940,0.395
3356,0.945,0.415
3357,0.955,0.440
3358,0.985,0.470
3359,0.985,0.470
3360,0.970,0.470
3361,0.975,0.460
3362,0.960,0.500
3363,0.965,0.495
3364,0.950,0.530
3365,0.955,0.520
3366,0.925,0.515
3367,0.875,0.525
3368,0.845,0.535
3369,0.820,0.560
3370,0.805,0.570
3371,0.790,0.555
3372,0.740,0.525
3373,0.695,0.525
3374,0.645,0.525
3375,0.590,0.525
3376,0.555,0.515
3377,0.520,0.495
3378,0.475,0.480
3379,0.410,0.445
3380,0.355,0.430
3381,0.325,0.420
3382,0.310,0.415
3383,0.275,0.390
3384,0.240,0.360
3385,0.185,0.330
3386,0.140,0.315
3387,0.110,0.305
3388,0.090,0.300
3389,0.060,0.270
3390,0.030,0.245
3391,-0.020,0.205
3392,-0.045,0.210
3393,-0.045,0.200
3394,-0.065,0.195
3395,-0.055,0.175
3396,-0.065,0.140
3397,-0.090,0.130
3398,-0.115,0.105
3399,-0.110,0.105
3400,-0.105,0.100
3401,-0.105,0.080
3402,-0.125,0.060
3403,-0.130,0.045
3404,-0.145,0.035
3405,-0.140,0.045
3406,-0.135,0.065
3407,-0.135,0.050
3408,-0.140,0.055
3409,-0.170,0.055
3410,-0.165,0.060
3411,-0.150,0.085
3412,-0.135,0.090
3413,-0.120,0.090
3414,-0.125,0.070
3415,-0.135,0.075
3416,-0.150,0.085
3417,-0.160,0.095
3418,-0.160,0.110
3419,-0.145,0.100
3420,-0.155,0.100
3421,-0.160,0.095
3422,-0.140,0.100
3423,-0.150,0.120
3424,-0.135,0.130
3425,-0.135,0.130
3426,-0.145,0.125
3427,-0.165,0.115
3428,-0.170,0.110
3429,-0.155,0.115
3430,-0.155,0.140
3431,-0.140,0.120
3432,-0.160,0.110
3433,-0.185,0.105
3434,-0.195,0.095
3435,-0.195,0.110
3436,-0.180,0.105
3437,-0.185,0.110
3438,-0.190,0.105
3439,-0.205,0.085
3440,-0.210,0.085
3441,-0.200,0.085
3442,-0.190,0.105
3443,-0.185,0.110
3444,-0.195,0.090
3445,-0.230,0.075
3446,-0.225,0.060
3447,-0.215,0.055
3448,-0.220,0.055
3449,-0.215,0.050
3450,-0.220,0.035
3451,-0.245,0.025
3452,-0.245,0.020
3453,-0.235,0.025
3454,-0.230,0.030
3455,-0.240,0.025
3456,-0.260,0.025
3457,-0.285,0.010
3458,-0.285,0.025
3459,-0.275,0.030
3460,-0.250,0.045
3461,-0.250,0.035
3462,-0.250,0.020
3463,-0.245,0.015
3464,-0.245,0.005
3465,-0.225,0.030
3466,-0.225,0.050
3467,-0.225,0.050
3468,-0.220,0.045
3469,-0.245,0.060
3470,-0.240,0.050
3471,-0.225,0.070
3472,-0.225,0.080
3473,-0.215,0.065
3474,-0.240,0.055
3475,-0.235,0.055
3476,-0.250,0.055
3477,-0.225,0.075
3478,-0.205,0.080
3479,-0.220,0.075
3480,-0.210,0.070
3481,-0.230,0.050
3482,-0.245,0.065
3483,-0.265,0.075
3484,-0.220,0.065
3485,-0.220,0.050
3486,-0.225,0.045
3487,-0.240,0.040
3488,-0.235,0.050
3489,-0.235,0.060
3490,-0.215,0.060
3491,-0.215,0.050
3492,-0.225,0.035
3493,-0.245,0.025
3494,-0.245,0.020
3495,-0.235,0.040
3496,-0.220,0.035
3497,-0.205,0.025
3498,-0.225,0.015
3499,-0.225,-0.005
3500,-0.220,0.005
3501,-0.225,0.005
3502,-0.210,0.015
3503,-0.200,0.005
3504,-0.215,-0.015
3505,-0.240,-0.020
3506,-0.245,-0.020
3507,-0.240,-0.015
3508,-0.230,0.015
3509,-0.220,-0.005
3510,-0.240,-0.010
3511,-0.255,-0.020
3512,-0.270,0.000
3513,-0.260,0.005
3514,-0.235,0.020
3515,-0.225,0.015
3516,-0.225,0.005
3517,-0.225,0.000
3518,-0.220,0.000
3519,-0.205,0.015
3520,-0.185,0.035
3521,-0.190,0.010
3522,-0.180,0.015
3523,-0.180,-0.005
3524,-0.175,0.005
3525,-0.175,0.015
3526,-0.155,0.015
3527,-0.130,0.015
3528,-0.140,-0.005
3529,-0.110,-0.010
3530,-0.070,0.000
3531,-0.005,-0.005
3532,0.140,0.000
3533,0.380,-0.015
3534,0.795,-0.035
3535,1.215,-0.055
3536,1.475,-0.075
3537,1.440,-0.110
3538,1.245,-0.185
3539,1.070,-0.340
3540,0.955,-0.630
3541,0.870,-0.970
3542,0.800,-1.280
3543,0.745,-1.385
3544,0.665,-1.325
3545,0.590,-1.180
3546,0.495,-1.105
3547,0.360,-1.065
3548,0.255,-1.035
3549,0.135,-1.005
3550,0.020,-0.975
3551,-0.110,-0.965
3552,-0.255,-0.985
3553,-0.395,-0.995
3554,-0.540,-0.970
3555,-0.675,-0.975
3556,-0.820,-0.970
3557,-0.960,-0.995
3558,-1.130,-1.005
3559,-1.280,-1.020
3560,-1.445,-1.015
3561,-1.555,-1.000
3562,-1.615,-0.995
3563,-1.715,-1.015
3564,-1.820,-1.030
3565,-1.895,-1.065
3566,-1.960,-1.045
3567,-1.970,-1.035
3568,-1.965,-1.035
3569,-1.980,-1.020
3570,-1.950,-1.035
3571,-1.940,-1.050
3572,-1.910,-1.055
3573,-1.860,-1.060
3574,-1.780,-1.065
3575,-1.720,-1.090
3576,-1.625,-1.115
3577,-1.530,-1.150
3578,-1.405,-1.155
3579,-1.265,-1.135
3580,-1.120,-1.105
3581,-0.995,-1.075
3582,-0.930,-1.050
3583,-0.895,-1.005
3584,-0.855,-0.975
3585,-0.785,-0.920
3586,-0.720,-0.885
3587,-0.650,-0.845
3588,-0.590,-0.810
3589,-0.540,-0.775
3590,-0.475,-0.710
3591,-0.395,-0.635
3592,-0.310,-0.565
3593,-0.235,-0.515
3594,-0.185,-0.480
3595,-0.135,-0.430
3596,-0.090,-0.365
3597,-0.025,-0.275
3598,0.035,-0.200
3599,0.095,-0.145
3600,0.115,-0.130
3601,0.105,-0.090
3602,0.125,-0.040
3603,0.150,0.000
3604,0.170,0.035
3605,0.195,0.050
3606,0.200,0.065
3607,0.190,0.060
3608,0.200,0.080
3609,0.205,0.100
3610,0.235,0.120
3611,0.245,0.125
3612,0.230,0.130
3613,0.215,0.140
3614,0.225,0.150
3615,0.240,0.170
3616,0.250,0.185
3617,0.245,0.190
3618,0.240,0.165
3619,0.255,0.160
3620,0.255,0.170
3621,0.290,0.215
3622,0.320,0.230
3623,0.345,0.220
3624,0.350,0.210
3625,0.355,0.200
3626,0.355,0.225
3627,0.380,0.250
3628,0.405,0.270
3629,0.420,0.265
3630,0.420,0.265
3631,0.425,0.260
3632,0.440,0.265
3633,0.465,0.280
3634,0.500,0.290
3635,0.530,0.295
3636,0.530,0.295
3637,0.525,0.285
3638,0.545,0.305
3639,0.550,0.320
3640,0.585,0.325
3641,0.600,0.335
3642,0.615,0.345
3643,0.620,0.335
3644,0.635,0.335
3645,0.670,0.360
3646,0.695,0.375
3647,0.710,0.365
3648,0.725,0.340
3649,0.745,0.325
3650,0.750,0.360
3651,0.775,0.375
3652,0.790,0.385
3653,0.830,0.390
3654,0.855,0.370
3655,0.860,0.365
3656,0.875,0.385
3657,0.890,0.400
3658,0.920,0.415
3659,0.935,0.415
3660,0.935,0.405
3661,0.940,0.415
3662,0.945,0.415
3663,0.960,0.455
3664,0.990,0.480
3665,0.990,0.475
3666,0.990,0.480
3667,0.975,0.475
3668,0.975,0.495
3669,0.975,0.525
3670,0.980,0.535
3671,0.975,0.525
3672,0.960,0.510
3673,0.950,0.520
3674,0.925,0.540
3675,0.920,0.555
3676,0.905,0.575
3677,0.895,0.570
3678,0.865,0.565
3679,0.820,0.545
3680,0.765,0.555
3681,0.755,0.570
3682,0.725,0.565
3683,0.705,0.555
3684,0.670,0.530
3685,0.620,0.515
3686,0.575,0.510
3687,0.545,0.515
3688,0.520,0.525
3689,0.485,0.500
3690,0.440,0.465
3691,0.385,0.440
3692,0.330,0.435
3693,0.300,0.430
3694,0.270,0.420
3695,0.230,0.400
3696,0.190,0.365
3697,0.130,0.325
3698,0.105,0.305
3699,0.075,0.300
3700,0.065,0.300
3701,0.035,0.310
3702,0.005,0.275
3703,-0.005,0.260
3704,-0.025,0.220
3705,-0.045,0.200
3706,-0.040,0.185
3707,-0.050,0.160
3708,-0.075,0.155
3709,-0.080,0.115
3710,-0.105,0.105
3711,-0.110,0.105
3712,-0.110,0.120
3713,-0.115,0.115
3714,-0.135,0.085
3715,-0.160,0.070
3716,-0.150,0.065
3717,-0.150,0.075
3718,-0.135,0.095
3719,-0.120,0.090
3720,-0.145,0.085
3721,-0.155,0.070
3722,-0.150,0.070
3723,-0.135,0.080
3724,-0.130,0.090
3725,-0.120,0.085
3726,-0.130,0.090
3727,-0.145,0.090
3728,-0.155,0.095
3729,-0.135,0.115
3730,-0.110,0.135
3731,-0.105,0.115
3732,-0.125,0.110
3733,-0.130,0.095
3734,-0.130,0.095
3735,-0.130,0.120
3736,-0.120,0.140
3737,-0.125,0.130
3738,-0.135,0.145
3739,-0.140,0.140
3740,-0.155,0.130
3741,-0.125,0.150
3742,-0.120,0.155
3743,-0.125,0.155
3744,-0.145,0.155
3745,-0.165,0.135
3746,-0.175,0.150
3747,-0.160,0.155
3748,-0.135,0.175
3749,-0.150,0.180
3750,-0.155,0.150
3751,-0.180,0.130
3752,-0.195,0.120
3753,-0.195,0.110
3754,-0.175,0.120
3755,-0.170,0.105
3756,-0.180,0.090
3757,-0.200,0.075
3758,-0.205,0.090
3759,-0.210,0.085
3760,-0.215,0.090
3761,-0.225,0.080
3762,-0.240,0.070
3763,-0.260,0.055
3764,-0.250,0.050
3765,-0.250,0.055
3766,-0.230,0.060
3767,-0.230,0.050
3768,-0.245,0.030
3769,-0.260,0.025
3770,-0.255,0.055
3771,-0.250,0.075
3772,-0.235,0.090
3773,-0.230,0.090
3774,-0.255,0.075
3775,-0.265,0.060
3776,-0.275,0.060
3777,-0.290,0.085
3778,-0.265,0.105
3779,-0.255,0.095
3780,-0.245,0.095
3781,-0.250,0.095
3782,-0.240,0.115
3783,-0.245,0.150
3784,-0.200,0.160
3785,-0.185,0.145
3786,-0.220,0.115
3787,-0.215,0.080
3788,-0.235,0.070
3789,-0.220,0.070
3790,-0.200,0.090
3791,-0.190,0.085
3792,-0.190,0.075
3793,-0.195,0.060
3794,-0.215,0.055
3795,-0.205,0.075
3796,-0.195,0.095
3797,-0.200,0.090
3798,-0.205,0.095
3799,-0.210,0.095
3800,-0.220,0.090
3801,-0.200,0.090
3802,-0.195,0.095
3803,-0.185,0.105
3804,-0.180,0.080
3805,-0.190,0.075
3806,-0.210,0.070
3807,-0.205,0.080
3808,-0.195,0.085
3809,-0.185,0.050
3810,-0.195,0.045
3811,-0.230,0.035
3812,-0.210,0.045
3813,-0.210,0.045
3814,-0.200,0.065
3815,-0.210,0.050
3816,-0.245,0.040
3817,-0.260,0.030
3818,-0.255,0.030
3819,-0.235,0.045
3820,-0.210,0.050
3821,-0.220,0.035
3822,-0.220,0.020
3823,-0.230,0.010
3824,-0.225,0.010
3825,-0.215,0.005
3826,-0.200,0.020
3827,-0.205,0.005
3828,-0.215,-0.015
3829,-0.240,-0.015
3830,-0.250,-0.010
3831,-0.235,0.005
3832,-0.220,0.010
3833,-0.205,0.010
3834,-0.220,0.005
3835,-0.225,-0.010
3836,-0.225,0.005
3837,-0.190,0.025
3838,-0.155,0.040
3839,-0.140,0.035
3840,-0.130,0.010
3841,-0.145,0.000
3842,-0.125,0.010
3843,-0.075,0.020
3844,0.020,0.030
3845,0.185,0.030
3846,0.490,0.010
3847,0.910,-0.015
3848,1.310,-0.020
3849,1.455,-0.025
3850,1.350,-0.075
3851,1.145,-0.170
3852,0.995,-0.395
3853,0.905,-0.735
3854,0.830,-1.090
3855,0.745,-1.245
3856,0.645,-1.130
3857,0.540,-0.995
3858,0.425,-0.930
3859,0.295,-0.915
3860,0.200,-0.895
3861,0.090,-0.860
3862,-0.030,-0.850
3863,-0.150,-0.830
3864,-0.300,-0.835
3865,-0.465,-0.855
3866,-0.590,-0.860
3867,-0.735,-0.875
3868,-0.875,-0.875
3869,-1.025,-0.890
3870,-1.185,-0.910
3871,-1.315,-0.925
3872,-1.415,-0.935
3873,-1.495,-0.920
3874,-1.575,-0.930
3875,-1.660,-0.950
3876,-1.745,-0.965
3877,-1.815,-0.985
3878,-1.850,-0.995
3879,-1.850,-0.980
3880,-1.865,-0.980
3881,-1.855,-1.000
3882,-1.835,-1.030
3883,-1.810,-1.060
3884,-1.785,-1.060
3885,-1.715,-1.080
3886,-1.610,-1.075
3887,-1.490,-1.095
3888,-1.375,-1.125
3889,-1.255,-1.120
3890,-1.130,-1.100
3891,-1.020,-1.060
3892,-0.920,-1.020
3893,-0.860,-0.985
3894,-0.840,-0.955
3895,-0.845,-0.930
3896,-0.800,-0.880
3897,-0.735,-0.815
3898,-0.650,-0.750
3899,-0.555,-0.710
3900,-0.495,-0.675
3901,-0.420,-0.615
3902,-0.360,-0.560
3903,-0.290,-0.480
3904,-0.195,-0.400
3905,-0.145,-0.345
3906,-0.095,-0.290
3907,-0.065,-0.235
3908,-0.020,-0.170
3909,0.015,-0.095
3910,0.075,-0.040
3911,0.100,0.005
3912,0.105,0.030
3913,0.100,0.055
3914,0.100,0.090
3915,0.125,0.115
3916,0.175,0.145
3917,0.190,0.155
3918,0.190,0.150
3919,0.175,0.145
3920,0.175,0.155
3921,0.185,0.170
3922,0.200,0.180
3923,0.205,0.180
3924,0.205,0.165
3925,0.195,0.165
3926,0.205,0.180
3927,0.220,0.195
3928,0.270,0.215
3929,0.265,0.190
3930,0.270,0.195
3931,0.270,0.190
3932,0.280,0.205
3933,0.290,0.220
3934,0.315,0.245
3935,0.330,0.255
3936,0.335,0.265
3937,0.335,0.265
3938,0.340,0.275
3939,0.360,0.285
3940,0.390,0.275
3941,0.420,0.260
3942,0.425,0.270
3943,0.435,0.280
3944,0.450,0.300
3945,0.480,0.320
3946,0.490,0.335
3947,0.515,0.345
3948,0.515,0.330
3949,0.505,0.325
3950,0.535,0.360
3951,0.570,0.375
3952,0.605,0.395
3953,0.625,0.395
3954,0.635,0.405
3955,0.635,0.410
3956,0.645,0.425
3957,0.675,0.450
3958,0.715,0.475
3959,0.740,0.470
3960,0.750,0.450
3961,0.745,0.455
3962,0.770,0.475
3963,0.805,0.490
3964,0.835,0.520
3965,0.855,0.510
3966,0.855,0.505
3967,0.865,0.490
3968,0.875,0.510
3969,0.860,0.525
3970,0.890,0.545
3971,0.895,0.545
3972,0.895,0.545
3973,0.880,0.535
3974,0.880,0.555
3975,0.900,0.575
3976,0.905,0.590
3977,0.915,0.585
3978,0.890,0.570
3979,0.865,0.575
3980,0.850,0.570
3981,0.840,0.590
3982,0.850,0.600
3983,0.825,0.600
3984,0.785,0.570
3985,0.750,0.560
3986,0.715,0.570
3987,0.695,0.565
3988,0.675,0.570
3989,0.640,0.565
3990,0.595,0.555
3991,0.560,0.525
3992,0.525,0.510
3993,0.490,0.515
3994,0.475,0.525
3995,0.435,0.490
3996,0.405,0.460
3997,0.350,0.435
3998,0.295,0.425
3999,0.270,0.415
4000,0.240,0.415
4001,0.225,0.385
4002,0.180,0.355
4003,0.125,0.320
4004,0.100,0.320
4005,0.095,0.325
4006,0.080,0.310
4007,0.070,0.295
4008,0.030,0.255
4009,0.020,0.235
4010,0.000,0.230
4011,0.005,0.230
4012,0.000,0.235
4013,0.000,0.225
4014,-0.005,0.195
4015,-0.040,0.175
4016,-0.060,0.175
4017,-0.065,0.170
4018,-0.045,0.175
4019,-0.045,0.170
4020,-0.050,0.145
4021,-0.060,0.130
4022,-0.070,0.140
4023,-0.065,0.140
4024,-0.055,0.150
4025,-0.040,0.145
4026,-0.040,0.120
4027,-0.055,0.110
4028,-0.070,0.115
4029,-0.050,0.125
4030,-0.050,0.130
4031,-0.055,0.120
4032,-0.060,0.120
4033,-0.085,0.110
4034,-0.080,0.110
4035,-0.065,0.125
4036,-0.050,0.140
4037,-0.040,0.130
4038,-0.050,0.120
4039,-0.060,0.120
4040,-0.085,0.145
4041,-0.075,0.155
4042,-0.065,0.170
4043,-0.050,0.150
4044,-0.070,0.145
4045,-0.065,0.140
4046,-0.080,0.150
4047,-0.060,0.170
4048,-0.040,0.190
4049,-0.040,0.175
4050,-0.045,0.160
4051,-0.060,0.150
4052,-0.065,0.150
4053,-0.055,0.165
4054,-0.055,0.175
4055,-0.050,0.170
4056,-0.060,0.140
4057,-0.075,0.130
4058,-0.070,0.140
4059,-0.070,0.155
4060,-0.060,0.155
4061,-0.070,0.140
4062,-0.075,0.115
4063,-0.080,0.105
4064,-0.075,0.115
4065,-0.070,0.115
4066,-0.060,0.120
4067,-0.070,0.105
4068,-0.095,0.090
4069,-0.120,0.075
4070,-0.125,0.075
4071,-0.115,0.090
4072,-0.095,0.080
4073,-0.095,0.075
4074,-0.105,0.070
4075,-0.125,0.055
4076,-0.130,0.075
4077,-0.135,0.080
4078,-0.125,0.095
4079,-0.125,0.095
4080,-0.135,0.085
4081,-0.150,0.075
4082,-0.160,0.060
4083,-0.150,0.075
4084,-0.130,0.090
4085,-0.125,0.080
4086,-0.130,0.070
4087,-0.140,0.060
4088,-0.125,0.070
4089,-0.120,0.090
4090,-0.125,0.110
4091,-0.125,0.105
4092,-0.140,0.095
4093,-0.135,0.085
4094,-0.150,0.100
4095,-0.140,0.120
4096,-0.110,0.120
4097,-0.130,0.115
4098,-0.150,0.095
4099,-0.155,0.080
4100,-0.150,0.095
4101,-0.145,0.110
4102,-0.140,0.115
4103,-0.125,0.120
4104,-0.140,0.085
4105,-0.160,0.080
4106,-0.155,0.095
4107,-0.150,0.100
4108,-0.120,0.110
4109,-0.125,0.095
4110,-0.135,0.070
4111,-0.150,0.060
4112,-0.140,0.055
4113,-0.145,0.070
4114,-0.130,0.075
4115,-0.115,0.065
4116,-0.120,0.045
4117,-0.140,0.025
4118,-0.145,0.030
4119,-0.140,0.040
4120,-0.120,0.040
4121,-0.130,0.035
4122,-0.120,0.015
4123,-0.135,0.000
4124,-0.135,0.000
4125,-0.130,0.015
4126,-0.115,0.020
4127,-0.125,0.015
4128,-0.135,0.015
4129,-0.155,0.005
4130,-0.140,0.010
4131,-0.125,0.030
4132,-0.105,0.030
4133,-0.105,0.010
4134,-0.105,-0.005
4135,-0.105,-0.010
4136,-0.105,-0.010
4137,-0.065,-0.005
4138,-0.030,-0.005
4139,-0.005,-0.020
4140,0.025,-0.030
4141,0.110,-0.030
4142,0.285,-0.015
4143,0.670,-0.010
4144,1.130,-0.005
4145,1.475,-0.040
4146,1.505,-0.090
4147,1.295,-0.175
4148,1.080,-0.295
4149,0.960,-0.535
4150,0.925,-0.840
4151,0.855,-1.140
4152,0.765,-1.240
4153,0.645,-1.145
4154,0.550,-1.020
4155,0.450,-0.955
4156,0.360,-0.925
4157,0.245,-0.900
4158,0.100,-0.890
4159,-0.045,-0.890
4160,-0.195,-0.875
4161,-0.335,-0.860
4162,-0.465,-0.850
4163,-0.600,-0.880
4164,-0.765,-0.910
4165,-0.955,-0.935
4166,-1.130,-0.930
4167,-1.270,-0.920
4168,-1.395,-0.910
4169,-1.495,-0.950
4170,-1.610,-0.970
4171,-1.695,-1.005
4172,-1.785,-1.000
4173,-1.830,-0.985
4174,-1.855,-0.975
4175,-1.915,-0.990
4176,-1.930,-1.015
4177,-1.945,-1.020
4178,-1.925,-1.035
4179,-1.855,-1.010
4180,-1.800,-1.025
4181,-1.735,-1.040
4182,-1.675,-1.080
4183,-1.580,-1.090
4184,-1.455,-1.100
4185,-1.295,-1.105
4186,-1.125,-1.090
4187,-0.960,-1.085
4188,-0.860,-1.055
4189,-0.810,-1.025
4190,-0.755,-0.980
4191,-0.700,-0.935
4192,-0.625,-0.895
4193,-0.540,-0.870
4194,-0.490,-0.840
4195,-0.435,-0.795
4196,-0.385,-0.725
4197,-0.295,-0.665
4198,-0.210,-0.580
4199,-0.145,-0.530
4200,-0.060,-0.470
4201,-0.005,-0.395
4202,0.050,-0.325
4203,0.115,-0.270
4204,0.190,-0.200
4205,0.220,-0.145
4206,0.225,-0.115
4207,0.235,-0.065
4208,0.245,-0.010
4209,0.280,0.035
4210,0.315,0.080
4211,0.330,0.075
4212,0.325,0.095
4213,0.320,0.095
4214,0.350,0.110
4215,0.365,0.135
4216,0.390,0.150
4217,0.400,0.135
4218,0.405,0.130
4219,0.405,0.120
4220,0.395,0.155
4221,0.410,0.170
4222,0.415,0.185
4223,0.445,0.180
4224,0.430,0.170
4225,0.430,0.165
4226,0.425,0.190
4227,0.455,0.205
4228,0.475,0.230
4229,0.505,0.230
4230,0.490,0.220
4231,0.490,0.220
4232,0.495,0.225
4233,0.525,0.250
4234,0.560,0.260
4235,0.565,0.255
4236,0.585,0.260
4237,0.585,0.265
4238,0.585,0.285
4239,0.635,0.310
4240,0.665,0.340
4241,0.700,0.330
4242,0.705,0.330
4243,0.735,0.325
4244,0.755,0.340
4245,0.765,0.365
4246,0.815,0.390
4247,0.855,0.380
4248,0.870,0.370
4249,0.880,0.365
4250,0.900,0.385
4251,0.915,0.400
4252,0.950,0.405
4253,0.975,0.395
4254,0.975,0.395
4255,1.005,0.395
4256,1.040,0.415
4257,1.065,0.440
4258,1.105,0.445
4259,1.135,0.460
4260,1.135,0.435
4261,1.145,0.445
4262,1.150,0.475
4263,1.185,0.480
4264,1.200,0.500
4265,1.220,0.485
4266,1.210,0.505
4267,1.185,0.505
4268,1.165,0.515
4269,1.150,0.535
4270,1.130,0.520
4271,1.110,0.505
4272,1.070,0.495
4273,1.045,0.505
4274,1.025,0.535
4275,1.000,0.560
4276,0.985,0.570
4277,0.955,0.550
4278,0.920,0.555
4279,0.865,0.520
4280,0.825,0.520
4281,0.790,0.540
4282,0.760,0.530
4283,0.725,0.515
4284,0.680,0.500
4285,0.620,0.470
4286,0.580,0.475
4287,0.540,0.470
4288,0.495,0.465
4289,0.455,0.435
4290,0.405,0.395
4291,0.340,0.365
4292,0.300,0.350
4293,0.280,0.350
4294,0.265,0.335
4295,0.235,0.300
4296,0.200,0.260
4297,0.155,0.240
4298,0.140,0.230
4299,0.150,0.230
4300,0.145,0.220
4301,0.125,0.205
4302,0.095,0.175
4303,0.075,0.145
4304,0.050,0.155
4305,0.070,0.160
4306,0.080,0.155
4307,0.080,0.130
4308,0.075,0.110
4309,0.055,0.090
4310,0.060,0.095
4311,0.035,0.100
4312,0.055,0.105
4313,0.060,0.100
4314,0.050,0.085
4315,0.025,0.075
4316,0.005,0.080
4317,0.000,0.090
4318,0.000,0.105
4319,0.000,0.085
4320,-0.005,0.080
4321,-0.025,0.075
4322,-0.030,0.095
4323,-0.015,0.110
4324,-0.015,0.125
4325,-0.030,0.130
4326,-0.040,0.110
4327,-0.070,0.100
4328,-0.070,0.120
4329,-0.075,0.135
4330,-0.045,0.160
4331,-0.045,0.160
4332,-0.045,0.160
4333,-0.055,0.150
4334,-0.045,0.155
4335,-0.035,0.160
4336,-0.025,0.155
4337,-0.015,0.160
4338,-0.030,0.120
4339,-0.045,0.125
4340,-0.050,0.120
4341,-0.065,0.125
4342,-0.060,0.135
4343,-0.075,0.135
4344,-0.090,0.105
4345,-0.120,0.105
4346,-0.105,0.115
4347,-0.100,0.135
4348,-0.090,0.125
4349,-0.095,0.125
4350,-0.125,0.105
4351,-0.130,0.095
4352,-0.125,0.095
4353,-0.110,0.100
4354,-0.105,0.105
4355,-0.095,0.095
4356,-0.115,0.075
4357,-0.125,0.065
4358,-0.150,0.085
4359,-0.145,0.090
4360,-0.135,0.100
4361,-0.150,0.085
4362,-0.135,0.075
4363,-0.135,0.065
4364,-0.135,0.085
4365,-0.130,0.085
4366,-0.125,0.110
4367,-0.120,0.095
4368,-0.130,0.095
4369,-0.130,0.085
4370,-0.130,0.095
4371,-0.130,0.120
4372,-0.115,0.125
4373,-0.120,0.125
4374,-0.150,0.110
4375,-0.145,0.100
4376,-0.150,0.115
4377,-0.130,0.125
4378,-0.130,0.135
4379,-0.125,0.110
4380,-0.135,0.095
4381,-0.150,0.085
4382,-0.130,0.100
4383,-0.130,0.120
4384,-0.105,0.135
4385,-0.125,0.115
4386,-0.135,0.090
4387,-0.140,0.090
4388,-0.160,0.085
4389,-0.140,0.090
4390,-0.130,0.100
4391,-0.135,0.095
4392,-0.130,0.075
4393,-0.145,0.065
4394,-0.145,0.075
4395,-0.140,0.070
4396,-0.130,0.080
4397,-0.115,0.075
4398,-0.135,0.070
4399,-0.170,0.050
4400,-0.165,0.055
4401,-0.145,0.070
4402,-0.130,0.085
4403,-0.130,0.075
4404,-0.135,0.055
4405,-0.140,0.040
4406,-0.140,0.045
4407,-0.135,0.065
4408,-0.120,0.075
4409,-0.110,0.060
4410,-0.100,0.055
4411,-0.120,0.035
4412,-0.110,0.045
4413,-0.095,0.055
4414,-0.080,0.075
4415,-0.075,0.075
4416,-0.100,0.060
4417,-0.095,0.045
4418,-0.095,0.050
4419,-0.070,0.060
4420,-0.050,0.070
4421,-0.025,0.050
4422,-0.010,0.025
4423,0.020,0.005
4424,0.150,0.020
4425,0.420,0.015
4426,0.865,0.020
4427,1.290,-0.025
4428,1.455,-0.070
4429,1.295,-0.150
4430,1.055,-0.300
4431,0.910,-0.540
4432,0.880,-0.855
4433,0.825,-1.125
4434,0.740,-1.185
4435,0.610,-1.095
4436,0.495,-1.000
4437,0.390,-0.930
4438,0.280,-0.895
4439,0.160,-0.890
4440,0.015,-0.890
4441,-0.135,-0.880
4442,-0.295,-0.875
4443,-0.470,-0.875
4444,-0.625,-0.880
4445,-0.820,-0.895
4446,-1.005,-0.915
4447,-1.200,-0.930
4448,-1.345,-0.925
4449,-1.455,-0.915
4450,-1.535,-0.905
4451,-1.635,-0.915
4452,-1.740,-0.930
4453,-1.845,-0.955
4454,-1.915,-0.955
4455,-1.960,-0.945
4456,-1.975,-0.945
4457,-1.980,-0.950
4458,-1.995,-0.960
4459,-2.010,-0.970
4460,-1.970,-0.965
4461,-1.915,-0.960
4462,-1.840,-0.980
4463,-1.760,-0.990
4464,-1.665,-1.020
4465,-1.555,-1.030
4466,-1.445,-1.040
4467,-1.270,-1.025
4468,-1.095,-1.000
4469,-0.950,-0.985
4470,-0.875,-0.955
4471,-0.820,-0.920
4472,-0.765,-0.875
4473,-0.690,-0.825
4474,-0.600,-0.790
4475,-0.530,-0.750
4476,-0.460,-0.720
4477,-0.420,-0.680
4478,-0.350,-0.620
4479,-0.285,-0.545
4480,-0.210,-0.475
4481,-0.140,-0.410
4482,-0.065,-0.365
4483,-0.030,-0.305
4484,0.020,-0.245
4485,0.065,-0.180
4486,0.130,-0.115
4487,0.160,-0.075
4488,0.190,-0.045
4489,0.200,-0.010
4490,0.200,0.015
4491,0.210,0.075
4492,0.250,0.080
4493,0.230,0.100
4494,0.225,0.105
4495,0.220,0.105
4496,0.240,0.120
4497,0.265,0.160
4498,0.300,0.180
4499,0.305,0.185
4500,0.295,0.175
4501,0.285,0.170
4502,0.280,0.190
4503,0.320,0.210
4504,0.335,0.230
4505,0.350,0.220
4506,0.355,0.235
4507,0.355,0.235
4508,0.355,0.250
4509,0.375,0.275
4510,0.400,0.290
4511,0.415,0.290
4512,0.420,0.280
4513,0.405,0.280
4514,0.425,0.285
4515,0.460,0.300
4516,0.475,0.330
4517,0.500,0.310
4518,0.495,0.305
4519,0.515,0.310
4520,0.505,0.330
4521,0.530,0.340
4522,0.560,0.345
4523,0.575,0.320
4524,0.590,0.325
4525,0.595,0.330
4526,0.610,0.340
4527,0.645,0.345
4528,0.685,0.350
4529,0.725,0.340
4530,0.725,0.340
4531,0.740,0.335
4532,0.780,0.350
4533,0.800,0.365
4534,0.840,0.385
4535,0.875,0.390
4536,0.880,0.380
4537,0.895,0.380
4538,0.915,0.400
4539,0.945,0.430
4540,0.970,0.445
4541,0.985,0.460
4542,0.970,0.470
4543,0.970,0.475
4544,0.980,0.505
4545,1.000,0.520
4546,1.035,0.530
4547,1.040,0.535
4548,1.030,0.535
4549,1.025,0.540
4550,1.025,0.560
4551,1.030,0.600
4552,1.025,0.620
4553,1.020,0.610
4554,0.980,0.600
4555,0.955,0.605
4556,0.925,0.610
4557,0.910,0.640
4558,0.910,0.650
4559,0.870,0.625
4560,0.825,0.600
4561,0.750,0.600
4562,0.720,0.585
4563,0.680,0.590
4564,0.640,0.585
4565,0.595,0.560
4566,0.530,0.530
4567,0.460,0.505
4568,0.440,0.490
4569,0.405,0.485
4570,0.375,0.475
4571,0.335,0.435
4572,0.285,0.390
4573,0.225,0.355
4574,0.200,0.340
4575,0.170,0.335
4576,0.155,0.330
4577,0.135,0.300
4578,0.090,0.265
4579,0.055,0.245
4580,0.035,0.235
4581,0.025,0.235
4582,0.030,0.230
4583,0.005,0.200
4584,-0.010,0.165
4585,-0.035,0.150
4586,-0.055,0.165
4587,-0.060,0.160
4588,-0.040,0.175
4589,-0.055,0.170
4590,-0.075,0.135
4591,-0.090,0.115
4592,-0.100,0.125
4593,-0.085,0.130
4594,-0.070,0.135
4595,-0.065,0.140
4596,-0.080,0.125
4597,-0.080,0.125
4598,-0.080,0.150
4599,-0.065,0.160
4600,-0.065,0.165
4601,-0.075,0.165
4602,-0.085,0.155
4603,-0.100,0.140
4604,-0.105,0.155
4605,-0.095,0.160
4606,-0.085,0.170
4607,-0.085,0.160
4608,-0.110,0.145
4609,-0.115,0.155
4610,-0.115,0.155
4611,-0.100,0.170
4612,-0.080,0.175
4613,-0.090,0.165
4614,-0.110,0.145
4615,-0.110,0.140
4616,-0.125,0.150
4617,-0.120,0.150
4618,-0.110,0.160
4619,-0.095,0.150
4620,-0.115,0.125
4621,-0.125,0.115
4622,-0.135,0.115
4623,-0.140,0.120
4624,-0.120,0.130
4625,-0.125,0.105
4626,-0.135,0.095
4627,-0.160,0.090
4628,-0.150,0.085
4629,-0.140,0.095
4630,-0.125,0.095
4631,-0.150,0.090
4632,-0.145,0.085
4633,-0.160,0.090
4634,-0.165,0.090
4635,-0.165,0.085
4636,-0.150,0.105
4637,-0.155,0.105
4638,-0.175,0.085
4639,-0.205,0.080
4640,-0.195,0.100
4641,-0.185,0.105
4642,-0.170,0.115
4643,-0.155,0.120
4644,-0.190,0.100
4645,-0.205,0.080
4646,-0.210,0.115
4647,-0.205,0.125
4648,-0.195,0.140
4649,-0.180,0.130
4650,-0.195,0.105
4651,-0.215,0.115
4652,-0.210,0.115
4653,-0.200,0.120
4654,-0.195,0.120
4655,-0.190,0.115
4656,-0.185,0.120
4657,-0.210,0.105
4658,-0.210,0.110
4659,-0.175,0.125
4660,-0.175,0.125
4661,-0.165,0.115
4662,-0.180,0.090
4663,-0.200,0.090
4664,-0.210,0.080
4665,-0.200,0.095
4666,-0.200,0.105
4667,-0.190,0.095
4668,-0.195,0.080
4669,-0.225,0.070
4670,-0.220,0.070
4671,-0.195,0.070
4672,-0.185,0.085
4673,-0.195,0.075
4674,-0.200,0.060
4675,-0.205,0.060
4676,-0.210,0.065
4677,-0.195,0.075
4678,-0.190,0.080
4679,-0.200,0.065
4680,-0.210,0.050
4681,-0.235,0.040
4682,-0.250,0.055
4683,-0.220,0.075
4684,-0.205,0.075
4685,-0.210,0.065
4686,-0.210,0.060
4687,-0.215,0.060
4688,-0.210,0.065
4689,-0.190,0.085
4690,-0.180,0.080
4691,-0.185,0.070
4692,-0.175,0.060
4693,-0.190,0.050
4694,-0.190,0.065
4695,-0.190,0.085
4696,-0.170,0.095
4697,-0.195,0.090
4698,-0.200,0.085
4699,-0.205,0.075
4700,-0.200,0.085
4701,-0.190,0.090
4702,-0.155,0.095
4703,-0.140,0.085
4704,-0.135,0.075
4705,-0.130,0.075
4706,-0.100,0.060
4707,-0.045,0.080
4708,0.045,0.070
4709,0.230,0.060
4710,0.580,0.045
4711,1.020,0.025
4712,1.310,0.020
4713,1.300,-0.025
4714,1.095,-0.085
4715,0.910,-0.230
4716,0.795,-0.465
4717,0.725,-0.780
4718,0.680,-1.055
4719,0.590,-1.180
4720,0.520,-1.135
4721,0.430,-1.025
4722,0.300,-0.945
4723,0.185,-0.920
4724,0.055,-0.890
4725,-0.040,-0.865
4726,-0.150,-0.840
4727,-0.270,-0.840
4728,-0.435,-0.845
4729,-0.575,-0.860
4730,-0.725,-0.865
4731,-0.880,-0.870
4732,-1.045,-0.870
4733,-1.220,-0.905
4734,-1.385,-0.915
4735,-1.515,-0.935
4736,-1.620,-0.910
4737,-1.690,-0.915
4738,-1.745,-0.925
4739,-1.820,-0.940
4740,-1.885,-0.965
4741,-1.935,-0.975
4742,-1.955,-0.985
4743,-1.970,-0.980
4744,-1.950,-0.960
4745,-1.950,-0.980
4746,-1.900,-1.025
4747,-1.870,-1.040
4748,-1.835,-1.080
4749,-1.750,-1.105
4750,-1.635,-1.120
4751,-1.515,-1.135
4752,-1.365,-1.175
4753,-1.235,-1.175
4754,-1.095,-1.150
4755,-0.980,-1.110
4756,-0.900,-1.055
4757,-0.875,-1.030
4758,-0.865,-0.990
4759,-0.835,-0.985
4760,-0.780,-0.940
4761,-0.710,-0.865
4762,-0.645,-0.815
4763,-0.570,-0.770
4764,-0.515,-0.715
4765,-0.465,-0.660
4766,-0.405,-0.595
4767,-0.310,-0.525
4768,-0.225,-0.445
4769,-0.175,-0.385
4770,-0.120,-0.320
4771,-0.085,-0.275
4772,-0.050,-0.210
4773,-0.015,-0.135
4774,0.020,-0.095
4775,0.045,-0.035
4776,0.055,-0.005
4777,0.050,0.035
4778,0.060,0.075
4779,0.105,0.120
4780,0.120,0.150
4781,0.125,0.145
4782,0.135,0.155
4783,0.125,0.155
4784,0.135,0.185
4785,0.135,0.205
4786,0.170,0.220
4787,0.170,0.220
4788,0.165,0.205
4789,0.155,0.225
4790,0.155,0.235
4791,0.165,0.255
4792,0.185,0.270
4793,0.190,0.280
4794,0.190,0.275
4795,0.195,0.285
4796,0.230,0.300
4797,0.245,0.325
4798,0.285,0.335
4799,0.300,0.335
4800,0.290,0.335
4801,0.295,0.335
4802,0.290,0.355
4803,0.330,0.375
4804,0.350,0.405
4805,0.360,0.405
4806,0.355,0.395
4807,0.355,0.400
4808,0.355,0.420
4809,0.380,0.440
4810,0.420,0.450
4811,0.430,0.465
4812,0.410,0.455
4813,0.425,0.445
4814,0.440,0.465
4815,0.465,0.470
4816,0.485,0.490
4817,0.495,0.490
4818,0.505,0.465
4819,0.505,0.470
4820,0.530,0.485
4821,0.560,0.505
4822,0.590,0.520
4823,0.610,0.520
4824,0.620,0.510
4825,0.610,0.520
4826,0.615,0.530
4827,0.645,0.555
4828,0.685,0.575
4829,0.695,0.570
4830,0.715,0.575
4831,0.715,0.580
4832,0.725,0.595
4833,0.760,0.630
4834,0.780,0.640
4835,0.790,0.640
4836,0.785,0.630
4837,0.775,0.635
4838,0.780,0.635
4839,0.810,0.645
4840,0.815,0.650
4841,0.810,0.650
4842,0.800,0.655
4843,0.805,0.650
4844,0.805,0.670
4845,0.825,0.685
4846,0.840,0.695
4847,0.830,0.685
4848,0.785,0.670
4849,0.765,0.655
4850,0.750,0.650
4851,0.730,0.660
4852,0.725,0.665
4853,0.690,0.655
4854,0.655,0.630
4855,0.605,0.620
4856,0.570,0.635
4857,0.560,0.640
4858,0.535,0.635
4859,0.490,0.625
4860,0.440,0.605
4861,0.400,0.600
4862,0.355,0.595
4863,0.320,0.585
4864,0.305,0.570
4865,0.265,0.540
4866,0.215,0.525
4867,0.180,0.485
4868,0.135,0.485
4869,0.110,0.465
4870,0.085,0.450
4871,0.070,0.430
4872,0.030,0.395
4873,0.000,0.370
4874,-0.030,0.370
4875,-0.030,0.355
4876,-0.045,0.340
4877,-0.065,0.335
4878,-0.080,0.315
4879,-0.115,0.290
4880,-0.120,0.290
4881,-0.145,0.300
4882,-0.155,0.295
4883,-0.165,0.290
4884,-0.155,0.275
4885,-0.170,0.260
4886,-0.170,0.240
4887,-0.150,0.255
4888,-0.125,0.265
4889,-0.120,0.260
4890,-0.120,0.250
4891,-0.150,0.230
4892,-0.150,0.230
4893,-0.135,0.240
4894,-0.110,0.245
4895,-0.085,0.230
4896,-0.085,0.230
4897,-0.090,0.225
4898,-0.100,0.230
4899,-0.095,0.230
4900,-0.075,0.235
4901,-0.080,0.215
4902,-0.105,0.190
4903,-0.130,0.195
4904,-0.145,0.190
4905,-0.145,0.190
4906,-0.125,0.200
4907,-0.125,0.195
4908,-0.135,0.185
4909,-0.160,0.190
4910,-0.155,0.195
4911,-0.140,0.205
4912,-0.140,0.205
4913,-0.150,0.195
4914,-0.180,0.195
4915,-0.215,0.185
4916,-0.205,0.200
4917,-0.185,0.200
4918,-0.180,0.225
4919,-0.185,0.210
4920,-0.200,0.190
4921,-0.215,0.190
4922,-0.235,0.200
4923,-0.235,0.215
4924,-0.225,0.230
4925,-0.225,0.220
4926,-0.245,0.200
4927,-0.245,0.200
4928,-0.245,0.215
4929,-0.240,0.220
4930,-0.225,0.235
4931,-0.230,0.230
4932,-0.235,0.210
4933,-0.250,0.205
4934,-0.250,0.215
4935,-0.250,0.220
4936,-0.250,0.230
4937,-0.230,0.220
4938,-0.250,0.220
4939,-0.250,0.200
4940,-0.265,0.220
4941,-0.235,0.230
4942,-0.230,0.240
4943,-0.245,0.240
4944,-0.245,0.230
4945,-0.265,0.220
4946,-0.250,0.225
4947,-0.235,0.230
4948,-0.215,0.230
4949,-0.220,0.205
4950,-0.225,0.200
4951,-0.230,0.220
4952,-0.225,0.215
4953,-0.205,0.210
4954,-0.195,0.205
4955,-0.205,0.185
4956,-0.240,0.160
4957,-0.255,0.145
4958,-0.260,0.135
4959,-0.255,0.155
4960,-0.230,0.170
4961,-0.235,0.150
4962,-0.250,0.140
4963,-0.260,0.135
4964,-0.270,0.150
4965,-0.255,0.160
4966,-0.250,0.165
4967,-0.260,0.155
4968,-0.270,0.145
4969,-0.280,0.140
4970,-0.280,0.170
4971,-0.265,0.175
4972,-0.260,0.185
4973,-0.255,0.165
4974,-0.265,0.150
4975,-0.265,0.160
4976,-0.270,0.165
4977,-0.250,0.180
4978,-0.240,0.180
4979,-0.245,0.180
4980,-0.245,0.155
4981,-0.265,0.145
4982,-0.285,0.150
4983,-0.265,0.165
4984,-0.245,0.180
4985,-0.225,0.175
4986,-0.235,0.160
4987,-0.245,0.145
4988,-0.245,0.155
4989,-0.245,0.170
4990,-0.220,0.170
4991,-0.220,0.160
4992,-0.220,0.150
4993,-0.235,0.130
4994,-0.250,0.130
4995,-0.215,0.140
4996,-0.220,0.130
4997,-0.195,0.130
4998,-0.205,0.110
4999,-0.220,0.100
5000,-0.210,0.090
5001,-0.205,0.105
5002,-0.185,0.115
5003,-0.170,0.105
5004,-0.185,0.080
5005,-0.205,0.060
5006,-0.190,0.080
5007,-0.180,0.085
5008,-0.140,0.090
5009,-0.135,0.080
5010,-0.085,0.050
5011,-0.005,0.040
5012,0.210,0.035
5013,0.610,0.050
5014,1.040,0.035
5015,1.285,-0.005
5016,1.215,-0.080
5017,1.000,-0.195
5018,0.825,-0.365
5019,0.755,-0.625
5020,0.720,-0.920
5021,0.670,-1.065
5022,0.555,-1.030
5023,0.455,-0.935
5024,0.355,-0.845
5025,0.230,-0.810
5026,0.120,-0.785
5027,0.010,-0.770
5028,-0.120,-0.760
5029,-0.255,-0.765
5030,-0.395,-0.750
5031,-0.525,-0.730
5032,-0.670,-0.740
5033,-0.815,-0.745
5034,-0.990,-0.775
5035,-1.150,-0.795
5036,-1.290,-0.800
5037,-1.405,-0.785
5038,-1.510,-0.795
5039,-1.615,-0.800
5040,-1.710,-0.810
5041,-1.775,-0.835
5042,-1.855,-0.830
5043,-1.900,-0.840
5044,-1.910,-0.830
5045,-1.940,-0.855
5046,-1.965,-0.865
5047,-1.945,-0.895
5048,-1.920,-0.925
5049,-1.890,-0.920
5050,-1.815,-0.940
5051,-1.740,-0.980
5052,-1.670,-1.015
5053,-1.585,-1.035
5054,-1.450,-1.040
5055,-1.305,-1.040
5056,-1.170,-1.035
5057,-1.050,-1.035
5058,-0.975,-1.010
5059,-0.940,-0.985
5060,-0.890,-0.925
5061,-0.850,-0.905
5062,-0.800,-0.860
5063,-0.740,-0.825
5064,-0.705,-0.810
5065,-0.660,-0.755
5066,-0.590,-0.690
5067,-0.515,-0.610
5068,-0.445,-0.545
5069,-0.370,-0.485
5070,-0.330,-0.435
5071,-0.265,-0.385
5072,-0.205,-0.305
5073,-0.135,-0.225
5074,-0.075,-0.170
5075,0.005,-0.100
5076,0.020,-0.055
5077,0.040,-0.010
5078,0.070,0.060
5079,0.110,0.115
5080,0.145,0.165
5081,0.155,0.185
5082,0.155,0.200
5083,0.140,0.230
5084,0.150,0.250
5085,0.180,0.280
5086,0.200,0.315
5087,0.210,0.300
5088,0.210,0.310
5089,0.210,0.320
5090,0.210,0.340
5091,0.220,0.370
5092,0.245,0.370
5093,0.245,0.355
5094,0.240,0.350
5095,0.245,0.350
5096,0.225,0.365
5097,0.240,0.380
5098,0.270,0.390
5099,0.280,0.380
5100,0.290,0.365
5101,0.285,0.360
5102,0.300,0.375
5103,0.325,0.385
5104,0.350,0.400
5105,0.355,0.390
5106,0.355,0.375
5107,0.365,0.375
5108,0.370,0.390
5109,0.400,0.405
5110,0.430,0.400
5111,0.435,0.405
5112,0.450,0.395
5113,0.445,0.395
5114,0.465,0.395
5115,0.500,0.405
5116,0.540,0.420
5117,0.555,0.420
5118,0.550,0.415
5119,0.560,0.420
5120,0.580,0.430
5121,0.600,0.450
5122,0.640,0.460
5123,0.650,0.465
5124,0.665,0.465
5125,0.660,0.470
5126,0.670,0.490
5127,0.700,0.520
5128,0.760,0.540
5129,0.785,0.530
5130,0.785,0.535
5131,0.800,0.545
5132,0.815,0.570
5133,0.840,0.610
5134,0.885,0.650
5135,0.900,0.645
5136,0.885,0.650
5137,0.885,0.640
5138,0.895,0.660
5139,0.920,0.680
5140,0.955,0.690
5141,0.955,0.700
5142,0.955,0.685
5143,0.935,0.700
5144,0.935,0.730
5145,0.935,0.735
5146,0.925,0.735
5147,0.935,0.730
5148,0.915,0.730
5149,0.895,0.720
5150,0.875,0.740
5151,0.865,0.750
5152,0.865,0.755
5153,0.840,0.735
5154,0.795,0.725
5155,0.755,0.710
5156,0.735,0.720
5157,0.725,0.720
5158,0.700,0.720
5159,0.655,0.685
5160,0.605,0.665
5161,0.555,0.640
5162,0.510,0.630
5163,0.475,0.630
5164,0.450,0.615
5165,0.390,0.585
5166,0.360,0.550
5167,0.315,0.530
5168,0.275,0.520
5169,0.245,0.495
5170,0.225,0.495
5171,0.200,0.465
5172,0.160,0.430
5173,0.125,0.400
5174,0.090,0.395
5175,0.080,0.400
5176,0.065,0.395
5177,0.040,0.380
5178,0.015,0.345
5179,-0.020,0.340
5180,-0.035,0.325
5181,-0.030,0.340
5182,-0.035,0.335
5183,-0.050,0.320
5184,-0.070,0.305
5185,-0.085,0.290
5186,-0.100,0.305
5187,-0.085,0.315
5188,-0.090,0.325
5189,-0.090,0.300
5190,-0.110,0.290
5191,-0.120,0.280
5192,-0.120,0.305
5193,-0.095,0.315
5194,-0.085,0.315
5195,-0.085,0.315
5196,-0.105,0.305
5197,-0.120,0.290
5198,-0.115,0.300
5199,-0.115,0.305
5200,-0.090,0.325
5201,-0.110,0.305
5202,-0.120,0.290
5203,-0.135,0.280
5204,-0.115,0.300
5205,-0.115,0.310
5206,-0.100,0.315
5207,-0.095,0.305
5208,-0.095,0.270
5209,-0.115,0.290
5210,-0.135,0.280
5211,-0.120,0.300
5212,-0.105,0.290
5213,-0.100,0.280
5214,-0.115,0.275
5215,-0.130,0.255
5216,-0.135,0.275
5217,-0.145,0.265
5218,-0.130,0.270
5219,-0.130,0.270
5220,-0.145,0.250
5221,-0.160,0.250
5222,-0.155,0.265
5223,-0.155,0.265
5224,-0.130,0.265
5225,-0.140,0.260
5226,-0.155,0.240
5227,-0.175,0.230
5228,-0.170,0.240
5229,-0.160,0.250
5230,-0.155,0.250
5231,-0.180,0.240
5232,-0.195,0.255
5233,-0.230,0.245
5234,-0.235,0.235
5235,-0.230,0.260
5236,-0.200,0.260
5237,-0.200,0.250
5238,-0.215,0.250
5239,-0.215,0.250
5240,-0.205,0.255
5241,-0.205,0.280
5242,-0.185,0.275
5243,-0.180,0.275
5244,-0.200,0.260
5245,-0.210,0.265
5246,-0.205,0.285
5247,-0.185,0.300
5248,-0.185,0.310
5249,-0.190,0.315
5250,-0.215,0.300
5251,-0.230,0.295
5252,-0.225,0.290
5253,-0.210,0.300
5254,-0.180,0.300
5255,-0.185,0.295
5256,-0.185,0.265
5257,-0.195,0.265
5258,-0.195,0.265
5259,-0.185,0.285
5260,-0.170,0.280
5261,-0.160,0.280
5262,-0.190,0.255
5263,-0.205,0.245
5264,-0.210,0.260
5265,-0.200,0.260
5266,-0.190,0.265
5267,-0.180,0.255
5268,-0.185,0.235
5269,-0.195,0.225
5270,-0.215,0.230
5271,-0.205,0.255
5272,-0.185,0.240
5273,-0.185,0.225
5274,-0.210,0.210
5275,-0.215,0.200
5276,-0.210,0.205
5277,-0.195,0.215
5278,-0.180,0.210
5279,-0.185,0.210
5280,-0.205,0.180
5281,-0.215,0.170
5282,-0.225,0.185
5283,-0.210,0.195
5284,-0.230,0.190
5285,-0.230,0.190
5286,-0.230,0.175
5287,-0.255,0.185
5288,-0.250,0.190
5289,-0.240,0.195
5290,-0.220,0.190
5291,-0.225,0.195
5292,-0.235,0.195
5293,-0.245,0.170
5294,-0.235,0.195
5295,-0.215,0.215
5296,-0.190,0.220
5297,-0.175,0.225
5298,-0.195,0.210
5299,-0.210,0.195
5300,-0.190,0.220
5301,-0.190,0.235
5302,-0.175,0.240
5303,-0.170,0.230
5304,-0.180,0.225
5305,-0.190,0.210
5306,-0.195,0.220
5307,-0.180,0.225
5308,-0.145,0.240
5309,-0.165,0.220
5310,-0.165,0.210
5311,-0.175,0.215
5312,-0.155,0.215
5313,-0.145,0.215
5314,-0.125,0.215
5315,-0.125,0.215
5316,-0.140,0.200
5317,-0.140,0.185
5318,-0.135,0.195
5319,-0.105,0.205
5320,-0.105,0.200
5321,-0.085,0.175
5322,-0.065,0.165
5323,-0.055,0.150
5324,0.030,0.150
5325,0.225,0.150
5326,0.575,0.140
5327,1.000,0.125
5328,1.290,0.085
5329,1.315,0.060
5330,1.145,0.010
5331,0.970,-0.060
5332,0.880,-0.210
5333,0.810,-0.465
5334,0.760,-0.755
5335,0.660,-0.940
5336,0.570,-0.920
5337,0.485,-0.835
5338,0.400,-0.775
5339,0.330,-0.750
5340,0.225,-0.740
5341,0.105,-0.740
5342,0.000,-0.710
5343,-0.090,-0.680
5344,-0.180,-0.680
5345,-0.300,-0.680
5346,-0.440,-0.690
5347,-0.590,-0.695
5348,-0.740,-0.685
5349,-0.900,-0.675
5350,-1.040,-0.675
5351,-1.195,-0.685
5352,-1.345,-0.720
5353,-1.490,-0.740
5354,-1.570,-0.740
5355,-1.645,-0.720
5356,-1.690,-0.730
5357,-1.775,-0.730
5358,-1.835,-0.740
5359,-1.885,-0.755
5360,-1.925,-0.755
5361,-1.910,-0.730
5362,-1.900,-0.740
5363,-1.890,-0.725
5364,-1.880,-0.750
5365,-1.850,-0.765
5366,-1.820,-0.790
5367,-1.765,-0.795
5368,-1.685,-0.815
5369,-1.585,-0.850
5370,-1.495,-0.860
5371,-1.410,-0.885
5372,-1.280,-0.875
5373,-1.145,-0.850
5374,-1.010,-0.830
5375,-0.910,-0.805
5376,-0.850,-0.790
5377,-0.815,-0.775
5378,-0.775,-0.740
5379,-0.720,-0.695
5380,-0.650,-0.650
5381,-0.590,-0.630
5382,-0.545,-0.605
5383,-0.490,-0.550
5384,-0.425,-0.490
5385,-0.345,-0.415
5386,-0.275,-0.355
5387,-0.205,-0.305
5388,-0.160,-0.265
5389,-0.120,-0.195
5390,-0.065,-0.135
5391,0.000,-0.070
5392,0.030,-0.005
5393,0.055,0.035
5394,0.060,0.070
5395,0.070,0.100
5396,0.095,0.155
5397,0.140,0.185
5398,0.175,0.215
5399,0.180,0.235
5400,0.180,0.230
5401,0.190,0.245
5402,0.190,0.260
5403,0.210,0.290
5404,0.220,0.320
5405,0.210,0.315
5406,0.230,0.325
5407,0.215,0.335
5408,0.215,0.350
5409,0.255,0.390
5410,0.285,0.400
5411,0.280,0.385
5412,0.295,0.395
5413,0.300,0.390
5414,0.290,0.395
5415,0.320,0.435
5416,0.345,0.440
5417,0.340,0.430
5418,0.340,0.425
5419,0.340,0.425
5420,0.345,0.440
5421,0.365,0.455
5422,0.405,0.455
5423,0.405,0.445
5424,0.410,0.440
5425,0.400,0.445
5426,0.420,0.465
5427,0.430,0.470
5428,0.465,0.480
5429,0.470,0.465
5430,0.465,0.445
5431,0.470,0.450
5432,0.475,0.470
5433,0.485,0.475
5434,0.520,0.485
5435,0.545,0.470
5436,0.535,0.475
5437,0.535,0.455
5438,0.555,0.475
5439,0.595,0.505
5440,0.630,0.500
5441,0.640,0.490
5442,0.640,0.490
5443,0.635,0.475
5444,0.650,0.500
5445,0.670,0.515
5446,0.720,0.540
5447,0.735,0.545
5448,0.755,0.545
5449,0.760,0.560
5450,0.775,0.580
5451,0.800,0.600
5452,0.825,0.610
5453,0.860,0.605
5454,0.845,0.610
5455,0.865,0.615
5456,0.880,0.620
5457,0.905,0.660
5458,0.935,0.670
5459,0.945,0.690
5460,0.930,0.685
5461,0.935,0.690
5462,0.930,0.705
5463,0.955,0.715
5464,0.975,0.735
5465,0.965,0.740
5466,0.935,0.725
5467,0.930,0.720
5468,0.895,0.735
5469,0.905,0.750
5470,0.905,0.745
5471,0.890,0.745
5472,0.860,0.735
5473,0.835,0.730
5474,0.815,0.740
5475,0.785,0.745
5476,0.790,0.760
5477,0.740,0.740
5478,0.705,0.720
5479,0.680,0.715
5480,0.645,0.720
5481,0.610,0.720
5482,0.590,0.725
5483,0.565,0.680
5484,0.510,0.655
5485,0.465,0.645
5486,0.440,0.640
5487,0.415,0.630
5488,0.395,0.620
5489,0.350,0.600
5490,0.300,0.560
5491,0.260,0.545
5492,0.230,0.555
5493,0.215,0.545
5494,0.205,0.535
5495,0.170,0.505
5496,0.150,0.485
5497,0.115,0.460
5498,0.105,0.440
5499,0.085,0.435
5500,0.080,0.440
5501,0.060,0.430
5502,0.040,0.395
5503,0.010,0.390
5504,0.000,0.370
5505,0.005,0.375
5506,-0.005,0.375
5507,-0.015,0.370
5508,-0.030,0.345
5509,-0.045,0.335
5510,-0.060,0.345
5511,-0.040,0.325
5512,-0.030,0.350
5513,-0.040,0.325
5514,-0.045,0.315
5515,-0.055,0.310
5516,-0.070,0.330
5517,-0.070,0.345
5518,-0.050,0.350
5519,-0.045,0.345
5520,-0.070,0.335
5521,-0.065,0.335
5522,-0.070,0.345
5523,-0.055,0.365
5524,-0.045,0.355
5525,-0.055,0.350
5526,-0.075,0.340
5527,-0.075,0.325
5528,-0.075,0.335
5529,-0.060,0.345
5530,-0.060,0.340
5531,-0.060,0.340
5532,-0.070,0.330
5533,-0.070,0.330
5534,-0.070,0.325
5535,-0.055,0.335
5536,-0.050,0.335
5537,-0.055,0.335
5538,-0.075,0.310
5539,-0.080,0.310
5540,-0.095,0.315
5541,-0.070,0.325
5542,-0.065,0.315
5543,-0.080,0.305
5544,-0.090,0.290
5545,-0.115,0.275
5546,-0.125,0.285
5547,-0.130,0.305
5548,-0.090,0.290
5549,-0.105,0.290
5550,-0.110,0.280
5551,-0.120,0.280
5552,-0.110,0.280
5553,-0.100,0.300
5554,-0.085,0.300
5555,-0.085,0.285
5556,-0.100,0.265
5557,-0.120,0.270
5558,-0.125,0.280
5559,-0.120,0.295
5560,-0.115,0.305
5561,-0.125,0.295
5562,-0.135,0.285
5563,-0.160,0.280
5564,-0.160,0.295
5565,-0.150,0.320
5566,-0.150,0.320
5567,-0.155,0.305
5568,-0.155,0.300
5569,-0.170,0.300
5570,-0.155,0.295
5571,-0.140,0.305
5572,-0.135,0.315
5573,-0.150,0.290
5574,-0.165,0.280
5575,-0.180,0.280
5576,-0.170,0.295
5577,-0.155,0.300
5578,-0.135,0.300
5579,-0.140,0.280
5580,-0.150,0.280
5581,-0.160,0.280
5582,-0.170,0.295
5583,-0.155,0.310
5584,-0.145,0.315
5585,-0.160,0.315
5586,-0.155,0.285
5587,-0.160,0.285
5588,-0.160,0.295
5589,-0.160,0.295
5590,-0.155,0.300
5591,-0.145,0.300
5592,-0.165,0.275
5593,-0.175,0.280
5594,-0.185,0.280
5595,-0.165,0.295
5596,-0.140,0.295
5597,-0.155,0.290
5598,-0.165,0.265
5599,-0.170,0.260
5600,-0.175,0.260
5601,-0.155,0.270
5602,-0.155,0.280
5603,-0.145,0.260
5604,-0.150,0.245
5605,-0.175,0.240
5606,-0.155,0.250
5607,-0.140,0.260
5608,-0.130,0.265
5609,-0.125,0.260
5610,-0.135,0.245
5611,-0.150,0.240
5612,-0.155,0.245
5613,-0.145,0.255
5614,-0.140,0.265
5615,-0.150,0.255
5616,-0.165,0.250
5617,-0.175,0.255
5618,-0.190,0.265
5619,-0.170,0.275
5620,-0.170,0.290
5621,-0.160,0.270
5622,-0.165,0.265
5623,-0.175,0.260
5624,-0.175,0.275
5625,-0.165,0.295
5626,-0.135,0.300
5627,-0.125,0.290
5628,-0.150,0.275
5629,-0.155,0.270
5630,-0.155,0.285
5631,-0.145,0.285
5632,-0.130,0.300
5633,-0.135,0.285
5634,-0.140,0.265
5635,-0.155,0.275
5636,-0.150,0.280
5637,-0.135,0.290
5638,-0.135,0.300
5639,-0.120,0.285
5640,-0.125,0.260
5641,-0.155,0.255
5642,-0.145,0.255
5643,-0.130,0.270
5644,-0.130,0.265
5645,-0.110,0.250
5646,-0.120,0.235
5647,-0.120,0.240
5648,-0.090,0.225
5649,-0.060,0.240
5650,-0.035,0.240
5651,0.025,0.220
5652,0.105,0.200
5653,0.315,0.195
5654,0.685,0.195
5655,1.125,0.185
5656,1.415,0.170
5657,1.385,0.105
5658,1.190,0.025
5659,0.990,-0.110
5660,0.895,-0.340
5661,0.850,-0.640
5662,0.815,-0.950
5663,0.740,-1.115
5664,0.645,-1.090
5665,0.560,-0.980
5666,0.465,-0.875
5667,0.390,-0.815
5668,0.315,-0.765
5669,0.195,-0.755
5670,0.080,-0.730
5671,-0.040,-0.720
5672,-0.150,-0.695
5673,-0.255,-0.670
5674,-0.365,-0.665
5675,-0.515,-0.680
5676,-0.685,-0.690
5677,-0.845,-0.710
5678,-0.995,-0.700
5679,-1.130,-0.700
5680,-1.245,-0.700
5681,-1.365,-0.695
5682,-1.480,-0.715
5683,-1.575,-0.710
5684,-1.660,-0.705
5685,-1.715,-0.700
5686,-1.760,-0.705
5687,-1.795,-0.715
5688,-1.835,-0.725
5689,-1.830,-0.735
5690,-1.825,-0.740
5691,-1.770,-0.750
5692,-1.720,-0.780
5693,-1.690,-0.810
5694,-1.645,-0.845
5695,-1.585,-0.890
5696,-1.480,-0.910
5697,-1.340,-0.920
5698,-1.195,-0.930
5699,-1.060,-0.940
5700,-0.945,-0.945
5701,-0.855,-0.905
5702,-0.795,-0.880
5703,-0.775,-0.825
5704,-0.750,-0.800
5705,-0.715,-0.775
5706,-0.685,-0.750
5707,-0.630,-0.715
5708,-0.555,-0.650
5709,-0.475,-0.590
5710,-0.395,-0.535
5711,-0.335,-0.475
5712,-0.275,-0.425
5713,-0.225,-0.380
5714,-0.175,-0.295
5715,-0.100,-0.230
5716,-0.030,-0.155
5717,0.010,-0.100
5718,0.035,-0.065
5719,0.040,0.000
5720,0.065,0.070
5721,0.100,0.130
5722,0.135,0.180
5723,0.145,0.210
5724,0.155,0.240
5725,0.160,0.260
5726,0.165,0.305
5727,0.200,0.335
5728,0.230,0.360
5729,0.235,0.365
5730,0.215,0.370
5731,0.215,0.375
5732,0.225,0.405
5733,0.245,0.435
5734,0.260,0.450
5735,0.250,0.465
5736,0.245,0.465
5737,0.255,0.465
5738,0.260,0.480
5739,0.290,0.495
5740,0.325,0.510
5741,0.315,0.505
5742,0.305,0.495
5743,0.330,0.505
5744,0.320,0.510
5745,0.350,0.540
5746,0.370,0.535
5747,0.375,0.530
5748,0.375,0.530
5749,0.375,0.530
5750,0.400,0.540
5751,0.415,0.555
5752,0.440,0.555
5753,0.460,0.540
5754,0.455,0.525
5755,0.455,0.530
5756,0.455,0.550
5757,0.505,0.560
5758,0.520,0.575
5759,0.520,0.560
5760,0.535,0.540
5761,0.545,0.555
5762,0.555,0.565
5763,0.590,0.575
5764,0.625,0.590
5765,0.645,0.585
5766,0.645,0.590
5767,0.650,0.580
5768,0.670,0.605
5769,0.700,0.620
5770,0.730,0.620
5771,0.740,0.625
5772,0.755,0.620
5773,0.765,0.635
5774,0.780,0.655
5775,0.815,0.670
5776,0.830,0.680
5777,0.850,0.685
5778,0.840,0.675
5779,0.845,0.695
5780,0.855,0.710
5781,0.870,0.735
5782,0.900,0.755
5783,0.900,0.760
5784,0.905,0.765
5785,0.890,0.775
5786,0.890,0.800
5787,0.910,0.820
5788,0.910,0.840
5789,0.900,0.840
5790,0.885,0.835
5791,0.855,0.830
5792,0.835,0.855
5793,0.845,0.865
5794,0.845,0.875
5795,0.815,0.875
5796,0.765,0.860
5797,0.730,0.855
5798,0.705,0.865
5799,0.705,0.870
5800,0.695,0.860
5801,0.655,0.845
5802,0.605,0.820
5803,0.575,0.805
5804,0.525,0.805
5805,0.505,0.800
5806,0.475,0.775
5807,0.425,0.750
5808,0.385,0.725
5809,0.345,0.690
5810,0.315,0.670
5811,0.300,0.650
5812,0.280,0.630
5813,0.250,0.610
5814,0.205,0.580
5815,0.180,0.535
5816,0.135,0.535
5817,0.135,0.525
5818,0.110,0.500
5819,0.080,0.480
5820,0.045,0.450
5821,0.025,0.440
5822,0.020,0.415
5823,0.020,0.425
5824,0.035,0.415
5825,0.020,0.390
5826,0.015,0.355
5827,-0.010,0.360
5828,-0.015,0.355
5829,-0.020,0.365
5830,-0.030,0.350
5831,-0.025,0.345
5832,-0.035,0.340
5833,-0.045,0.325
5834,-0.055,0.340
5835,-0.050,0.350
5836,-0.035,0.355
5837,-0.030,0.350
5838,-0.050,0.345
5839,-0.070,0.335
5840,-0.075,0.345
5841,-0.075,0.355
5842,-0.045,0.360
5843,-0.055,0.360
5844,-0.065,0.340
5845,-0.070,0.340
5846,-0.085,0.360
5847,-0.080,0.365
5848,-0.060,0.385
5849,-0.050,0.360
5850,-0.065,0.360
5851,-0.070,0.355
5852,-0.070,0.365
5853,-0.050,0.380
5854,-0.060,0.380
5855,-0.055,0.380
5856,-0.075,0.365
5857,-0.085,0.360
5858,-0.085,0.375
5859,-0.080,0.385
5860,-0.090,0.390
5861,-0.105,0.375
5862,-0.125,0.365
5863,-0.135,0.350
5864,-0.120,0.360
5865,-0.115,0.370
5866,-0.095,0.375
5867,-0.080,0.360
5868,-0.100,0.340
5869,-0.095,0.350
5870,-0.095,0.355
5871,-0.065,0.365
5872,-0.050,0.365
5873,-0.050,0.345
5874,-0.065,0.325
5875,-0.090,0.305
5876,-0.105,0.305
5877,-0.100,0.305
5878,-0.120,0.310
5879,-0.125,0.260
5880,-0.130,0.265
5881,-0.145,0.270
5882,-0.140,0.295
5883,-0.145,0.310
5884,-0.130,0.320
5885,-0.135,0.305
5886,-0.150,0.290
5887,-0.150,0.285
5888,-0.160,0.290
5889,-0.145,0.310
5890,-0.120,0.305
5891,-0.115,0.300
5892,-0.150,0.290
5893,-0.135,0.290
5894,-0.155,0.295
5895,-0.135,0.305
5896,-0.130,0.295
5897,-0.130,0.290
5898,-0.140,0.290
5899,-0.155,0.285
5900,-0.160,0.300
5901,-0.150,0.325
5902,-0.150,0.315
5903,-0.150,0.315
5904,-0.170,0.290
5905,-0.180,0.295
5906,-0.190,0.300
5907,-0.165,0.320
5908,-0.165,0.315
5909,-0.160,0.310
5910,-0.170,0.300
5911,-0.180,0.290
5912,-0.180,0.310
5913,-0.160,0.315
5914,-0.140,0.325
5915,-0.145,0.315
5916,-0.150,0.280
5917,-0.155,0.290
5918,-0.170,0.295
5919,-0.160,0.310
5920,-0.130,0.320
5921,-0.155,0.305
5922,-0.155,0.290
5923,-0.140,0.285
5924,-0.155,0.290
5925,-0.125,0.300
5926,-0.085,0.310
5927,-0.080,0.305
5928,-0.100,0.280
5929,-0.130,0.260
5930,-0.155,0.270
5931,-0.155,0.275
5932,-0.155,0.275
5933,-0.145,0.255
5934,-0.145,0.240
5935,-0.150,0.240
5936,-0.150,0.255
5937,-0.140,0.265
5938,-0.115,0.260
5939,-0.130,0.260
5940,-0.145,0.245
5941,-0.150,0.235
5942,-0.160,0.250
5943,-0.135,0.260
5944,-0.120,0.260
5945,-0.130,0.255
5946,-0.130,0.245
5947,-0.145,0.230
5948,-0.125,0.245
5949,-0.115,0.250
5950,-0.095,0.235
5951,-0.095,0.220
5952,-0.100,0.220
5953,-0.085,0.205
5954,-0.035,0.210
5955,0.060,0.235
5956,0.265,0.225
5957,0.575,0.205
5958,0.980,0.195
5959,1.280,0.180
5960,1.340,0.155
5961,1.190,0.125
5962,1.005,0.050
5963,0.880,-0.110
5964,0.800,-0.370
5965,0.730,-0.705
5966,0.655,-0.925
5967,0.575,-0.940
5968,0.490,-0.820
5969,0.395,-0.730
5970,0.265,-0.715
5971,0.135,-0.700
5972,0.025,-0.665
5973,-0.085,-0.630
5974,-0.195,-0.630
5975,-0.335,-0.640
5976,-0.495,-0.660
5977,-0.655,-0.670
5978,-0.800,-0.655
5979,-0.950,-0.660
5980,-1.090,-0.655
5981,-1.245,-0.685
5982,-1.370,-0.680
5983,-1.490,-0.685
5984,-1.595,-0.680
5985,-1.640,-0.670
5986,-1.700,-0.680
5987,-1.775,-0.700
5988,-1.840,-0.720
5989,-1.885,-0.735
5990,-1.915,-0.725
5991,-1.905,-0.715
5992,-1.875,-0.715
5993,-1.845,-0.735
5994,-1.820,-0.760
5995,-1.770,-0.800
5996,-1.710,-0.805
5997,-1.625,-0.815
5998,-1.505,-0.845
5999,-1.380,-0.865
6000,-1.245,-0.895
6001,-1.130,-0.880
6002,-0.995,-0.855
6003,-0.885,-0.815
6004,-0.810,-0.780
6005,-0.785,-0.740
6006,-0.745,-0.730
6007,-0.705,-0.695
6008,-0.635,-0.645
6009,-0.570,-0.595
6010,-0.490,-0.550
6011,-0.420,-0.510
6012,-0.385,-0.460
6013,-0.315,-0.395
6014,-0.250,-0.340
6015,-0.190,-0.240
6016,-0.095,-0.190
6017,-0.030,-0.135
6018,0.000,-0.095
6019,0.035,-0.035
6020,0.080,0.035
6021,0.120,0.100
6022,0.145,0.150
6023,0.160,0.185
6024,0.150,0.210
6025,0.155,0.240
6026,0.185,0.270
6027,0.210,0.310
6028,0.225,0.330
6029,0.225,0.320
6030,0.220,0.315
6031,0.215,0.325
6032,0.200,0.345
6033,0.230,0.370
6034,0.240,0.365
6035,0.245,0.370
6036,0.230,0.350
6037,0.235,0.365
6038,0.245,0.390
6039,0.280,0.400
6040,0.330,0.405
6041,0.325,0.410
6042,0.325,0.395
6043,0.325,0.415
6044,0.330,0.430
6045,0.365,0.460
6046,0.375,0.460
6047,0.395,0.465
6048,0.405,0.455
6049,0.410,0.455
6050,0.415,0.475
6051,0.445,0.490
6052,0.475,0.495
6053,0.475,0.500
6054,0.480,0.485
6055,0.485,0.505
6056,0.505,0.505
6057,0.530,0.535
6058,0.570,0.535
6059,0.565,0.540
6060,0.570,0.530
6061,0.580,0.530
6062,0.595,0.550
6063,0.635,0.565
6064,0.670,0.560
6065,0.685,0.565
6066,0.700,0.565
6067,0.695,0.570
6068,0.715,0.585
6069,0.740,0.600
6070,0.785,0.605
6071,0.795,0.605
6072,0.820,0.590
6073,0.825,0.605
6074,0.840,0.620
6075,0.870,0.645
6076,0.895,0.660
6077,0.895,0.655
6078,0.915,0.660
6079,0.905,0.650
6080,0.925,0.655
6081,0.935,0.665
6082,0.945,0.680
6083,0.955,0.670
6084,0.940,0.665
6085,0.935,0.670
6086,0.940,0.685
6087,0.940,0.705
6088,0.970,0.710
6089,0.965,0.710
6090,0.950,0.700
6091,0.930,0.705
6092,0.910,0.730
6093,0.910,0.745
6094,0.905,0.745
6095,0.890,0.730
6096,0.865,0.725
6097,0.820,0.725
6098,0.780,0.735
6099,0.775,0.740
6100,0.745,0.730
6101,0.705,0.710
6102,0.655,0.700
6103,0.595,0.680
6104,0.560,0.670
6105,0.530,0.665
6106,0.495,0.655
6107,0.455,0.610
6108,0.410,0.605
6109,0.355,0.585
6110,0.315,0.570
6111,0.295,0.570
6112,0.275,0.545
6113,0.230,0.530
6114,0.175,0.490
6115,0.140,0.470
6116,0.120,0.480
6117,0.105,0.450
6118,0.085,0.430
6119,0.060,0.425
6120,0.025,0.390
6121,0.000,0.375
6122,-0.025,0.375
6123,-0.025,0.370
6124,-0.020,0.345
6125,-0.045,0.335
6126,-0.065,0.315
6127,-0.100,0.310
6128,-0.095,0.310
6129,-0.085,0.315
6130,-0.075,0.300
6131,-0.085,0.290
6132,-0.100,0.280
6133,-0.120,0.255
6134,-0.140,0.255
6135,-0.120,0.275
6136,-0.115,0.260
6137,-0.130,0.260
6138,-0.135,0.245
6139,-0.160,0.255
6140,-0.140,0.265
6141,-0.125,0.265
6142,-0.130,0.265
6143,-0.125,0.260
6144,-0.130,0.255
6145,-0.145,0.245
6146,-0.145,0.260
6147,-0.125,0.295
6148,-0.120,0.290
6149,-0.120,0.285
6150,-0.120,0.280
6151,-0.135,0.275
6152,-0.140,0.265
6153,-0.130,0.295
6154,-0.120,0.300
6155,-0.140,0.295
6156,-0.160,0.280
6157,-0.160,0.285
6158,-0.155,0.295
6159,-0.145,0.300
6160,-0.140,0.310
6161,-0.150,0.300
6162,-0.160,0.285
6163,-0.190,0.280
6164,-0.200,0.290
6165,-0.180,0.300
6166,-0.190,0.295
6167,-0.185,0.295
6168,-0.185,0.270
6169,-0.220,0.260
6170,-0.215,0.270
6171,-0.205,0.280
6172,-0.190,0.275
6173,-0.195,0.265
6174,-0.215,0.250
6175,-0.235,0.235
6176,-0.250,0.260
6177,-0.235,0.260
6178,-0.235,0.250
6179,-0.225,0.235
6180,-0.230,0.225
6181,-0.230,0.215
6182,-0.240,0.240
6183,-0.250,0.255
6184,-0.250,0.265
6185,-0.245,0.270
6186,-0.250,0.260
6187,-0.260,0.250
6188,-0.265,0.260
6189,-0.255,0.250
6190,-0.245,0.260
6191,-0.240,0.255
6192,-0.230,0.255
6193,-0.240,0.245
6194,-0.225,0.255
6195,-0.230,0.235
6196,-0.200,0.265
6197,-0.225,0.270
6198,-0.225,0.265
6199,-0.225,0.245
6200,-0.220,0.220
6201,-0.210,0.210
6202,-0.205,0.185
6203,-0.205,0.185
6204,-0.210,0.170
6205,-0.220,0.180
6206,-0.210,0.205
6207,-0.210,0.240
6208,-0.200,0.245
6209,-0.200,0.220
6210,-0.220,0.205
6211,-0.230,0.210
6212,-0.225,0.215
6213,-0.225,0.240
6214,-0.230,0.250
6215,-0.220,0.230
6216,-0.230,0.200
6217,-0.260,0.180
6218,-0.265,0.175
6219,-0.260,0.175
6220,-0.245,0.185
6221,-0.250,0.175
6222,-0.270,0.170
6223,-0.285,0.185
6224,-0.265,0.185
6225,-0.260,0.185
6226,-0.265,0.170
6227,-0.260,0.150
6228,-0.300,0.120
6229,-0.300,0.125
6230,-0.285,0.135
6231,-0.275,0.150
6232,-0.250,0.135
6233,-0.280,0.130
6234,-0.305,0.110
6235,-0.315,0.115
6236,-0.295,0.125
6237,-0.275,0.130
6238,-0.255,0.115
6239,-0.250,0.105
6240,-0.270,0.100
6241,-0.260,0.105
6242,-0.240,0.110
6243,-0.230,0.120
6244,-0.200,0.115
6245,-0.200,0.105
6246,-0.175,0.080
6247,-0.155,0.085
6248,-0.090,0.090
6249,0.015,0.095
6250,0.235,0.090
6251,0.615,0.075
6252,1.065,0.050
6253,1.305,0.015
6254,1.225,-0.035
6255,1.000,-0.120
6256,0.845,-0.285
6257,0.755,-0.590
6258,0.705,-0.910
6259,0.615,-1.095
6260,0.520,-1.030
6261,0.440,-0.895
6262,0.335,-0.800
6263,0.230,-0.775
6264,0.095,-0.765
6265,-0.020,-0.755
6266,-0.150,-0.715
6267,-0.270,-0.705
6268,-0.405,-0.710
6269,-0.550,-0.725
6270,-0.725,-0.750
6271,-0.900,-0.760
6272,-1.075,-0.745
6273,-1.215,-0.755
6274,-1.365,-0.770
6275,-1.485,-0.790
6276,-1.605,-0.810
6277,-1.725,-0.805
6278,-1.810,-0.800
6279,-1.870,-0.795
6280,-1.950,-0.810
6281,-1.995,-0.825
6282,-2.050,-0.855
6283,-2.090,-0.870
6284,-2.080,-0.865
6285,-2.035,-0.850
6286,-1.975,-0.875
6287,-1.940,-0.890
6288,-1.890,-0.935
6289,-1.830,-0.960
6290,-1.705,-0.960
6291,-1.560,-0.950
6292,-1.405,-0.955
6293,-1.275,-0.940
6294,-1.145,-0.940
6295,-1.055,-0.910
6296,-1.010,-0.870
6297,-0.940,-0.805
6298,-0.880,-0.785
6299,-0.835,-0.760
6300,-0.770,-0.715
6301,-0.725,-0.660
6302,-0.650,-0.585
6303,-0.575,-0.520
6304,-0.500,-0.460
6305,-0.420,-0.405
6306,-0.365,-0.350
6307,-0.320,-0.280
6308,-0.275,-0.200
6309,-0.195,-0.135
6310,-0.155,-0.065
6311,-0.125,-0.010
6312,-0.115,0.030
6313,-0.105,0.095
6314,-0.080,0.140
6315,-0.040,0.190
6316,-0.015,0.200
6317,0.010,0.210
6318,0.020,0.225
6319,0.005,0.240
6320,0.005,0.275
6321,0.020,0.305
6322,0.040,0.290
6323,0.045,0.295
6324,0.015,0.275
6325,0.000,0.300
6326,0.005,0.315
6327,0.010,0.335
6328,0.035,0.335
6329,0.030,0.320
6330,0.035,0.310
6331,0.015,0.325
6332,0.025,0.335
6333,0.070,0.345
6334,0.100,0.360
6335,0.105,0.355
6336,0.085,0.355
6337,0.070,0.350
6338,0.095,0.360
6339,0.115,0.380
6340,0.155,0.405
6341,0.170,0.405
6342,0.185,0.430
6343,0.190,0.425
6344,0.210,0.455
6345,0.235,0.465
6346,0.255,0.450
6347,0.255,0.465
6348,0.265,0.455
6349,0.255,0.470
6350,0.285,0.485
6351,0.305,0.500
6352,0.345,0.515
6353,0.365,0.510
6354,0.365,0.520
6355,0.370,0.535
6356,0.395,0.555
6357,0.425,0.565
6358,0.465,0.550
6359,0.490,0.550
6360,0.510,0.550
6361,0.520,0.555
6362,0.535,0.565
6363,0.560,0.585
6364,0.590,0.585
6365,0.620,0.585
6366,0.605,0.590
6367,0.590,0.600
6368,0.600,0.620
6369,0.630,0.645
6370,0.660,0.665
6371,0.670,0.660
6372,0.670,0.640
6373,0.650,0.645
6374,0.655,0.665
6375,0.655,0.690
6376,0.655,0.705
6377,0.635,0.710
6378,0.610,0.700
6379,0.590,0.710
6380,0.565,0.725
6381,0.550,0.725
6382,0.540,0.735
6383,0.500,0.720
6384,0.455,0.705
6385,0.420,0.705
6386,0.405,0.725
6387,0.380,0.740
6388,0.380,0.720
6389,0.330,0.700
6390,0.260,0.665
6391,0.185,0.650
6392,0.140,0.650
6393,0.110,0.660
6394,0.055,0.640
6395,0.005,0.615
6396,-0.050,0.570
6397,-0.080,0.560
6398,-0.110,0.550
6399,-0.155,0.525
6400,-0.150,0.515
6401,-0.195,0.500
6402,-0.230,0.475
6403,-0.280,0.480
6404,-0.295,0.475
6405,-0.305,0.460
6406,-0.315,0.455
6407,-0.355,0.410
6408,-0.385,0.370
6409,-0.435,0.365
6410,-0.460,0.350
6411,-0.455,0.370
6412,-0.450,0.370
6413,-0.445,0.355
6414,-0.460,0.335
6415,-0.495,0.325
6416,-0.525,0.320
6417,-0.510,0.315
6418,-0.500,0.305
6419,-0.505,0.300
6420,-0.525,0.290
6421,-0.535,0.310
6422,-0.535,0.310
6423,-0.530,0.325
6424,-0.535,0.340
6425,-0.545,0.325
6426,-0.560,0.315
6427,-0.575,0.300
6428,-0.575,0.285
6429,-0.560,0.305
6430,-0.555,0.320
6431,-0.585,0.325
6432,-0.600,0.325
6433,-0.610,0.320
6434,-0.610,0.340
6435,-0.600,0.345
6436,-0.585,0.340
6437,-0.585,0.315
6438,-0.595,0.300
6439,-0.615,0.305
6440,-0.600,0.330
6441,-0.580,0.340
6442,-0.550,0.340
6443,-0.545,0.360
6444,-0.570,0.380
6445,-0.590,0.370
6446,-0.580,0.375
6447,-0.585,0.360
6448,-0.570,0.325
6449,-0.575,0.315
6450,-0.585,0.315
6451,-0.595,0.330
6452,-0.605,0.360
6453,-0.595,0.365
6454,-0.570,0.355
6455,-0.580,0.320
6456,-0.590,0.290
6457,-0.620,0.285
6458,-0.635,0.305
6459,-0.625,0.330
6460,-0.595,0.335
6461,-0.580,0.310
6462,-0.610,0.280
6463,-0.645,0.275
6464,-0.650,0.280
6465,-0.620,0.285
6466,-0.620,0.285
6467,-0.625,0.270
6468,-0.615,0.260
6469,-0.640,0.270
6470,-0.630,0.290
6471,-0.630,0.315
6472,-0.615,0.305
6473,-0.625,0.290
6474,-0.615,0.270
6475,-0.630,0.270
6476,-0.655,0.280
6477,-0.700,0.285
6478,-0.690,0.280
6479,-0.695,0.270
6480,-0.675,0.270
6481,-0.660,0.265
6482,-0.645,0.280
6483,-0.640,0.295
6484,-0.630,0.305
6485,-0.635,0.290
6486,-0.615,0.285
6487,-0.615,0.285
6488,-0.610,0.290
6489,-0.600,0.305
6490,-0.575,0.280
6491,-0.580,0.275
6492,-0.605,0.265
6493,-0.595,0.265
6494,-0.590,0.285
6495,-0.590,0.290
6496,-0.585,0.280
6497,-0.585,0.265
6498,-0.590,0.255
6499,-0.590,0.265
6500,-0.585,0.265
6501,-0.575,0.280
6502,-0.560,0.285
6503,-0.560,0.275
6504,-0.575,0.265
6505,-0.585,0.260
6506,-0.570,0.275
6507,-0.570,0.280
6508,-0.570,0.260
6509,-0.565,0.255
6510,-0.600,0.235
6511,-0.615,0.230
6512,-0.595,0.240
6513,-0.580,0.240
6514,-0.550,0.230
6515,-0.550,0.210
6516,-0.575,0.205
6517,-0.595,0.195
6518,-0.580,0.195
6519,-0.565,0.210
6520,-0.545,0.200
6521,-0.550,0.200
6522,-0.575,0.185
6523,-0.580,0.195
6524,-0.570,0.205
6525,-0.570,0.225
6526,-0.580,0.215
6527,-0.575,0.205
6528,-0.585,0.200
6529,-0.590,0.195
6530,-0.585,0.190
6531,-0.575,0.210
6532,-0.555,0.225
6533,-0.520,0.215
6534,-0.505,0.200
6535,-0.490,0.195
6536,-0.435,0.205
6537,-0.365,0.220
6538,-0.225,0.215
6539,0.070,0.205
6540,0.520,0.190
6541,0.995,0.190
6542,1.230,0.180
6543,1.135,0.135
6544,0.890,0.045
6545,0.685,-0.115
6546,0.585,-0.400
6547,0.510,-0.765
6548,0.440,-1.070
6549,0.340,-1.125
6550,0.250,-0.990
6551,0.145,-0.845
6552,0.020,-0.785
6553,-0.120,-0.770
6554,-0.250,-0.730
6555,-0.375,-0.695
6556,-0.500,-0.705
6557,-0.620,-0.725
6558,-0.765,-0.735
6559,-0.925,-0.745
6560,-1.100,-0.740
6561,-1.255,-0.735
6562,-1.390,-0.760
6563,-1.540,-0.785
6564,-1.680,-0.805
6565,-1.800,-0.810
6566,-1.890,-0.805
6567,-1.970,-0.800
6568,-2.030,-0.815
6569,-2.105,-0.825
6570,-2.150,-0.845
6571,-2.195,-0.855
6572,-2.195,-0.845
6573,-2.205,-0.840
6574,-2.155,-0.855
6575,-2.145,-0.875
6576,-2.120,-0.925
6577,-2.105,-0.945
6578,-2.040,-0.965
6579,-1.935,-0.985
6580,-1.785,-1.010
6581,-1.650,-1.015
6582,-1.520,-1.030
6583,-1.400,-1.005
6584,-1.295,-0.955
6585,-1.185,-0.905
6586,-1.155,-0.850
6587,-1.135,-0.815
6588,-1.105,-0.805
6589,-1.075,-0.755
6590,-1.025,-0.700
6591,-0.940,-0.630
6592,-0.890,-0.580
6593,-0.815,-0.525
6594,-0.765,-0.475
6595,-0.690,-0.410
6596,-0.625,-0.330
6597,-0.545,-0.245
6598,-0.465,-0.170
6599,-0.410,-0.115
6600,-0.375,-0.065
6601,-0.335,0.000
6602,-0.310,0.065
6603,-0.255,0.125
6604,-0.240,0.155
6605,-0.230,0.205
6606,-0.220,0.215
6607,-0.215,0.230
6608,-0.195,0.270
6609,-0.190,0.310
6610,-0.170,0.305
6611,-0.160,0.300
6612,-0.175,0.290
6613,-0.165,0.290
6614,-0.150,0.300
6615,-0.130,0.330
6616,-0.095,0.315
6617,-0.110,0.300
6618,-0.120,0.295
6619,-0.150,0.300
6620,-0.145,0.295
6621,-0.110,0.290
6622,-0.075,0.290
6623,-0.055,0.290
6624,-0.045,0.290
6625,-0.040,0.305
6626,-0.040,0.315
6627,-0.030,0.335
6628,-0.010,0.345
6629,-0.005,0.340
6630,-0.010,0.330
6631,-0.005,0.325
6632,0.020,0.350
6633,0.045,0.375
6634,0.080,0.390
6635,0.120,0.385
6636,0.130,0.380
6637,0.155,0.390
6638,0.180,0.420
6639,0.205,0.430
6640,0.240,0.445
6641,0.250,0.450
6642,0.245,0.450
6643,0.250,0.470
6644,0.285,0.495
6645,0.310,0.495
6646,0.340,0.495
6647,0.375,0.480
6648,0.385,0.485
6649,0.395,0.495
6650,0.415,0.530
6651,0.450,0.540
6652,0.475,0.555
6653,0.490,0.555
6654,0.505,0.545
6655,0.515,0.555
6656,0.545,0.570
6657,0.575,0.585
6658,0.595,0.595
6659,0.605,0.590
6660,0.610,0.580
6661,0.610,0.590
6662,0.615,0.605
6663,0.640,0.610
6664,0.665,0.620
6665,0.650,0.640
6666,0.615,0.635
6667,0.610,0.630
6668,0.600,0.645
6669,0.620,0.660
6670,0.630,0.650
6671,0.605,0.645
6672,0.600,0.630
6673,0.565,0.620
6674,0.555,0.630
6675,0.545,0.635
6676,0.520,0.635
6677,0.485,0.625
6678,0.415,0.620
6679,0.380,0.610
6680,0.335,0.610
6681,0.305,0.625
6682,0.295,0.600
6683,0.255,0.570
6684,0.205,0.540
6685,0.165,0.535
6686,0.130,0.525
6687,0.085,0.505
6688,0.080,0.495
6689,0.040,0.470
6690,0.005,0.425
6691,-0.035,0.410
6692,-0.050,0.400
6693,-0.075,0.405
6694,-0.105,0.380
6695,-0.140,0.340
6696,-0.190,0.320
6697,-0.200,0.315
6698,-0.210,0.310
6699,-0.205,0.315
6700,-0.220,0.295
6701,-0.240,0.270
6702,-0.265,0.260
6703,-0.305,0.255
6704,-0.310,0.240
6705,-0.310,0.245
6706,-0.310,0.245
6707,-0.305,0.225
6708,-0.310,0.205
6709,-0.325,0.200
6710,-0.325,0.190
6711,-0.310,0.205
6712,-0.300,0.200
6713,-0.305,0.180
6714,-0.320,0.160
6715,-0.335,0.140
6716,-0.320,0.145
6717,-0.305,0.150
6718,-0.305,0.150
6719,-0.320,0.130
6720,-0.320,0.120
6721,-0.330,0.135
6722,-0.320,0.130
6723,-0.305,0.145
6724,-0.285,0.140
6725,-0.300,0.125
6726,-0.315,0.120
6727,-0.335,0.115
6728,-0.330,0.120
6729,-0.320,0.135
6730,-0.305,0.150
6731,-0.315,0.125
6732,-0.340,0.115
6733,-0.350,0.130
6734,-0.350,0.145
6735,-0.345,0.160
6736,-0.325,0.160
6737,-0.315,0.140
6738,-0.335,0.140
6739,-0.335,0.150
6740,-0.330,0.160
6741,-0.325,0.160
6742,-0.305,0.165
6743,-0.325,0.160
6744,-0.330,0.150
6745,-0.345,0.155
6746,-0.340,0.175
6747,-0.325,0.175
6748,-0.320,0.175
6749,-0.320,0.160
6750,-0.335,0.150
6751,-0.355,0.170
6752,-0.340,0.170
6753,-0.340,0.190
6754,-0.330,0.195
6755,-0.345,0.175
6756,-0.335,0.165
6757,-0.350,0.155
6758,-0.355,0.170
6759,-0.340,0.170
6760,-0.315,0.160
6761,-0.325,0.135
6762,-0.325,0.130
6763,-0.345,0.145
6764,-0.335,0.155
6765,-0.325,0.165
6766,-0.330,0.150
6767,-0.320,0.155
6768,-0.340,0.130
6769,-0.350,0.135
6770,-0.345,0.135
6771,-0.345,0.140
6772,-0.335,0.145
6773,-0.340,0.120
6774,-0.355,0.085
6775,-0.355,0.065
6776,-0.360,0.055
6777,-0.340,0.070
