'sample interval','MLII','V1'
'0.00277778 sec','mV','mV'
0,-0.500,0.050
1,-0.500,0.050
2,-0.500,0.050
3,-0.500,0.050
4,-0.500,0.050
5,-0.500,0.050
6,-0.500,0.050
7,-0.500,0.050
8,-0.460,0.050
9,-0.400,0.040
10,-0.340,0.020
11,-0.290,-0.005
12,-0.275,-0.050
13,-0.280,-0.095
14,-0.280,-0.100
15,-0.285,-0.100
16,-0.265,-0.080
17,-0.240,-0.085
18,-0.215,-0.105
19,-0.210,-0.145
20,-0.205,-0.185
21,-0.195,-0.175
22,-0.185,-0.155
23,-0.175,-0.150
24,-0.170,-0.155
25,-0.185,-0.180
26,-0.185,-0.175
27,-0.170,-0.190
28,-0.145,-0.200
29,-0.120,-0.210
30,-0.095,-0.230
31,-0.100,-0.260
32,-0.125,-0.280
33,-0.115,-0.290
34,-0.110,-0.270
35,-0.070,-0.260
36,-0.055,-0.295
37,-0.050,-0.320
38,-0.060,-0.380
39,-0.050,-0.400
40,-0.020,-0.415
41,0.000,-0.415
42,0.015,-0.440
43,0.025,-0.470
44,0.025,-0.485
45,0.050,-0.505
46,0.090,-0.515
47,0.110,-0.525
48,0.140,-0.560
49,0.145,-0.575
50,0.150,-0.590
51,0.140,-0.605
52,0.140,-0.600
53,0.180,-0.570
54,0.210,-0.595
55,0.225,-0.615
56,0.235,-0.610
57,0.245,-0.605
58,0.250,-0.570
59,0.275,-0.545
60,0.275,-0.520
61,0.260,-0.530
62,0.230,-0.485
63,0.230,-0.460
64,0.205,-0.420
65,0.220,-0.385
66,0.215,-0.360
67,0.175,-0.340
68,0.140,-0.320
69,0.110,-0.275
70,0.090,-0.240
71,0.080,-0.185
72,0.060,-0.160
73,0.035,-0.155
74,0.000,-0.135
75,-0.030,-0.105
76,-0.040,-0.085
77,-0.060,-0.035
78,-0.080,-0.020
79,-0.115,-0.010
80,-0.150,0.010
81,-0.180,0.020
82,-0.190,0.060
83,-0.190,0.085
84,-0.190,0.080
85,-0.220,0.065
86,-0.240,0.050
87,-0.265,0.050
88,-0.280,0.095
89,-0.265,0.130
90,-0.265,0.115
91,-0.270,0.095
92,-0.290,0.085
93,-0.300,0.085
94,-0.310,0.090
95,-0.295,0.100
96,-0.295,0.105
97,-0.305,0.110
98,-0.315,0.105
99,-0.325,0.120
100,-0.305,0.135
101,-0.280,0.125
102,-0.280,0.105
103,-0.280,0.095
104,-0.300,0.080
105,-0.305,0.090
106,-0.310,0.110
107,-0.290,0.135
108,-0.275,0.135
109,-0.280,0.115
110,-0.285,0.100
111,-0.265,0.090
112,-0.260,0.110
113,-0.235,0.110
114,-0.245,0.095
115,-0.260,0.090
116,-0.270,0.090
117,-0.290,0.115
118,-0.270,0.115
119,-0.235,0.115
120,-0.215,0.095
121,-0.220,0.080
122,-0.240,0.070
123,-0.250,0.085
124,-0.250,0.095
125,-0.245,0.120
126,-0.230,0.120
127,-0.230,0.095
128,-0.230,0.085
129,-0.235,0.080
130,-0.220,0.090
131,-0.215,0.090
132,-0.215,0.080
133,-0.225,0.080
134,-0.245,0.075
135,-0.250,0.080
136,-0.240,0.095
137,-0.220,0.105
138,-0.215,0.090
139,-0.225,0.070
140,-0.240,0.055
141,-0.255,0.070
142,-0.235,0.090
143,-0.230,0.115
144,-0.225,0.105
145,-0.240,0.095
146,-0.240,0.080
147,-0.245,0.070
148,-0.230,0.075
149,-0.225,0.090
150,-0.215,0.105
151,-0.225,0.120
152,-0.245,0.110
153,-0.225,0.130
154,-0.190,0.135
155,-0.150,0.165
156,-0.125,0.150
157,-0.110,0.110
158,-0.120,0.100
159,-0.110,0.075
160,-0.085,0.105
161,-0.065,0.095
162,-0.030,0.090
163,-0.005,0.050
164,0.010,0.035
165,0.010,0.030
166,0.025,0.050
167,0.040,0.070
168,0.035,0.080
169,0.025,0.075
170,0.020,0.065
171,0.015,0.065
172,0.020,0.070
173,0.010,0.075
174,-0.025,0.060
175,-0.075,0.035
176,-0.130,0.040
177,-0.165,0.045
178,-0.180,0.075
179,-0.175,0.080
180,-0.190,0.070
181,-0.210,0.055
182,-0.225,0.025
183,-0.240,0.015
184,-0.230,0.040
185,-0.230,0.065
186,-0.250,0.070
187,-0.265,0.075
188,-0.280,0.060
189,-0.275,0.055
190,-0.270,0.060
191,-0.260,0.060
192,-0.245,0.065
193,-0.270,0.040
194,-0.285,0.040
195,-0.290,0.055
196,-0.290,0.095
197,-0.270,0.105
198,-0.250,0.085
199,-0.250,0.065
200,-0.255,0.045
201,-0.255,0.055
202,-0.245,0.090
203,-0.220,0.130
204,-0.205,0.145
205,-0.185,0.090
206,-0.165,0.015
207,-0.095,-0.010
208,0.015,-0.030
209,0.205,-0.040
210,0.425,-0.030
211,0.655,0.025
212,0.915,0.170
213,1.135,0.420
214,1.295,0.640
215,1.315,0.805
216,1.130,0.895
217,0.740,0.890
218,0.275,0.845
219,-0.165,0.835
220,-0.470,0.850
221,-0.605,0.930
222,-0.610,1.010
223,-0.590,1.080
224,-0.575,1.135
225,-0.600,1.195
226,-0.615,1.245
227,-0.645,1.290
228,-0.690,1.320
229,-0.725,1.380
230,-0.755,1.435
231,-0.755,1.505
232,-0.730,1.550
233,-0.715,1.555
234,-0.705,1.505
235,-0.725,1.385
236,-0.750,1.230
237,-0.745,1.060
238,-0.715,0.905
239,-0.650,0.735
240,-0.600,0.570
241,-0.550,0.405
242,-0.505,0.255
243,-0.450,0.165
244,-0.365,0.110
245,-0.280,0.075
246,-0.235,0.030
247,-0.195,-0.010
248,-0.185,-0.025
249,-0.170,-0.030
250,-0.155,-0.040
251,-0.140,-0.030
252,-0.125,-0.060
253,-0.105,-0.090
254,-0.105,-0.130
255,-0.095,-0.135
256,-0.085,-0.135
257,-0.070,-0.125
258,-0.065,-0.125
259,-0.075,-0.135
260,-0.070,-0.170
261,-0.070,-0.175
262,-0.040,-0.190
263,-0.020,-0.185
264,-0.025,-0.210
265,-0.025,-0.235
266,-0.045,-0.250
267,-0.035,-0.255
268,-0.010,-0.225
269,0.015,-0.230
270,0.030,-0.245
271,0.020,-0.280
272,0.030,-0.310
273,0.030,-0.310
274,0.050,-0.295
275,0.065,-0.305
276,0.070,-0.315
277,0.075,-0.340
278,0.085,-0.390
279,0.090,-0.415
280,0.130,-0.420
281,0.160,-0.450
282,0.185,-0.470
283,0.190,-0.510
284,0.185,-0.525
285,0.185,-0.530
286,0.220,-0.525
287,0.250,-0.535
288,0.280,-0.570
289,0.270,-0.590
290,0.285,-0.620
291,0.295,-0.620
292,0.320,-0.610
293,0.355,-0.580
294,0.365,-0.585
295,0.370,-0.580
296,0.360,-0.580
297,0.365,-0.565
298,0.395,-0.520
299,0.395,-0.500
300,0.395,-0.500
301,0.355,-0.475
302,0.325,-0.450
303,0.305,-0.395
304,0.290,-0.345
305,0.285,-0.310
306,0.270,-0.285
307,0.230,-0.265
308,0.185,-0.245
309,0.155,-0.210
310,0.120,-0.150
311,0.100,-0.085
312,0.080,-0.070
313,0.050,-0.050
314,0.020,-0.055
315,0.000,-0.045
316,-0.025,-0.020
317,-0.010,-0.005
318,-0.020,0.020
319,-0.055,0.020
320,-0.080,0.035
321,-0.090,0.055
322,-0.100,0.070
323,-0.110,0.080
324,-0.115,0.065
325,-0.120,0.040
326,-0.140,0.035
327,-0.170,0.035
328,-0.170,0.085
329,-0.160,0.095
330,-0.165,0.105
331,-0.190,0.095
332,-0.205,0.075
333,-0.195,0.075
334,-0.175,0.075
335,-0.160,0.090
336,-0.160,0.085
337,-0.190,0.085
338,-0.200,0.075
339,-0.190,0.100
340,-0.180,0.105
341,-0.160,0.095
342,-0.150,0.085
343,-0.170,0.070
344,-0.175,0.065
345,-0.190,0.070
346,-0.175,0.105
347,-0.150,0.135
348,-0.140,0.115
349,-0.140,0.075
350,-0.145,0.040
351,-0.145,0.050
352,-0.145,0.080
353,-0.135,0.080
354,-0.135,0.090
355,-0.145,0.075
356,-0.150,0.055
357,-0.150,0.055
358,-0.135,0.060
359,-0.125,0.070
360,-0.105,0.055
361,-0.125,0.060
362,-0.160,0.060
363,-0.165,0.055
364,-0.145,0.080
365,-0.125,0.070
366,-0.120,0.065
367,-0.125,0.060
368,-0.150,0.020
369,-0.145,0.045
370,-0.155,0.065
371,-0.135,0.085
372,-0.150,0.090
373,-0.140,0.055
374,-0.145,0.055
375,-0.145,0.050
376,-0.135,0.060
377,-0.125,0.070
378,-0.130,0.080
379,-0.140,0.065
380,-0.155,0.065
381,-0.165,0.065
382,-0.155,0.075
383,-0.135,0.075
384,-0.120,0.065
385,-0.120,0.050
386,-0.140,0.060
387,-0.155,0.090
388,-0.145,0.110
389,-0.135,0.135
390,-0.110,0.125
391,-0.100,0.115
392,-0.095,0.110
393,-0.095,0.120
394,-0.060,0.145
395,-0.030,0.165
396,-0.015,0.165
397,0.000,0.140
398,0.010,0.110
399,0.020,0.075
400,0.050,0.085
401,0.095,0.065
402,0.105,0.055
403,0.120,0.045
404,0.130,0.050
405,0.135,0.065
406,0.135,0.080
407,0.145,0.085
408,0.160,0.075
409,0.170,0.070
410,0.135,0.050
411,0.115,0.065
412,0.075,0.090
413,0.040,0.105
414,0.005,0.095
415,-0.030,0.060
416,-0.065,0.040
417,-0.080,0.030
418,-0.105,0.055
419,-0.085,0.060
420,-0.125,0.085
421,-0.145,0.075
422,-0.135,0.075
423,-0.145,0.060
424,-0.135,0.070
425,-0.150,0.070
426,-0.135,0.075
427,-0.145,0.065
428,-0.160,0.065
429,-0.180,0.080
430,-0.170,0.095
431,-0.160,0.090
432,-0.135,0.075
433,-0.150,0.050
434,-0.160,0.045
435,-0.165,0.060
436,-0.160,0.065
437,-0.135,0.110
438,-0.135,0.105
439,-0.135,0.100
440,-0.125,0.100
441,-0.135,0.110
442,-0.105,0.100
443,-0.050,0.025
444,0.005,-0.015
445,0.085,-0.065
446,0.180,-0.040
447,0.360,-0.015
448,0.610,0.045
449,0.875,0.185
450,1.120,0.375
451,1.305,0.555
452,1.350,0.715
453,1.240,0.855
454,0.930,0.915
455,0.500,0.915
456,0.080,0.865
457,-0.270,0.870
458,-0.420,0.875
459,-0.435,0.955
460,-0.385,1.050
461,-0.370,1.140
462,-0.400,1.200
463,-0.465,1.250
464,-0.515,1.290
465,-0.555,1.335
466,-0.570,1.410
467,-0.555,1.475
468,-0.535,1.515
469,-0.555,1.545
470,-0.585,1.545
471,-0.595,1.520
472,-0.605,1.465
473,-0.615,1.365
474,-0.605,1.220
475,-0.585,1.040
476,-0.560,0.855
477,-0.520,0.670
478,-0.470,0.515
479,-0.410,0.380
480,-0.355,0.255
481,-0.320,0.170
482,-0.275,0.110
483,-0.230,0.105
484,-0.155,0.100
485,-0.105,0.080
486,-0.060,0.030
487,-0.060,-0.010
488,-0.055,-0.055
489,-0.050,-0.070
490,-0.035,-0.055
491,0.000,-0.045
492,0.015,-0.055
493,0.020,-0.090
494,0.025,-0.115
495,0.020,-0.135
496,0.025,-0.135
497,0.045,-0.135
498,0.060,-0.140
499,0.035,-0.160
500,0.010,-0.180
501,0.025,-0.170
502,0.055,-0.160
503,0.070,-0.175
504,0.080,-0.200
505,0.090,-0.230
506,0.085,-0.245
507,0.065,-0.260
508,0.085,-0.245
509,0.105,-0.240
510,0.105,-0.245
511,0.095,-0.285
512,0.115,-0.320
513,0.125,-0.350
514,0.145,-0.345
515,0.180,-0.375
516,0.190,-0.395
517,0.200,-0.410
518,0.175,-0.430
519,0.195,-0.440
520,0.215,-0.455
521,0.230,-0.465
522,0.250,-0.505
523,0.260,-0.540
524,0.250,-0.580
525,0.275,-0.585
526,0.285,-0.575
527,0.320,-0.560
528,0.325,-0.585
529,0.335,-0.600
530,0.340,-0.625
531,0.350,-0.625
532,0.375,-0.610
533,0.400,-0.600
534,0.405,-0.595
535,0.395,-0.590
536,0.380,-0.570
537,0.370,-0.525
538,0.385,-0.485
539,0.395,-0.470
540,0.390,-0.445
541,0.375,-0.430
542,0.335,-0.445
543,0.320,-0.405
544,0.305,-0.360
545,0.295,-0.305
546,0.290,-0.255
547,0.250,-0.235
548,0.235,-0.220
549,0.210,-0.195
550,0.195,-0.160
551,0.185,-0.135
552,0.170,-0.105
553,0.130,-0.090
554,0.075,-0.065
555,0.065,-0.030
556,0.050,0.010
557,0.050,0.025
558,0.045,0.030
559,0.025,0.005
560,0.000,-0.005
561,-0.025,0.005
562,-0.035,0.055
563,-0.045,0.090
564,-0.045,0.085
565,-0.065,0.080
566,-0.080,0.065
567,-0.095,0.070
568,-0.085,0.090
569,-0.080,0.095
570,-0.085,0.085
571,-0.095,0.070
572,-0.120,0.075
573,-0.125,0.095
574,-0.100,0.100
575,-0.100,0.120
576,-0.090,0.100
577,-0.095,0.070
578,-0.110,0.050
579,-0.115,0.075
580,-0.110,0.095
581,-0.095,0.115
582,-0.095,0.125
583,-0.105,0.095
584,-0.110,0.055
585,-0.110,0.065
586,-0.090,0.070
587,-0.075,0.085
588,-0.085,0.080
589,-0.100,0.070
590,-0.135,0.075
591,-0.105,0.085
592,-0.085,0.110
593,-0.085,0.105
594,-0.075,0.060
595,-0.070,0.055
596,-0.095,0.060
597,-0.105,0.065
598,-0.090,0.090
599,-0.075,0.110
600,-0.065,0.100
601,-0.070,0.085
602,-0.085,0.050
603,-0.110,0.045
604,-0.110,0.075
605,-0.095,0.095
606,-0.070,0.085
607,-0.080,0.095
608,-0.100,0.065
609,-0.100,0.080
610,-0.100,0.085
611,-0.080,0.090
612,-0.080,0.080
613,-0.100,0.055
614,-0.120,0.065
615,-0.130,0.075
616,-0.115,0.105
617,-0.105,0.130
618,-0.100,0.100
619,-0.115,0.055
620,-0.145,0.045
621,-0.120,0.060
622,-0.105,0.075
623,-0.095,0.100
624,-0.100,0.100
625,-0.100,0.095
626,-0.125,0.080
627,-0.135,0.075
628,-0.115,0.095
629,-0.090,0.120
630,-0.075,0.125
631,-0.085,0.135
632,-0.110,0.140
633,-0.100,0.140
634,-0.075,0.180
635,-0.050,0.200
636,-0.030,0.190
637,-0.015,0.175
638,-0.005,0.125
639,-0.015,0.100
640,0.005,0.100
641,0.020,0.105
642,0.065,0.095
643,0.095,0.055
644,0.095,0.040
645,0.115,0.070
646,0.145,0.085
647,0.165,0.080
648,0.160,0.085
649,0.125,0.070
650,0.095,0.070
651,0.090,0.085
652,0.100,0.095
653,0.090,0.120
654,0.085,0.115
655,0.045,0.085
656,-0.005,0.075
657,-0.060,0.060
658,-0.080,0.065
659,-0.085,0.095
660,-0.105,0.095
661,-0.120,0.065
662,-0.140,0.065
663,-0.155,0.055
664,-0.155,0.065
665,-0.160,0.085
666,-0.175,0.055
667,-0.180,0.055
668,-0.205,0.040
669,-0.225,0.050
670,-0.220,0.070
671,-0.195,0.095
672,-0.195,0.075
673,-0.195,0.060
674,-0.230,0.045
675,-0.225,0.040
676,-0.220,0.055
677,-0.210,0.075
678,-0.215,0.080
679,-0.215,0.070
680,-0.255,0.055
681,-0.235,0.070
682,-0.205,0.065
683,-0.190,0.080
684,-0.185,0.075
685,-0.175,0.090
686,-0.180,0.090
687,-0.175,0.055
688,-0.150,0.015
689,-0.060,-0.015
690,0.045,-0.025
691,0.190,-0.035
692,0.370,-0.015
693,0.615,0.085
694,0.865,0.275
695,1.080,0.495
696,1.205,0.690
697,1.185,0.810
698,0.930,0.885
699,0.530,0.870
700,0.100,0.845
701,-0.240,0.840
702,-0.440,0.850
703,-0.515,0.890
704,-0.495,0.955
705,-0.510,1.050
706,-0.515,1.140
707,-0.525,1.200
708,-0.565,1.215
709,-0.610,1.240
710,-0.650,1.270
711,-0.675,1.305
712,-0.690,1.390
713,-0.665,1.485
714,-0.685,1.520
715,-0.685,1.535
716,-0.720,1.510
717,-0.720,1.455
718,-0.730,1.335
719,-0.705,1.195
720,-0.690,1.005
721,-0.675,0.815
722,-0.660,0.630
723,-0.630,0.455
724,-0.570,0.320
725,-0.495,0.215
726,-0.435,0.130
727,-0.360,0.075
728,-0.320,0.025
729,-0.265,0.010
730,-0.240,-0.005
731,-0.220,-0.020
732,-0.210,-0.040
733,-0.210,-0.070
734,-0.220,-0.090
735,-0.195,-0.120
736,-0.165,-0.110
737,-0.145,-0.115
738,-0.160,-0.140
739,-0.160,-0.155
740,-0.175,-0.195
741,-0.170,-0.185
742,-0.170,-0.165
743,-0.125,-0.150
744,-0.125,-0.175
745,-0.110,-0.210
746,-0.125,-0.250
747,-0.135,-0.260
748,-0.120,-0.255
749,-0.105,-0.235
750,-0.105,-0.250
751,-0.105,-0.260
752,-0.120,-0.290
753,-0.105,-0.305
754,-0.090,-0.310
755,-0.060,-0.325
756,-0.045,-0.350
757,-0.050,-0.375
758,-0.065,-0.400
759,-0.075,-0.405
760,-0.060,-0.400
761,-0.045,-0.400
762,-0.025,-0.435
763,-0.025,-0.485
764,-0.020,-0.520
765,-0.005,-0.540
766,0.010,-0.545
767,0.030,-0.535
768,0.040,-0.555
769,0.045,-0.580
770,0.035,-0.600
771,0.035,-0.615
772,0.075,-0.615
773,0.110,-0.630
774,0.130,-0.635
775,0.115,-0.650
776,0.120,-0.670
777,0.115,-0.635
778,0.145,-0.605
779,0.155,-0.580
780,0.160,-0.560
781,0.170,-0.565
782,0.145,-0.575
783,0.140,-0.550
784,0.140,-0.515
785,0.145,-0.485
786,0.135,-0.445
787,0.105,-0.425
788,0.065,-0.400
789,0.050,-0.365
790,0.050,-0.320
791,0.035,-0.290
792,0.020,-0.270
793,-0.010,-0.275
794,-0.045,-0.245
795,-0.070,-0.210
796,-0.085,-0.165
797,-0.095,-0.110
798,-0.110,-0.095
799,-0.140,-0.100
800,-0.170,-0.100
801,-0.180,-0.085
802,-0.195,-0.050
803,-0.190,-0.030
804,-0.225,-0.005
805,-0.250,0.000
806,-0.285,0.000
807,-0.300,0.005
808,-0.310,0.025
809,-0.300,0.020
810,-0.310,0.010
811,-0.325,0.000
812,-0.360,-0.005
813,-0.370,0.015
814,-0.360,0.055
815,-0.345,0.060
816,-0.330,0.035
817,-0.340,0.015
818,-0.370,-0.005
819,-0.375,-0.005
820,-0.370,0.010
821,-0.370,0.025
822,-0.365,0.035
823,-0.365,0.035
824,-0.380,0.035
825,-0.370,0.015
826,-0.340,0.010
827,-0.340,0.030
828,-0.335,0.010
829,-0.360,0.010
830,-0.375,0.025
831,-0.385,0.020
832,-0.365,0.045
833,-0.340,0.045
834,-0.345,0.025
835,-0.360,-0.005
836,-0.370,-0.010
837,-0.375,-0.010
838,-0.375,0.015
839,-0.365,0.025
840,-0.360,0.025
841,-0.370,0.010
842,-0.375,0.010
843,-0.355,0.015
844,-0.355,0.015
845,-0.340,0.010
846,-0.345,0.010
847,-0.365,-0.010
848,-0.385,0.005
849,-0.390,0.020
850,-0.380,0.030
851,-0.360,0.040
852,-0.345,0.010
853,-0.360,0.000
854,-0.385,-0.015
855,-0.395,0.000
856,-0.400,0.030
857,-0.390,0.045
858,-0.370,0.070
859,-0.385,0.065
860,-0.385,0.045
861,-0.360,0.045
862,-0.350,0.055
863,-0.320,0.080
864,-0.320,0.080
865,-0.320,0.085
866,-0.330,0.065
867,-0.315,0.060
868,-0.290,0.055
869,-0.255,0.040
870,-0.225,-0.005
871,-0.205,-0.035
872,-0.200,-0.040
873,-0.185,-0.015
874,-0.160,0.010
875,-0.150,0.015
876,-0.155,0.025
877,-0.150,0.010
878,-0.170,0.000
879,-0.180,0.015
880,-0.170,0.035
881,-0.195,0.020
882,-0.205,0.030
883,-0.245,0.025
884,-0.290,0.015
885,-0.325,0.020
886,-0.355,0.010
887,-0.360,0.015
888,-0.390,-0.005
889,-0.405,-0.020
890,-0.425,-0.030
891,-0.455,-0.010
892,-0.450,0.010
893,-0.465,0.025
894,-0.465,0.015
895,-0.470,0.005
896,-0.485,-0.025
897,-0.505,-0.025
898,-0.505,-0.025
899,-0.500,0.015
900,-0.495,0.010
901,-0.510,0.005
902,-0.520,-0.005
903,-0.525,-0.010
904,-0.510,-0.005
905,-0.490,0.000
906,-0.470,0.000
907,-0.485,-0.025
908,-0.505,-0.030
909,-0.520,-0.005
910,-0.485,0.035
911,-0.470,0.045
912,-0.470,0.050
913,-0.465,0.035
914,-0.465,0.025
915,-0.455,-0.005
916,-0.415,-0.060
917,-0.340,-0.095
918,-0.250,-0.115
919,-0.110,-0.095
920,0.080,-0.060
921,0.330,0.040
922,0.605,0.185
923,0.835,0.350
924,0.970,0.470
925,0.955,0.600
926,0.785,0.705
927,0.445,0.735
928,0.030,0.725
929,-0.345,0.715
930,-0.620,0.705
931,-0.745,0.735
932,-0.750,0.775
933,-0.715,0.850
934,-0.710,0.910
935,-0.740,0.985
936,-0.765,1.045
937,-0.820,1.095
938,-0.860,1.130
939,-0.880,1.170
940,-0.880,1.220
941,-0.865,1.295
942,-0.860,1.345
943,-0.860,1.390
944,-0.880,1.400
945,-0.915,1.360
946,-0.925,1.300
947,-0.930,1.190
948,-0.905,1.020
949,-0.885,0.840
950,-0.840,0.650
951,-0.800,0.490
952,-0.740,0.350
953,-0.695,0.260
954,-0.645,0.170
955,-0.620,0.085
956,-0.575,0.050
957,-0.500,0.035
958,-0.430,0.000
959,-0.365,-0.005
960,-0.335,-0.040
961,-0.320,-0.090
962,-0.325,-0.115
963,-0.325,-0.115
964,-0.315,-0.110
965,-0.300,-0.100
966,-0.270,-0.120
967,-0.260,-0.160
968,-0.260,-0.180
969,-0.245,-0.175
970,-0.230,-0.185
971,-0.225,-0.180
972,-0.215,-0.180
973,-0.210,-0.195
974,-0.225,-0.215
975,-0.215,-0.220
976,-0.185,-0.205
977,-0.165,-0.225
978,-0.150,-0.250
979,-0.160,-0.285
980,-0.160,-0.305
981,-0.175,-0.315
982,-0.155,-0.285
983,-0.120,-0.290
984,-0.115,-0.295
985,-0.100,-0.345
986,-0.105,-0.385
987,-0.090,-0.400
988,-0.075,-0.415
989,-0.050,-0.420
990,-0.040,-0.435
991,-0.030,-0.460
992,-0.050,-0.470
993,-0.030,-0.480
994,-0.010,-0.495
995,0.025,-0.515
996,0.045,-0.535
997,0.040,-0.560
998,0.035,-0.575
999,0.045,-0.585
1000,0.055,-0.565
1001,0.090,-0.585
1002,0.100,-0.605
1003,0.110,-0.620
1004,0.135,-0.620
1005,0.155,-0.610
1006,0.170,-0.585
1007,0.185,-0.590
1008,0.185,-0.595
1009,0.165,-0.575
1010,0.150,-0.520
1011,0.165,-0.485
1012,0.165,-0.455
1013,0.180,-0.450
1014,0.175,-0.450
1015,0.140,-0.430
1016,0.125,-0.405
1017,0.100,-0.365
1018,0.100,-0.325
1019,0.070,-0.295
1020,0.060,-0.270
1021,0.015,-0.250
1022,-0.015,-0.225
1023,-0.010,-0.185
1024,-0.005,-0.155
1025,-0.020,-0.150
1026,-0.035,-0.150
1027,-0.080,-0.145
1028,-0.105,-0.095
1029,-0.100,-0.070
1030,-0.120,-0.030
1031,-0.145,0.000
1032,-0.170,0.005
1033,-0.185,-0.005
1034,-0.200,0.015
1035,-0.205,0.030
1036,-0.200,0.045
1037,-0.215,0.050
1038,-0.240,0.050
1039,-0.270,0.040
1040,-0.280,0.075
1041,-0.270,0.090
1042,-0.270,0.095
1043,-0.260,0.075
1044,-0.260,0.050
1045,-0.275,0.025
1046,-0.285,0.050
1047,-0.280,0.080
1048,-0.285,0.085
1049,-0.270,0.100
1050,-0.285,0.080
1051,-0.285,0.070
1052,-0.285,0.065
1053,-0.270,0.070
1054,-0.260,0.080
1055,-0.255,0.070
1056,-0.265,0.065
1057,-0.275,0.060
1058,-0.285,0.065
1059,-0.285,0.090
1060,-0.260,0.110
1061,-0.255,0.085
1062,-0.245,0.060
1063,-0.260,0.045
1064,-0.265,0.050
1065,-0.255,0.060
1066,-0.245,0.070
1067,-0.255,0.070
1068,-0.255,0.080
1069,-0.265,0.075
1070,-0.255,0.075
1071,-0.245,0.095
1072,-0.225,0.065
1073,-0.230,0.050
1074,-0.230,0.045
1075,-0.250,0.045
1076,-0.265,0.060
1077,-0.250,0.090
1078,-0.245,0.095
1079,-0.235,0.100
1080,-0.260,0.080
1081,-0.255,0.055
1082,-0.260,0.040
1083,-0.245,0.055
1084,-0.225,0.070
1085,-0.230,0.060
1086,-0.235,0.060
1087,-0.260,0.065
1088,-0.270,0.070
1089,-0.255,0.085
1090,-0.240,0.090
1091,-0.220,0.075
1092,-0.220,0.060
1093,-0.240,0.050
1094,-0.230,0.045
1095,-0.245,0.075
1096,-0.230,0.105
1097,-0.210,0.125
1098,-0.235,0.130
1099,-0.245,0.125
1100,-0.225,0.115
1101,-0.180,0.120
1102,-0.155,0.130
1103,-0.145,0.120
1104,-0.140,0.115
1105,-0.145,0.115
1106,-0.145,0.105
1107,-0.120,0.105
1108,-0.105,0.100
1109,-0.070,0.090
1110,-0.060,0.055
1111,-0.035,0.015
1112,-0.025,0.010
1113,0.000,0.035
1114,0.025,0.060
1115,0.010,0.075
1116,0.015,0.065
1117,-0.010,0.060
1118,-0.005,0.070
1119,0.015,0.075
1120,0.025,0.085
1121,0.015,0.060
1122,0.000,0.045
1123,-0.045,0.050
1124,-0.090,0.050
1125,-0.125,0.075
1126,-0.140,0.080
1127,-0.160,0.085
1128,-0.185,0.045
1129,-0.220,0.040
1130,-0.230,0.030
1131,-0.230,0.030
1132,-0.235,0.045
1133,-0.240,0.030
1134,-0.270,0.035
1135,-0.285,0.035
1136,-0.305,0.055
1137,-0.305,0.060
1138,-0.300,0.085
1139,-0.295,0.065
1140,-0.310,0.030
1141,-0.305,0.025
1142,-0.310,0.025
1143,-0.295,0.055
1144,-0.295,0.055
1145,-0.300,0.070
1146,-0.320,0.060
1147,-0.325,0.055
1148,-0.325,0.060
1149,-0.305,0.075
1150,-0.285,0.070
1151,-0.260,0.070
1152,-0.280,0.060
1153,-0.295,0.045
1154,-0.305,0.075
1155,-0.290,0.105
1156,-0.250,0.140
1157,-0.260,0.150
1158,-0.245,0.100
1159,-0.215,0.040
1160,-0.170,-0.005
1161,-0.055,-0.030
1162,0.075,-0.055
1163,0.235,-0.025
1164,0.430,-0.005
1165,0.640,0.065
1166,0.880,0.220
1167,1.090,0.410
1168,1.250,0.590
1169,1.300,0.725
1170,1.205,0.815
1171,0.960,0.865
1172,0.600,0.860
1173,0.215,0.875
1174,-0.135,0.885
1175,-0.400,0.890
1176,-0.575,0.905
1177,-0.630,0.930
1178,-0.630,0.985
1179,-0.590,1.070
1180,-0.570,1.140
1181,-0.595,1.175
1182,-0.640,1.190
1183,-0.695,1.245
1184,-0.730,1.290
1185,-0.755,1.355
1186,-0.755,1.420
1187,-0.730,1.475
1188,-0.730,1.495
1189,-0.730,1.500
1190,-0.735,1.495
1191,-0.740,1.480
1192,-0.750,1.425
1193,-0.755,1.310
1194,-0.780,1.165
1195,-0.765,1.015
1196,-0.745,0.845
1197,-0.690,0.710
1198,-0.630,0.560
1199,-0.570,0.410
1200,-0.540,0.280
1201,-0.505,0.155
1202,-0.445,0.095
1203,-0.385,0.075
1204,-0.315,0.050
1205,-0.265,0.030
1206,-0.235,-0.015
1207,-0.230,-0.045
1208,-0.215,-0.045
1209,-0.185,-0.070
1210,-0.155,-0.080
1211,-0.140,-0.105
1212,-0.125,-0.135
1213,-0.130,-0.155
1214,-0.140,-0.160
1215,-0.120,-0.130
1216,-0.105,-0.130
1217,-0.105,-0.140
1218,-0.095,-0.160
1219,-0.105,-0.180
1220,-0.100,-0.195
1221,-0.090,-0.185
1222,-0.070,-0.185
1223,-0.050,-0.190
1224,-0.070,-0.230
1225,-0.065,-0.240
1226,-0.060,-0.220
1227,-0.045,-0.215
1228,-0.025,-0.215
1229,-0.005,-0.245
1230,-0.015,-0.285
1231,-0.015,-0.315
1232,-0.020,-0.340
1233,-0.005,-0.325
1234,0.010,-0.315
1235,0.035,-0.325
1236,0.040,-0.350
1237,0.035,-0.390
1238,0.055,-0.415
1239,0.065,-0.430
1240,0.095,-0.440
1241,0.105,-0.470
1242,0.105,-0.495
1243,0.105,-0.505
1244,0.115,-0.510
1245,0.150,-0.495
1246,0.165,-0.500
1247,0.170,-0.510
1248,0.175,-0.545
1249,0.185,-0.585
1250,0.175,-0.605
1251,0.205,-0.605
1252,0.230,-0.605
1253,0.250,-0.610
1254,0.250,-0.645
1255,0.260,-0.635
1256,0.250,-0.620
1257,0.250,-0.610
1258,0.285,-0.600
1259,0.315,-0.610
1260,0.315,-0.635
1261,0.310,-0.625
1262,0.320,-0.615
1263,0.330,-0.590
1264,0.340,-0.535
1265,0.335,-0.525
1266,0.325,-0.505
1267,0.295,-0.495
1268,0.280,-0.460
1269,0.270,-0.420
1270,0.265,-0.385
1271,0.245,-0.375
1272,0.230,-0.370
1273,0.195,-0.335
1274,0.165,-0.295
1275,0.140,-0.230
1276,0.140,-0.190
1277,0.115,-0.150
1278,0.075,-0.155
1279,0.050,-0.140
1280,0.025,-0.130
1281,0.030,-0.100
1282,0.020,-0.075
1283,0.015,-0.060
1284,-0.020,-0.055
1285,-0.055,-0.040
1286,-0.080,-0.010
1287,-0.085,0.025
1288,-0.080,0.040
1289,-0.080,0.030
1290,-0.110,0.020
1291,-0.135,0.015
1292,-0.140,0.020
1293,-0.155,0.030
1294,-0.145,0.060
1295,-0.150,0.060
1296,-0.175,0.055
1297,-0.185,0.055
1298,-0.200,0.070
1299,-0.185,0.095
1300,-0.170,0.105
1301,-0.165,0.085
1302,-0.190,0.060
1303,-0.220,0.030
1304,-0.220,0.055
1305,-0.225,0.070
1306,-0.210,0.100
1307,-0.210,0.085
1308,-0.230,0.080
1309,-0.220,0.080
1310,-0.235,0.075
1311,-0.210,0.070
1312,-0.210,0.075
1313,-0.205,0.060
1314,-0.230,0.050
1315,-0.240,0.050
1316,-0.230,0.065
1317,-0.225,0.075
1318,-0.205,0.085
1319,-0.205,0.080
1320,-0.200,0.065
1321,-0.195,0.055
1322,-0.190,0.040
1323,-0.185,0.055
1324,-0.165,0.070
1325,-0.170,0.050
1326,-0.190,0.040
1327,-0.195,0.040
1328,-0.200,0.055
1329,-0.195,0.070
1330,-0.180,0.085
1331,-0.180,0.090
1332,-0.180,0.070
1333,-0.195,0.040
1334,-0.205,0.035
1335,-0.185,0.055
1336,-0.160,0.070
1337,-0.165,0.055
1338,-0.165,0.040
1339,-0.200,0.055
1340,-0.200,0.060
1341,-0.200,0.085
1342,-0.200,0.075
1343,-0.175,0.075
1344,-0.175,0.030
1345,-0.190,0.015
1346,-0.205,0.030
1347,-0.215,0.050
1348,-0.200,0.075
1349,-0.185,0.090
1350,-0.190,0.060
1351,-0.200,0.060
1352,-0.200,0.060
1353,-0.190,0.075
1354,-0.170,0.065
1355,-0.175,0.065
1356,-0.195,0.045
1357,-0.215,0.045
1358,-0.215,0.060
1359,-0.215,0.090
1360,-0.190,0.120
1361,-0.195,0.095
1362,-0.205,0.090
1363,-0.200,0.090
1364,-0.210,0.070
1365,-0.205,0.080
1366,-0.170,0.105
1367,-0.160,0.100
1368,-0.180,0.095
1369,-0.190,0.100
1370,-0.180,0.120
1371,-0.160,0.145
1372,-0.125,0.165
1373,-0.115,0.165
1374,-0.090,0.150
1375,-0.090,0.125
1376,-0.100,0.110
1377,-0.075,0.105
1378,-0.050,0.095
1379,-0.040,0.075
1380,-0.035,0.065
1381,-0.050,0.040
1382,-0.020,0.050
1383,0.030,0.070
1384,0.065,0.075
1385,0.075,0.055
1386,0.080,0.045
1387,0.050,0.045
1388,0.040,0.060
1389,0.040,0.095
1390,0.040,0.100
1391,0.040,0.095
1392,0.000,0.080
1393,-0.040,0.075
1394,-0.095,0.070
1395,-0.095,0.070
1396,-0.120,0.085
1397,-0.140,0.065
1398,-0.165,0.040
1399,-0.205,0.035
1400,-0.210,0.055
1401,-0.205,0.085
1402,-0.205,0.085
1403,-0.205,0.075
1404,-0.230,0.055
1405,-0.250,0.040
1406,-0.250,0.030
1407,-0.250,0.055
1408,-0.250,0.075
1409,-0.255,0.060
1410,-0.275,0.055
1411,-0.300,0.055
1412,-0.305,0.070
1413,-0.295,0.085
1414,-0.280,0.080
1415,-0.275,0.075
1416,-0.285,0.065
1417,-0.290,0.030
1418,-0.300,0.030
1419,-0.285,0.065
1420,-0.280,0.095
1421,-0.260,0.100
1422,-0.265,0.080
1423,-0.280,0.060
1424,-0.275,0.060
1425,-0.245,0.100
1426,-0.230,0.130
1427,-0.220,0.125
1428,-0.205,0.105
1429,-0.210,0.060
1430,-0.190,0.015
1431,-0.130,0.010
1432,-0.040,0.015
1433,0.040,-0.005
1434,0.165,-0.020
1435,0.305,-0.025
1436,0.475,0.015
1437,0.690,0.100
1438,0.895,0.255
1439,1.065,0.405
1440,1.190,0.560
1441,1.245,0.715
1442,1.190,0.860
1443,1.015,0.955
1444,0.720,0.990
1445,0.320,0.940
1446,-0.100,0.900
1447,-0.450,0.880
1448,-0.615,0.915
1449,-0.640,0.995
1450,-0.585,1.105
1451,-0.560,1.200
1452,-0.590,1.255
1453,-0.635,1.295
1454,-0.670,1.335
1455,-0.700,1.385
1456,-0.720,1.445
1457,-0.735,1.505
1458,-0.725,1.555
1459,-0.750,1.580
1460,-0.750,1.595
1461,-0.750,1.550
1462,-0.745,1.420
1463,-0.730,1.230
1464,-0.735,1.010
1465,-0.705,0.810
1466,-0.660,0.650
1467,-0.610,0.510
1468,-0.565,0.405
1469,-0.510,0.295
1470,-0.465,0.205
1471,-0.440,0.145
1472,-0.375,0.100
1473,-0.315,0.090
1474,-0.260,0.055
1475,-0.225,0.025
1476,-0.195,-0.015
1477,-0.190,-0.025
1478,-0.190,-0.040
1479,-0.170,-0.030
1480,-0.150,-0.030
1481,-0.130,-0.040
1482,-0.130,-0.075
1483,-0.125,-0.120
1484,-0.115,-0.130
1485,-0.100,-0.125
1486,-0.085,-0.110
1487,-0.090,-0.110
1488,-0.090,-0.135
1489,-0.105,-0.160
1490,-0.095,-0.155
1491,-0.080,-0.160
1492,-0.060,-0.160
1493,-0.060,-0.180
1494,-0.050,-0.215
1495,-0.045,-0.215
1496,-0.040,-0.210
1497,-0.035,-0.210
1498,-0.010,-0.200
1499,0.005,-0.220
1500,0.005,-0.255
1501,-0.015,-0.285
1502,0.000,-0.305
1503,0.020,-0.290
1504,0.035,-0.295
1505,0.045,-0.320
1506,0.030,-0.330
1507,0.025,-0.345
1508,0.030,-0.370
1509,0.060,-0.345
1510,0.085,-0.370
1511,0.095,-0.395
1512,0.100,-0.425
1513,0.115,-0.460
1514,0.125,-0.480
1515,0.130,-0.475
1516,0.160,-0.480
1517,0.170,-0.475
1518,0.175,-0.505
1519,0.180,-0.530
1520,0.180,-0.530
1521,0.210,-0.545
1522,0.250,-0.540
1523,0.260,-0.575
1524,0.260,-0.590
1525,0.250,-0.585
1526,0.265,-0.545
1527,0.275,-0.525
1528,0.305,-0.485
1529,0.330,-0.470
1530,0.315,-0.475
1531,0.290,-0.455
1532,0.280,-0.435
1533,0.265,-0.380
1534,0.250,-0.345
1535,0.240,-0.300
1536,0.210,-0.305
1537,0.180,-0.275
1538,0.165,-0.245
1539,0.140,-0.210
1540,0.145,-0.175
1541,0.130,-0.170
1542,0.080,-0.145
1543,0.055,-0.135
1544,0.030,-0.095
1545,0.020,-0.060
1546,0.015,-0.015
1547,0.010,0.005
1548,-0.025,0.010
1549,-0.055,0.020
1550,-0.080,0.020
1551,-0.080,0.040
1552,-0.075,0.070
1553,-0.095,0.075
1554,-0.125,0.075
1555,-0.150,0.075
1556,-0.180,0.125
1557,-0.175,0.135
1558,-0.165,0.140
1559,-0.170,0.120
1560,-0.190,0.100
1561,-0.215,0.120
1562,-0.235,0.125
1563,-0.230,0.140
1564,-0.205,0.160
1565,-0.210,0.175
1566,-0.210,0.150
1567,-0.225,0.130
1568,-0.225,0.130
1569,-0.215,0.140
1570,-0.185,0.145
1571,-0.195,0.150
1572,-0.225,0.125
1573,-0.250,0.120
1574,-0.245,0.140
1575,-0.235,0.160
1576,-0.220,0.175
1577,-0.200,0.175
1578,-0.195,0.150
1579,-0.210,0.130
1580,-0.205,0.115
1581,-0.200,0.135
1582,-0.195,0.140
1583,-0.200,0.145
1584,-0.215,0.145
1585,-0.225,0.140
1586,-0.230,0.160
1587,-0.215,0.155
1588,-0.205,0.170
1589,-0.205,0.140
1590,-0.190,0.105
1591,-0.190,0.100
1592,-0.210,0.120
1593,-0.205,0.145
1594,-0.190,0.175
1595,-0.190,0.170
1596,-0.175,0.135
1597,-0.195,0.120
1598,-0.200,0.120
1599,-0.195,0.120
1600,-0.175,0.130
1601,-0.175,0.140
1602,-0.195,0.145
1603,-0.215,0.140
1604,-0.225,0.140
1605,-0.220,0.155
1606,-0.195,0.160
1607,-0.195,0.135
1608,-0.195,0.130
1609,-0.200,0.110
1610,-0.230,0.120
1611,-0.210,0.140
1612,-0.200,0.145
1613,-0.205,0.155
1614,-0.215,0.150
1615,-0.235,0.155
1616,-0.240,0.150
1617,-0.205,0.160
1618,-0.205,0.180
1619,-0.200,0.160
1620,-0.210,0.130
1621,-0.225,0.125
1622,-0.220,0.125
1623,-0.225,0.145
1624,-0.220,0.160
1625,-0.220,0.160
1626,-0.225,0.175
1627,-0.240,0.155
1628,-0.235,0.170
1629,-0.215,0.180
1630,-0.195,0.185
1631,-0.190,0.195
1632,-0.200,0.170
1633,-0.210,0.190
1634,-0.185,0.190
1635,-0.160,0.235
1636,-0.130,0.255
1637,-0.110,0.230
1638,-0.105,0.195
1639,-0.110,0.165
1640,-0.085,0.155
1641,-0.065,0.155
1642,-0.040,0.150
1643,-0.025,0.125
1644,-0.025,0.115
1645,-0.035,0.110
1646,-0.020,0.120
1647,0.015,0.130
1648,0.030,0.155
1649,0.050,0.140
1650,0.035,0.120
1651,0.035,0.105
1652,0.030,0.125
1653,0.040,0.140
1654,0.050,0.150
1655,0.055,0.140
1656,0.045,0.135
1657,0.025,0.125
1658,0.010,0.145
1659,0.010,0.150
1660,-0.005,0.175
1661,-0.025,0.165
1662,-0.050,0.150
1663,-0.090,0.140
1664,-0.125,0.145
1665,-0.145,0.135
1666,-0.170,0.145
1667,-0.190,0.130
1668,-0.230,0.125
1669,-0.245,0.130
1670,-0.255,0.130
1671,-0.270,0.150
1672,-0.270,0.155
1673,-0.270,0.120
1674,-0.295,0.105
1675,-0.315,0.105
1676,-0.325,0.135
1677,-0.325,0.165
1678,-0.300,0.155
1679,-0.310,0.135
1680,-0.315,0.130
1681,-0.325,0.120
1682,-0.330,0.135
1683,-0.330,0.150
1684,-0.310,0.180
1685,-0.290,0.170
1686,-0.305,0.170
1687,-0.310,0.150
1688,-0.300,0.145
1689,-0.290,0.175
1690,-0.255,0.170
1691,-0.255,0.180
1692,-0.250,0.180
1693,-0.260,0.170
1694,-0.255,0.155
1695,-0.240,0.135
1696,-0.210,0.130
1697,-0.180,0.105
1698,-0.140,0.055
1699,-0.115,0.035
1700,-0.035,0.035
1701,0.095,0.070
1702,0.255,0.090
1703,0.410,0.105
1704,0.605,0.190
1705,0.805,0.325
1706,0.980,0.530
1707,1.135,0.745
1708,1.155,0.940
1709,0.945,1.005
1710,0.525,0.975
1711,0.035,0.905
1712,-0.350,0.900
1713,-0.555,0.950
1714,-0.555,1.035
1715,-0.500,1.140
1716,-0.515,1.225
1717,-0.585,1.285
1718,-0.635,1.345
1719,-0.655,1.390
1720,-0.665,1.410
1721,-0.680,1.435
1722,-0.700,1.465
1723,-0.715,1.500
1724,-0.710,1.550
1725,-0.720,1.615
1726,-0.725,1.650
1727,-0.730,1.630
1728,-0.720,1.620
1729,-0.740,1.590
1730,-0.750,1.540
1731,-0.750,1.485
1732,-0.745,1.435
1733,-0.755,1.330
1734,-0.740,1.200
1735,-0.745,1.080
1736,-0.720,0.975
1737,-0.680,0.880
1738,-0.645,0.775
1739,-0.610,0.645
1740,-0.590,0.500
1741,-0.560,0.375
1742,-0.510,0.290
1743,-0.475,0.240
1744,-0.375,0.200
1745,-0.320,0.160
1746,-0.275,0.070
1747,-0.240,0.035
1748,-0.215,0.020
1749,-0.200,0.020
1750,-0.185,0.020
1751,-0.165,0.000
1752,-0.150,-0.035
1753,-0.160,-0.070
1754,-0.140,-0.090
1755,-0.130,-0.075
1756,-0.125,-0.075
1757,-0.120,-0.090
1758,-0.125,-0.100
1759,-0.125,-0.120
1760,-0.120,-0.110
1761,-0.120,-0.120
1762,-0.085,-0.110
1763,-0.070,-0.115
1764,-0.095,-0.150
1765,-0.115,-0.175
1766,-0.105,-0.180
1767,-0.085,-0.175
1768,-0.070,-0.165
1769,-0.050,-0.165
1770,-0.075,-0.190
1771,-0.080,-0.195
1772,-0.070,-0.190
1773,-0.055,-0.175
1774,-0.040,-0.190
1775,-0.020,-0.210
1776,-0.035,-0.225
1777,-0.040,-0.275
1778,-0.030,-0.285
1779,-0.020,-0.285
1780,0.000,-0.300
1781,0.015,-0.320
1782,0.010,-0.350
1783,0.010,-0.375
1784,0.020,-0.405
1785,0.055,-0.410
1786,0.085,-0.425
1787,0.100,-0.465
1788,0.100,-0.490
1789,0.080,-0.515
1790,0.100,-0.505
1791,0.135,-0.510
1792,0.160,-0.510
1793,0.180,-0.535
1794,0.190,-0.550
1795,0.175,-0.565
1796,0.175,-0.560
1797,0.190,-0.530
1798,0.215,-0.505
1799,0.210,-0.480
1800,0.210,-0.490
1801,0.200,-0.495
1802,0.195,-0.455
1803,0.215,-0.445
1804,0.215,-0.420
1805,0.215,-0.420
1806,0.215,-0.415
1807,0.190,-0.410
1808,0.175,-0.375
1809,0.165,-0.325
1810,0.165,-0.275
1811,0.140,-0.235
1812,0.115,-0.235
1813,0.085,-0.220
1814,0.060,-0.185
1815,0.050,-0.150
1816,0.045,-0.115
1817,0.000,-0.090
1818,-0.025,-0.065
1819,-0.055,-0.050
1820,-0.070,0.005
1821,-0.095,0.040
1822,-0.090,0.050
1823,-0.090,0.055
1824,-0.115,0.050
1825,-0.140,0.060
1826,-0.180,0.070
1827,-0.180,0.120
1828,-0.180,0.145
1829,-0.200,0.155
1830,-0.220,0.150
1831,-0.240,0.135
1832,-0.245,0.130
1833,-0.265,0.140
1834,-0.240,0.145
1835,-0.235,0.150
1836,-0.260,0.150
1837,-0.265,0.140
1838,-0.280,0.170
1839,-0.280,0.190
1840,-0.255,0.200
1841,-0.255,0.190
1842,-0.250,0.160
1843,-0.270,0.140
1844,-0.270,0.150
1845,-0.260,0.155
1846,-0.250,0.165
1847,-0.250,0.175
1848,-0.275,0.165
1849,-0.275,0.165
1850,-0.290,0.165
1851,-0.275,0.175
1852,-0.250,0.200
1853,-0.250,0.180
1854,-0.250,0.165
1855,-0.260,0.140
1856,-0.265,0.135
1857,-0.265,0.155
1858,-0.265,0.170
1859,-0.265,0.155
1860,-0.285,0.155
1861,-0.290,0.145
1862,-0.280,0.150
1863,-0.260,0.155
1864,-0.240,0.165
1865,-0.240,0.150
1866,-0.245,0.135
1867,-0.280,0.125
1868,-0.295,0.145
1869,-0.280,0.170
1870,-0.255,0.185
1871,-0.250,0.170
1872,-0.255,0.150
1873,-0.275,0.130
1874,-0.275,0.135
1875,-0.280,0.145
1876,-0.275,0.155
1877,-0.275,0.165
1878,-0.280,0.150
1879,-0.300,0.160
1880,-0.310,0.170
1881,-0.315,0.180
1882,-0.290,0.195
1883,-0.265,0.180
1884,-0.285,0.145
1885,-0.295,0.115
1886,-0.300,0.130
1887,-0.300,0.155
1888,-0.305,0.170
1889,-0.295,0.195
1890,-0.300,0.190
1891,-0.310,0.205
1892,-0.305,0.195
1893,-0.270,0.200
1894,-0.250,0.205
1895,-0.235,0.190
1896,-0.225,0.190
1897,-0.215,0.190
1898,-0.215,0.185
1899,-0.185,0.200
1900,-0.160,0.185
1901,-0.140,0.165
1902,-0.125,0.100
1903,-0.105,0.090
1904,-0.095,0.090
1905,-0.075,0.135
1906,-0.055,0.160
1907,-0.045,0.170
1908,-0.055,0.155
1909,-0.075,0.145
1910,-0.100,0.135
1911,-0.100,0.140
1912,-0.125,0.165
1913,-0.155,0.160
1914,-0.235,0.160
1915,-0.275,0.145
1916,-0.295,0.150
1917,-0.310,0.150
1918,-0.305,0.120
1919,-0.315,0.125
1920,-0.345,0.105
1921,-0.370,0.100
1922,-0.385,0.115
1923,-0.390,0.145
1924,-0.385,0.160
1925,-0.385,0.165
1926,-0.400,0.130
1927,-0.415,0.115
1928,-0.420,0.110
1929,-0.415,0.135
1930,-0.430,0.130
1931,-0.415,0.130
1932,-0.440,0.130
1933,-0.465,0.140
1934,-0.460,0.140
1935,-0.450,0.140
1936,-0.430,0.150
1937,-0.430,0.140
1938,-0.425,0.115
1939,-0.460,0.100
1940,-0.465,0.105
1941,-0.435,0.150
1942,-0.410,0.200
1943,-0.380,0.220
1944,-0.375,0.155
1945,-0.350,0.065
1946,-0.285,-0.010
1947,-0.180,0.000
1948,-0.010,0.020
1949,0.180,0.075
1950,0.415,0.155
1951,0.650,0.315
1952,0.845,0.505
1953,0.955,0.680
1954,0.935,0.825
1955,0.695,0.890
1956,0.320,0.865
1957,-0.090,0.835
1958,-0.425,0.850
1959,-0.615,0.875
1960,-0.675,0.920
1961,-0.645,0.965
1962,-0.650,1.015
1963,-0.670,1.045
1964,-0.710,1.095
1965,-0.750,1.160
1966,-0.775,1.250
1967,-0.810,1.300
1968,-0.860,1.330
1969,-0.890,1.355
1970,-0.880,1.425
1971,-0.860,1.500
1972,-0.845,1.535
1973,-0.865,1.530
1974,-0.905,1.470
1975,-0.930,1.350
1976,-0.945,1.235
1977,-0.915,1.100
1978,-0.865,0.920
1979,-0.810,0.705
1980,-0.770,0.505
1981,-0.750,0.335
1982,-0.730,0.215
1983,-0.635,0.175
1984,-0.590,0.145
1985,-0.520,0.120
1986,-0.470,0.075
1987,-0.430,0.025
1988,-0.410,-0.010
1989,-0.385,-0.035
1990,-0.370,-0.040
1991,-0.370,-0.040
1992,-0.375,-0.070
1993,-0.390,-0.085
1994,-0.380,-0.065
1995,-0.355,-0.055
1996,-0.350,-0.060
1997,-0.335,-0.105
1998,-0.345,-0.135
1999,-0.330,-0.165
2000,-0.320,-0.150
2001,-0.330,-0.140
2002,-0.310,-0.135
2003,-0.290,-0.145
2004,-0.305,-0.150
2005,-0.295,-0.165
2006,-0.300,-0.170
2007,-0.275,-0.185
2008,-0.265,-0.205
2009,-0.260,-0.225
2010,-0.275,-0.245
2011,-0.295,-0.260
2012,-0.290,-0.265
2013,-0.275,-0.250
2014,-0.250,-0.245
2015,-0.235,-0.285
2016,-0.215,-0.335
2017,-0.220,-0.360
2018,-0.215,-0.380
2019,-0.200,-0.395
2020,-0.195,-0.400
2021,-0.195,-0.425
2022,-0.180,-0.430
2023,-0.180,-0.475
2024,-0.155,-0.485
2025,-0.135,-0.485
2026,-0.110,-0.505
2027,-0.080,-0.520
2028,-0.085,-0.550
2029,-0.105,-0.570
2030,-0.090,-0.555
2031,-0.065,-0.560
2032,-0.040,-0.530
2033,-0.020,-0.520
2034,-0.010,-0.540
2035,-0.005,-0.545
2036,-0.010,-0.540
2037,0.005,-0.525
2038,0.015,-0.485
2039,0.010,-0.470
2040,0.005,-0.445
2041,-0.020,-0.435
2042,-0.030,-0.395
2043,-0.030,-0.355
2044,-0.015,-0.335
2045,-0.050,-0.320
2046,-0.095,-0.315
2047,-0.105,-0.290
2048,-0.145,-0.260
2049,-0.150,-0.205
2050,-0.160,-0.165
2051,-0.170,-0.120
2052,-0.205,-0.130
2053,-0.235,-0.125
2054,-0.275,-0.100
2055,-0.260,-0.060
2056,-0.250,-0.025
2057,-0.270,-0.030
2058,-0.305,-0.005
2059,-0.355,0.005
2060,-0.360,0.025
2061,-0.350,0.050
2062,-0.340,0.070
2063,-0.355,0.075
2064,-0.375,0.070
2065,-0.400,0.060
2066,-0.410,0.075
2067,-0.415,0.080
2068,-0.420,0.105
2069,-0.430,0.120
2070,-0.445,0.110
2071,-0.470,0.110
2072,-0.480,0.110
2073,-0.470,0.120
2074,-0.430,0.135
2075,-0.435,0.105
2076,-0.450,0.095
2077,-0.470,0.090
2078,-0.485,0.105
2079,-0.485,0.135
2080,-0.465,0.135
2081,-0.460,0.135
2082,-0.455,0.120
2083,-0.475,0.100
2084,-0.470,0.100
2085,-0.455,0.105
2086,-0.440,0.115
2087,-0.445,0.095
2088,-0.465,0.080
2089,-0.485,0.085
2090,-0.475,0.105
2091,-0.475,0.140
2092,-0.440,0.145
2093,-0.430,0.120
2094,-0.450,0.095
2095,-0.440,0.075
2096,-0.445,0.085
2097,-0.425,0.080
2098,-0.415,0.115
2099,-0.435,0.120
2100,-0.430,0.115
2101,-0.445,0.110
2102,-0.460,0.095
2103,-0.440,0.105
2104,-0.425,0.105
2105,-0.415,0.075
2106,-0.425,0.065
2107,-0.435,0.050
2108,-0.440,0.090
2109,-0.445,0.100
2110,-0.425,0.140
2111,-0.425,0.115
2112,-0.440,0.085
2113,-0.435,0.070
2114,-0.435,0.060
2115,-0.420,0.075
2116,-0.420,0.105
2117,-0.410,0.110
2118,-0.425,0.120
2119,-0.440,0.135
2120,-0.430,0.125
2121,-0.405,0.145
2122,-0.380,0.145
2123,-0.350,0.130
2124,-0.340,0.100
2125,-0.340,0.100
2126,-0.340,0.120
2127,-0.330,0.130
2128,-0.325,0.140
2129,-0.305,0.125
2130,-0.305,0.105
2131,-0.300,0.080
2132,-0.270,0.060
2133,-0.230,0.060
2134,-0.175,0.050
2135,-0.145,0.070
2136,-0.150,0.060
2137,-0.155,0.045
2138,-0.185,0.080
2139,-0.170,0.100
2140,-0.150,0.125
2141,-0.150,0.130
2142,-0.170,0.100
2143,-0.200,0.070
2144,-0.230,0.080
2145,-0.250,0.085
2146,-0.285,0.110
2147,-0.320,0.095
2148,-0.370,0.085
2149,-0.410,0.090
2150,-0.425,0.070
2151,-0.420,0.070
2152,-0.415,0.065
2153,-0.415,0.070
2154,-0.425,0.050
2155,-0.435,0.030
2156,-0.440,0.050
2157,-0.450,0.065
2158,-0.445,0.085
2159,-0.455,0.105
2160,-0.455,0.085
2161,-0.470,0.075
2162,-0.480,0.070
2163,-0.465,0.060
2164,-0.455,0.075
2165,-0.445,0.055
2166,-0.455,0.055
2167,-0.465,0.040
2168,-0.470,0.060
2169,-0.450,0.070
2170,-0.465,0.095
2171,-0.445,0.095
2172,-0.440,0.065
2173,-0.435,0.045
2174,-0.430,0.045
2175,-0.420,0.075
2176,-0.405,0.090
2177,-0.410,0.095
2178,-0.420,0.120
2179,-0.410,0.125
2180,-0.405,0.120
2181,-0.350,0.065
2182,-0.295,0.020
2183,-0.240,-0.045
2184,-0.165,-0.060
2185,-0.065,-0.080
2186,0.095,-0.050
2187,0.325,0.010
2188,0.580,0.130
2189,0.805,0.285
2190,1.000,0.415
2191,1.110,0.530
2192,1.095,0.645
2193,0.945,0.765
2194,0.620,0.790
2195,0.220,0.760
2196,-0.230,0.730
2197,-0.540,0.730
2198,-0.700,0.800
2199,-0.685,0.895
2200,-0.630,0.985
2201,-0.620,1.010
2202,-0.645,1.035
2203,-0.705,1.060
2204,-0.775,1.145
2205,-0.790,1.190
2206,-0.785,1.240
2207,-0.815,1.305
2208,-0.820,1.355
2209,-0.820,1.410
2210,-0.815,1.440
2211,-0.800,1.450
2212,-0.805,1.430
2213,-0.815,1.335
2214,-0.810,1.205
2215,-0.840,1.075
2216,-0.815,0.930
2217,-0.775,0.815
2218,-0.710,0.695
2219,-0.670,0.530
2220,-0.625,0.370
2221,-0.590,0.235
2222,-0.555,0.130
2223,-0.485,0.090
2224,-0.410,0.055
2225,-0.370,0.040
2226,-0.330,0.020
2227,-0.295,0.005
2228,-0.275,-0.010
2229,-0.235,-0.030
2230,-0.210,-0.045
2231,-0.195,-0.090
2232,-0.185,-0.125
2233,-0.180,-0.140
2234,-0.170,-0.140
2235,-0.175,-0.120
2236,-0.135,-0.110
2237,-0.110,-0.135
2238,-0.105,-0.155
2239,-0.115,-0.185
2240,-0.105,-0.190
2241,-0.085,-0.200
2242,-0.060,-0.195
2243,-0.065,-0.205
2244,-0.065,-0.200
2245,-0.075,-0.220
2246,-0.060,-0.220
2247,-0.035,-0.215
2248,-0.010,-0.240
2249,0.025,-0.285
2250,0.020,-0.325
2251,0.010,-0.340
2252,0.010,-0.330
2253,0.020,-0.310
2254,0.060,-0.335
2255,0.070,-0.360
2256,0.075,-0.400
2257,0.110,-0.455
2258,0.130,-0.470
2259,0.150,-0.465
2260,0.175,-0.475
2261,0.185,-0.490
2262,0.185,-0.525
2263,0.210,-0.575
2264,0.240,-0.595
2265,0.265,-0.590
2266,0.295,-0.575
2267,0.290,-0.585
2268,0.290,-0.595
2269,0.300,-0.600
2270,0.305,-0.580
2271,0.340,-0.540
2272,0.350,-0.545
2273,0.370,-0.535
2274,0.370,-0.565
2275,0.360,-0.545
2276,0.350,-0.490
2277,0.340,-0.430
2278,0.350,-0.380
2279,0.335,-0.370
2280,0.310,-0.355
2281,0.285,-0.340
2282,0.265,-0.305
2283,0.255,-0.265
2284,0.235,-0.220
2285,0.205,-0.200
2286,0.160,-0.165
2287,0.145,-0.125
2288,0.125,-0.055
2289,0.120,-0.015
2290,0.095,0.000
2291,0.075,-0.005
2292,0.040,0.015
2293,0.005,0.035
2294,-0.015,0.065
2295,-0.015,0.100
2296,-0.015,0.105
2297,-0.015,0.090
2298,-0.030,0.065
2299,-0.040,0.065
2300,-0.050,0.075
2301,-0.045,0.105
2302,-0.045,0.140
2303,-0.045,0.145
2304,-0.055,0.135
2305,-0.070,0.105
2306,-0.075,0.100
2307,-0.070,0.125
2308,-0.065,0.135
2309,-0.055,0.135
2310,-0.065,0.135
2311,-0.065,0.120
2312,-0.055,0.115
2313,-0.055,0.120
2314,-0.035,0.105
2315,-0.035,0.100
2316,-0.030,0.115
2317,-0.040,0.120
2318,-0.045,0.115
2319,-0.025,0.090
2320,-0.010,0.115
2321,0.000,0.115
2322,-0.005,0.095
2323,-0.025,0.110
2324,-0.035,0.105
2325,-0.035,0.135
2326,0.015,0.145
2327,0.020,0.115
2328,0.015,0.080
2329,-0.020,0.080
2330,-0.020,0.075
2331,-0.020,0.095
2332,-0.005,0.130
2333,-0.005,0.145
2334,-0.005,0.135
2335,-0.010,0.135
2336,-0.005,0.140
2337,0.035,0.165
2338,0.045,0.165
2339,0.055,0.160
2340,0.075,0.170
2341,0.080,0.145
2342,0.100,0.130
2343,0.115,0.125
2344,0.155,0.105
2345,0.170,0.075
2346,0.175,0.045
2347,0.185,0.050
2348,0.200,0.070
2349,0.210,0.100
2350,0.230,0.125
2351,0.250,0.120
2352,0.230,0.105
2353,0.215,0.095
2354,0.210,0.090
2355,0.190,0.120
2356,0.150,0.145
2357,0.145,0.140
2358,0.085,0.135
2359,0.050,0.115
2360,0.010,0.110
2361,-0.005,0.090
2362,-0.015,0.085
2363,-0.025,0.090
2364,-0.055,0.090
2365,-0.075,0.090
2366,-0.095,0.105
2367,-0.090,0.130
2368,-0.080,0.135
2369,-0.070,0.110
2370,-0.085,0.080
2371,-0.125,0.075
2372,-0.120,0.080
2373,-0.130,0.110
2374,-0.115,0.125
2375,-0.125,0.130
2376,-0.135,0.100
2377,-0.140,0.095
2378,-0.130,0.075
2379,-0.115,0.095
2380,-0.110,0.110
2381,-0.115,0.110
2382,-0.130,0.125
2383,-0.130,0.120
2384,-0.130,0.140
2385,-0.100,0.170
2386,-0.065,0.200
2387,-0.040,0.165
2388,-0.020,0.100
2389,-0.015,0.020
2390,0.035,-0.005
2391,0.125,-0.005
2392,0.295,0.035
2393,0.480,0.065
2394,0.710,0.120
2395,0.940,0.270
2396,1.155,0.460
2397,1.330,0.660
2398,1.350,0.820
2399,1.140,0.935
2400,0.735,0.940
2401,0.265,0.900
2402,-0.130,0.905
2403,-0.360,0.940
2404,-0.395,1.000
2405,-0.350,1.055
2406,-0.345,1.105
2407,-0.400,1.170
2408,-0.470,1.245
2409,-0.505,1.315
2410,-0.515,1.365
2411,-0.530,1.410
2412,-0.565,1.440
2413,-0.570,1.495
2414,-0.565,1.555
2415,-0.550,1.615
2416,-0.540,1.645
2417,-0.565,1.610
2418,-0.590,1.500
2419,-0.620,1.355
2420,-0.605,1.195
2421,-0.550,1.015
2422,-0.480,0.820
2423,-0.435,0.620
2424,-0.390,0.435
2425,-0.355,0.305
2426,-0.295,0.230
2427,-0.235,0.190
2428,-0.150,0.170
2429,-0.080,0.120
2430,-0.045,0.070
2431,-0.045,0.025
2432,-0.020,0.020
2433,-0.005,0.020
2434,0.015,0.015
2435,0.020,0.000
2436,0.030,-0.010
2437,0.030,-0.030
2438,0.030,-0.045
2439,0.050,-0.055
2440,0.085,-0.065
2441,0.095,-0.070
2442,0.085,-0.105
2443,0.070,-0.115
2444,0.065,-0.105
2445,0.080,-0.090
2446,0.100,-0.095
2447,0.100,-0.125
2448,0.115,-0.145
2449,0.100,-0.175
2450,0.115,-0.185
2451,0.130,-0.195
2452,0.140,-0.200
2453,0.140,-0.200
2454,0.130,-0.220
2455,0.135,-0.240
2456,0.150,-0.265
2457,0.175,-0.270
2458,0.200,-0.305
2459,0.210,-0.320
2460,0.210,-0.355
2461,0.185,-0.370
2462,0.215,-0.375
2463,0.225,-0.375
2464,0.245,-0.375
2465,0.275,-0.400
2466,0.280,-0.455
2467,0.280,-0.495
2468,0.295,-0.510
2469,0.320,-0.515
2470,0.335,-0.515
2471,0.365,-0.515
2472,0.360,-0.525
2473,0.360,-0.550
2474,0.385,-0.545
2475,0.405,-0.535
2476,0.430,-0.520
2477,0.415,-0.525
2478,0.410,-0.505
2479,0.395,-0.495
2480,0.380,-0.460
2481,0.390,-0.420
2482,0.395,-0.395
2483,0.400,-0.370
2484,0.385,-0.355
2485,0.345,-0.345
2486,0.315,-0.300
2487,0.290,-0.270
2488,0.285,-0.185
2489,0.255,-0.165
2490,0.235,-0.130
2491,0.195,-0.130
2492,0.180,-0.080
2493,0.150,-0.050
2494,0.130,-0.030
2495,0.115,0.000
2496,0.085,0.020
2497,0.055,0.050
2498,0.035,0.065
2499,0.025,0.120
2500,0.015,0.120
2501,0.010,0.110
2502,-0.015,0.115
2503,-0.060,0.105
2504,-0.080,0.135
2505,-0.085,0.175
2506,-0.075,0.195
2507,-0.080,0.185
2508,-0.090,0.165
2509,-0.105,0.145
2510,-0.110,0.160
2511,-0.085,0.170
2512,-0.085,0.185
2513,-0.090,0.185
2514,-0.105,0.195
2515,-0.130,0.195
2516,-0.115,0.190
2517,-0.105,0.195
2518,-0.085,0.195
2519,-0.100,0.165
2520,-0.110,0.175
2521,-0.130,0.195
2522,-0.125,0.220
2523,-0.110,0.225
2524,-0.085,0.210
2525,-0.100,0.190
2526,-0.085,0.175
2527,-0.100,0.145
2528,-0.090,0.165
2529,-0.085,0.195
2530,-0.090,0.220
2531,-0.110,0.220
2532,-0.120,0.200
2533,-0.105,0.180
2534,-0.090,0.150
2535,-0.075,0.175
2536,-0.065,0.185
2537,-0.070,0.190
2538,-0.085,0.190
2539,-0.100,0.190
2540,-0.110,0.170
2541,-0.080,0.185
2542,-0.065,0.185
2543,-0.050,0.175
2544,-0.070,0.155
2545,-0.105,0.150
2546,-0.090,0.195
2547,-0.075,0.235
2548,-0.040,0.245
2549,-0.005,0.220
2550,0.005,0.195
2551,-0.015,0.205
2552,-0.005,0.220
2553,0.025,0.200
2554,0.060,0.200
2555,0.085,0.185
2556,0.095,0.155
2557,0.110,0.135
2558,0.135,0.115
2559,0.160,0.135
2560,0.165,0.180
2561,0.155,0.175
2562,0.145,0.175
2563,0.130,0.170
2564,0.130,0.170
2565,0.110,0.170
2566,0.085,0.175
2567,0.050,0.180
2568,-0.020,0.155
2569,-0.075,0.160
2570,-0.105,0.165
2571,-0.110,0.170
2572,-0.110,0.175
2573,-0.125,0.160
2574,-0.150,0.140
2575,-0.175,0.140
2576,-0.205,0.145
2577,-0.200,0.160
2578,-0.195,0.170
2579,-0.195,0.180
2580,-0.195,0.140
2581,-0.205,0.135
2582,-0.230,0.135
2583,-0.235,0.160
2584,-0.225,0.170
2585,-0.225,0.165
2586,-0.220,0.150
2587,-0.240,0.130
2588,-0.230,0.135
2589,-0.230,0.135
2590,-0.195,0.150
2591,-0.185,0.135
2592,-0.200,0.135
2593,-0.205,0.165
2594,-0.215,0.195
2595,-0.180,0.210
2596,-0.140,0.160
2597,-0.100,0.070
2598,-0.025,0.015
2599,0.090,0.005
2600,0.275,0.035
2601,0.510,0.120
2602,0.795,0.315
2603,1.050,0.525
2604,1.225,0.710
2605,1.265,0.855
2606,1.090,0.935
2607,0.745,0.955
2608,0.305,0.940
2609,-0.120,0.925
2610,-0.415,0.945
2611,-0.535,0.990
2612,-0.500,1.075
2613,-0.455,1.160
2614,-0.455,1.220
2615,-0.515,1.270
2616,-0.580,1.310
2617,-0.625,1.370
2618,-0.675,1.435
2619,-0.665,1.540
2620,-0.645,1.610
2621,-0.635,1.635
2622,-0.655,1.650
2623,-0.680,1.590
2624,-0.695,1.495
2625,-0.715,1.365
2626,-0.705,1.215
2627,-0.670,1.025
2628,-0.630,0.820
2629,-0.580,0.620
2630,-0.530,0.455
2631,-0.460,0.325
2632,-0.415,0.230
2633,-0.340,0.190
2634,-0.290,0.155
2635,-0.265,0.110
2636,-0.210,0.105
2637,-0.180,0.080
2638,-0.150,0.075
2639,-0.135,0.020
2640,-0.125,-0.005
2641,-0.130,-0.040
2642,-0.125,-0.040
2643,-0.130,-0.035
2644,-0.110,-0.015
2645,-0.095,-0.030
2646,-0.095,-0.065
2647,-0.105,-0.080
2648,-0.095,-0.100
2649,-0.080,-0.100
2650,-0.060,-0.095
2651,-0.065,-0.120
2652,-0.055,-0.145
2653,-0.070,-0.140
2654,-0.080,-0.145
2655,-0.055,-0.135
2656,-0.030,-0.150
2657,-0.015,-0.160
2658,-0.010,-0.220
2659,-0.030,-0.225
2660,-0.030,-0.245
2661,-0.020,-0.225
2662,0.010,-0.220
2663,0.015,-0.250
2664,0.020,-0.275
2665,0.020,-0.320
2666,0.025,-0.340
2667,0.040,-0.375
2668,0.065,-0.385
2669,0.090,-0.405
2670,0.100,-0.425
2671,0.095,-0.450
2672,0.105,-0.465
2673,0.120,-0.465
2674,0.150,-0.465
2675,0.165,-0.495
2676,0.170,-0.525
2677,0.165,-0.560
2678,0.170,-0.555
2679,0.200,-0.535
2680,0.210,-0.525
2681,0.215,-0.520
2682,0.220,-0.535
2683,0.225,-0.530
2684,0.225,-0.510
2685,0.235,-0.505
2686,0.260,-0.465
2687,0.250,-0.440
2688,0.210,-0.425
2689,0.190,-0.395
2690,0.160,-0.345
2691,0.155,-0.285
2692,0.165,-0.245
2693,0.140,-0.245
2694,0.110,-0.235
2695,0.065,-0.195
2696,0.035,-0.170
2697,0.015,-0.120
2698,0.000,-0.070
2699,-0.020,-0.030
2700,-0.030,-0.035
2701,-0.055,-0.020
2702,-0.080,0.000
2703,-0.105,0.025
2704,-0.100,0.040
2705,-0.130,0.075
2706,-0.160,0.085
2707,-0.185,0.095
2708,-0.195,0.115
2709,-0.205,0.125
2710,-0.190,0.130
2711,-0.195,0.130
2712,-0.225,0.110
2713,-0.255,0.105
2714,-0.265,0.130
2715,-0.265,0.155
2716,-0.250,0.165
2717,-0.250,0.150
2718,-0.260,0.150
2719,-0.275,0.140
2720,-0.290,0.140
2721,-0.270,0.155
2722,-0.260,0.160
2723,-0.270,0.175
2724,-0.270,0.170
2725,-0.285,0.160
2726,-0.305,0.150
2727,-0.280,0.160
2728,-0.280,0.165
2729,-0.265,0.155
2730,-0.280,0.140
2731,-0.295,0.140
2732,-0.305,0.155
2733,-0.285,0.190
2734,-0.280,0.200
2735,-0.275,0.170
2736,-0.280,0.150
2737,-0.290,0.135
2738,-0.280,0.130
2739,-0.275,0.150
2740,-0.290,0.155
2741,-0.300,0.160
2742,-0.295,0.155
2743,-0.300,0.150
2744,-0.300,0.125
2745,-0.265,0.130
2746,-0.255,0.115
2747,-0.255,0.125
2748,-0.270,0.095
2749,-0.285,0.105
2750,-0.295,0.130
2751,-0.295,0.140
2752,-0.280,0.150
2753,-0.275,0.130
2754,-0.280,0.110
2755,-0.305,0.100
2756,-0.290,0.110
2757,-0.290,0.120
2758,-0.300,0.160
2759,-0.300,0.160
2760,-0.310,0.150
2761,-0.320,0.150
2762,-0.325,0.160
2763,-0.295,0.180
2764,-0.275,0.190
2765,-0.255,0.165
2766,-0.250,0.155
2767,-0.255,0.170
2768,-0.235,0.195
2769,-0.210,0.210
2770,-0.190,0.205
2771,-0.175,0.150
2772,-0.170,0.120
2773,-0.160,0.090
2774,-0.150,0.085
2775,-0.115,0.075
2776,-0.090,0.110
2777,-0.080,0.110
2778,-0.065,0.120
2779,-0.075,0.100
2780,-0.070,0.100
2781,-0.070,0.115
2782,-0.075,0.135
2783,-0.075,0.110
2784,-0.110,0.105
2785,-0.160,0.095
2786,-0.190,0.120
2787,-0.230,0.140
2788,-0.260,0.140
2789,-0.290,0.120
2790,-0.325,0.095
2791,-0.360,0.060
2792,-0.375,0.075
2793,-0.405,0.100
2794,-0.390,0.115
2795,-0.405,0.110
2796,-0.430,0.110
2797,-0.445,0.095
2798,-0.450,0.070
2799,-0.445,0.070
2800,-0.445,0.090
2801,-0.450,0.090
2802,-0.470,0.080
2803,-0.495,0.075
2804,-0.500,0.095
2805,-0.500,0.095
2806,-0.475,0.110
2807,-0.480,0.075
2808,-0.485,0.065
2809,-0.505,0.040
2810,-0.505,0.050
2811,-0.510,0.085
2812,-0.485,0.100
2813,-0.495,0.095
2814,-0.495,0.100
2815,-0.495,0.105
2816,-0.470,0.100
2817,-0.450,0.075
2818,-0.405,0.025
2819,-0.375,-0.040
2820,-0.295,-0.075
2821,-0.195,-0.060
2822,-0.030,-0.010
2823,0.205,0.035
2824,0.445,0.150
2825,0.675,0.310
2826,0.860,0.480
2827,0.970,0.635
2828,0.930,0.775
2829,0.665,0.865
2830,0.270,0.895
2831,-0.200,0.855
2832,-0.615,0.830
2833,-0.845,0.825
2834,-0.865,0.905
2835,-0.800,0.995
2836,-0.785,1.090
2837,-0.830,1.150
2838,-0.885,1.190
2839,-0.945,1.240
2840,-0.980,1.285
2841,-0.995,1.340
2842,-1.005,1.405
2843,-0.995,1.455
2844,-0.990,1.490
2845,-1.015,1.505
2846,-1.040,1.505
2847,-1.060,1.430
2848,-1.060,1.325
2849,-1.060,1.155
2850,-1.050,0.970
2851,-1.035,0.775
2852,-0.970,0.600
2853,-0.925,0.455
2854,-0.885,0.315
2855,-0.840,0.225
2856,-0.795,0.165
2857,-0.750,0.120
2858,-0.685,0.075
2859,-0.640,0.050
2860,-0.605,0.030
2861,-0.575,0.005
2862,-0.575,-0.040
2863,-0.575,-0.055
2864,-0.585,-0.060
2865,-0.565,-0.050
2866,-0.535,-0.060
2867,-0.520,-0.075
2868,-0.515,-0.120
2869,-0.515,-0.140
2870,-0.520,-0.160
2871,-0.510,-0.145
2872,-0.510,-0.145
2873,-0.515,-0.145
2874,-0.490,-0.165
2875,-0.500,-0.170
2876,-0.485,-0.175
2877,-0.465,-0.180
2878,-0.460,-0.190
2879,-0.460,-0.200
2880,-0.470,-0.240
2881,-0.475,-0.245
2882,-0.480,-0.260
2883,-0.465,-0.255
2884,-0.460,-0.255
2885,-0.425,-0.295
2886,-0.425,-0.315
2887,-0.445,-0.355
2888,-0.430,-0.365
2889,-0.420,-0.385
2890,-0.400,-0.380
2891,-0.390,-0.385
2892,-0.385,-0.435
2893,-0.380,-0.465
2894,-0.370,-0.490
2895,-0.345,-0.500
2896,-0.320,-0.515
2897,-0.295,-0.525
2898,-0.295,-0.565
2899,-0.300,-0.580
2900,-0.300,-0.575
2901,-0.285,-0.560
2902,-0.255,-0.560
2903,-0.225,-0.565
2904,-0.230,-0.605
2905,-0.220,-0.605
2906,-0.215,-0.595
2907,-0.200,-0.565
2908,-0.185,-0.525
2909,-0.170,-0.505
2910,-0.175,-0.495
2911,-0.200,-0.480
2912,-0.210,-0.450
2913,-0.205,-0.420
2914,-0.215,-0.390
2915,-0.230,-0.375
2916,-0.275,-0.330
2917,-0.305,-0.330
2918,-0.340,-0.265
2919,-0.360,-0.230
2920,-0.360,-0.170
2921,-0.365,-0.170
2922,-0.420,-0.170
2923,-0.455,-0.145
2924,-0.475,-0.130
2925,-0.480,-0.090
2926,-0.490,-0.035
2927,-0.510,-0.015
2928,-0.525,-0.010
2929,-0.555,0.000
2930,-0.575,0.015
2931,-0.570,0.015
2932,-0.575,0.045
2933,-0.580,0.035
2934,-0.615,0.025
2935,-0.655,0.040
2936,-0.665,0.045
2937,-0.665,0.090
2938,-0.640,0.110
2939,-0.635,0.095
2940,-0.645,0.055
2941,-0.665,0.055
2942,-0.685,0.070
2943,-0.675,0.100
2944,-0.675,0.115
2945,-0.670,0.110
2946,-0.685,0.100
2947,-0.705,0.090
2948,-0.700,0.070
2949,-0.675,0.080
2950,-0.655,0.085
2951,-0.660,0.095
2952,-0.675,0.075
2953,-0.680,0.070
2954,-0.685,0.090
2955,-0.670,0.110
2956,-0.645,0.110
2957,-0.640,0.075
2958,-0.650,0.045
2959,-0.665,0.050
2960,-0.660,0.060
2961,-0.635,0.085
2962,-0.630,0.095
2963,-0.635,0.095
2964,-0.640,0.090
2965,-0.650,0.060
2966,-0.640,0.070
2967,-0.625,0.075
2968,-0.595,0.080
2969,-0.605,0.075
2970,-0.625,0.045
2971,-0.625,0.050
2972,-0.645,0.075
2973,-0.635,0.090
2974,-0.605,0.105
2975,-0.600,0.085
2976,-0.600,0.060
2977,-0.615,0.040
2978,-0.625,0.065
2979,-0.610,0.085
2980,-0.600,0.110
2981,-0.595,0.095
2982,-0.610,0.115
2983,-0.615,0.100
2984,-0.610,0.100
2985,-0.585,0.110
2986,-0.545,0.120
2987,-0.530,0.105
2988,-0.540,0.120
2989,-0.540,0.105
2990,-0.550,0.110
2991,-0.510,0.120
2992,-0.475,0.110
2993,-0.465,0.075
2994,-0.455,0.035
2995,-0.435,0.000
2996,-0.415,0.005
2997,-0.390,0.040
2998,-0.370,0.045
2999,-0.370,0.060
3000,-0.375,0.055
3001,-0.380,0.040
3002,-0.380,0.060
3003,-0.365,0.055
3004,-0.350,0.060
3005,-0.370,0.040
3006,-0.395,0.040
3007,-0.430,0.065
3008,-0.455,0.060
3009,-0.505,0.085
3010,-0.530,0.090
3011,-0.555,0.065
3012,-0.575,0.040
3013,-0.590,0.010
3014,-0.610,0.005
3015,-0.630,0.030
3016,-0.630,0.040
3017,-0.640,0.050
3018,-0.650,0.050
3019,-0.655,0.045
3020,-0.650,0.055
3021,-0.640,0.060
3022,-0.635,0.050
3023,-0.640,0.025
3024,-0.665,0.015
3025,-0.680,0.025
3026,-0.690,0.050
3027,-0.675,0.070
3028,-0.665,0.075
3029,-0.665,0.060
3030,-0.665,0.020
3031,-0.665,0.020
3032,-0.645,0.035
3033,-0.645,0.045
3034,-0.630,0.050
3035,-0.650,0.065
3036,-0.640,0.060
3037,-0.640,0.065
3038,-0.620,0.085
3039,-0.605,0.080
3040,-0.565,0.030
3041,-0.545,-0.020
3042,-0.485,-0.080
3043,-0.400,-0.085
3044,-0.275,-0.065
3045,-0.080,-0.015
3046,0.175,0.075
3047,0.430,0.185
3048,0.660,0.300
3049,0.835,0.425
3050,0.915,0.555
3051,0.825,0.705
3052,0.560,0.785
3053,0.140,0.775
3054,-0.305,0.750
3055,-0.675,0.725
3056,-0.880,0.750
3057,-0.885,0.815
3058,-0.845,0.875
3059,-0.830,0.925
3060,-0.870,0.965
3061,-0.925,1.005
3062,-0.955,1.085
3063,-0.980,1.150
3064,-0.995,1.190
3065,-1.020,1.220
3066,-1.020,1.255
3067,-1.020,1.295
3068,-1.005,1.355
3069,-1.000,1.405
3070,-1.005,1.435
3071,-1.025,1.400
3072,-1.060,1.320
3073,-1.085,1.175
3074,-1.075,1.045
3075,-1.025,0.900
3076,-0.960,0.735
3077,-0.925,0.550
3078,-0.895,0.390
3079,-0.855,0.245
3080,-0.825,0.165
3081,-0.750,0.125
3082,-0.680,0.100
3083,-0.615,0.050
3084,-0.565,0.020
3085,-0.530,-0.020
3086,-0.505,-0.045
3087,-0.485,-0.065
3088,-0.460,-0.070
3089,-0.455,-0.090
3090,-0.465,-0.105
3091,-0.460,-0.120
3092,-0.445,-0.110
3093,-0.425,-0.105
3094,-0.390,-0.120
3095,-0.380,-0.145
3096,-0.395,-0.180
3097,-0.390,-0.205
3098,-0.390,-0.190
3099,-0.385,-0.190
3100,-0.370,-0.180
3101,-0.365,-0.185
3102,-0.345,-0.215
3103,-0.345,-0.230
3104,-0.330,-0.250
3105,-0.320,-0.255
3106,-0.300,-0.260
3107,-0.290,-0.275
3108,-0.285,-0.295
3109,-0.290,-0.315
3110,-0.295,-0.300
3111,-0.280,-0.305
3112,-0.250,-0.310
3113,-0.235,-0.355
3114,-0.230,-0.385
3115,-0.225,-0.425
3116,-0.210,-0.430
3117,-0.190,-0.440
3118,-0.175,-0.430
3119,-0.160,-0.460
3120,-0.165,-0.495
3121,-0.145,-0.510
3122,-0.140,-0.520
3123,-0.095,-0.530
3124,-0.060,-0.540
3125,-0.035,-0.580
3126,-0.035,-0.615
3127,-0.040,-0.620
3128,-0.035,-0.610
3129,0.000,-0.595
3130,0.020,-0.585
3131,0.050,-0.580
3132,0.055,-0.595
3133,0.060,-0.640
3134,0.065,-0.635
3135,0.090,-0.600
3136,0.110,-0.575
3137,0.110,-0.565
3138,0.100,-0.535
3139,0.070,-0.525
3140,0.075,-0.490
3141,0.085,-0.450
3142,0.095,-0.430
3143,0.075,-0.420
3144,0.040,-0.395
3145,-0.005,-0.370
3146,-0.020,-0.315
3147,-0.030,-0.275
3148,-0.040,-0.220
3149,-0.065,-0.210
3150,-0.085,-0.210
3151,-0.115,-0.185
3152,-0.130,-0.155
3153,-0.145,-0.120
3154,-0.155,-0.080
3155,-0.175,-0.070
3156,-0.205,-0.065
3157,-0.235,-0.035
3158,-0.250,-0.010
3159,-0.270,0.000
3160,-0.240,0.030
3161,-0.260,0.025
3162,-0.270,0.015
3163,-0.305,0.030
3164,-0.330,0.035
3165,-0.330,0.065
3166,-0.340,0.085
3167,-0.335,0.075
3168,-0.335,0.070
3169,-0.340,0.055
3170,-0.350,0.055
3171,-0.340,0.065
3172,-0.340,0.080
3173,-0.340,0.085
3174,-0.370,0.060
3175,-0.385,0.070
3176,-0.370,0.095
3177,-0.335,0.105
3178,-0.320,0.115
3179,-0.315,0.090
3180,-0.325,0.065
3181,-0.335,0.060
3182,-0.340,0.075
3183,-0.315,0.090
3184,-0.300,0.105
3185,-0.290,0.100
3186,-0.290,0.090
3187,-0.305,0.080
3188,-0.295,0.075
3189,-0.285,0.080
3190,-0.260,0.090
3191,-0.265,0.090
3192,-0.280,0.070
3193,-0.295,0.065
3194,-0.290,0.085
3195,-0.285,0.085
3196,-0.250,0.100
3197,-0.250,0.105
3198,-0.250,0.060
3199,-0.260,0.055
3200,-0.260,0.045
3201,-0.255,0.055
3202,-0.230,0.080
3203,-0.230,0.080
3204,-0.235,0.070
3205,-0.265,0.060
3206,-0.270,0.070
3207,-0.265,0.090
3208,-0.225,0.105
3209,-0.210,0.070
3210,-0.205,0.060
3211,-0.225,0.035
3212,-0.245,0.040
3213,-0.235,0.065
3214,-0.220,0.105
3215,-0.225,0.115
3216,-0.220,0.100
3217,-0.220,0.105
3218,-0.205,0.120
3219,-0.185,0.095
3220,-0.135,0.115
3221,-0.125,0.105
3222,-0.125,0.085
3223,-0.110,0.090
3224,-0.130,0.105
3225,-0.100,0.100
3226,-0.070,0.110
3227,-0.030,0.080
3228,-0.020,0.045
3229,0.000,0.020
3230,0.010,0.010
3231,0.035,0.015
3232,0.065,0.050
3233,0.070,0.045
3234,0.055,0.055
3235,0.055,0.050
3236,0.055,0.045
3237,0.060,0.085
3238,0.070,0.085
3239,0.070,0.065
3240,0.045,0.055
3241,0.015,0.035
3242,-0.035,0.060
3243,-0.065,0.090
3244,-0.100,0.095
3245,-0.130,0.090
3246,-0.140,0.065
3247,-0.165,0.040
3248,-0.185,0.045
3249,-0.190,0.060
3250,-0.190,0.075
3251,-0.210,0.085
3252,-0.215,0.085
3253,-0.240,0.055
3254,-0.250,0.060
3255,-0.245,0.060
3256,-0.240,0.065
3257,-0.220,0.065
3258,-0.260,0.055
3259,-0.265,0.050
3260,-0.285,0.055
3261,-0.270,0.090
3262,-0.250,0.100
3263,-0.235,0.085
3264,-0.225,0.050
3265,-0.240,0.035
3266,-0.245,0.065
3267,-0.230,0.080
3268,-0.215,0.110
3269,-0.215,0.115
3270,-0.205,0.130
3271,-0.195,0.105
3272,-0.155,0.080
3273,-0.110,0.030
3274,-0.005,-0.015
3275,0.120,-0.020
3276,0.300,-0.005
3277,0.525,0.050
3278,0.810,0.175
3279,1.085,0.390
3280,1.310,0.590
3281,1.380,0.750
3282,1.265,0.850
3283,0.915,0.895
3284,0.415,0.905
3285,-0.050,0.905
3286,-0.395,0.925
3287,-0.545,0.960
3288,-0.560,1.010
3289,-0.535,1.040
3290,-0.510,1.120
3291,-0.515,1.185
3292,-0.550,1.255
3293,-0.585,1.300
3294,-0.630,1.330
3295,-0.645,1.375
3296,-0.680,1.430
3297,-0.650,1.490
3298,-0.620,1.535
3299,-0.625,1.550
3300,-0.635,1.515
3301,-0.650,1.475
3302,-0.675,1.375
3303,-0.680,1.270
3304,-0.665,1.130
3305,-0.615,0.960
3306,-0.580,0.765
3307,-0.560,0.580
3308,-0.500,0.420
3309,-0.450,0.295
3310,-0.365,0.225
3311,-0.330,0.175
3312,-0.275,0.105
3313,-0.230,0.085
3314,-0.185,0.060
3315,-0.140,0.045
3316,-0.090,0.020
3317,-0.070,-0.010
3318,-0.065,-0.075
3319,-0.065,-0.095
3320,-0.065,-0.100
3321,-0.055,-0.075
3322,-0.050,-0.075
3323,-0.045,-0.085
3324,-0.030,-0.120
3325,-0.020,-0.140
3326,-0.020,-0.150
3327,0.005,-0.150
3328,0.025,-0.145
3329,0.020,-0.180
3330,0.010,-0.190
3331,0.000,-0.195
3332,0.005,-0.195
3333,0.000,-0.180
3334,0.030,-0.180
3335,0.060,-0.195
3336,0.060,-0.220
3337,0.050,-0.260
3338,0.045,-0.265
3339,0.065,-0.265
3340,0.080,-0.270
3341,0.090,-0.275
3342,0.085,-0.305
3343,0.085,-0.325
3344,0.095,-0.345
3345,0.125,-0.335
3346,0.150,-0.365
3347,0.160,-0.385
3348,0.165,-0.435
3349,0.160,-0.450
3350,0.160,-0.470
3351,0.190,-0.475
3352,0.220,-0.465
3353,0.255,-0.505
3354,0.260,-0.540
3355,0.270,-0.590
3356,0.290,-0.590
3357,0.300,-0.585
3358,0.320,-0.595
3359,0.335,-0.600
3360,0.330,-0.615
3361,0.335,-0.620
3362,0.360,-0.605
3363,0.380,-0.590
3364,0.410,-0.575
3365,0.405,-0.590
3366,0.415,-0.595
3367,0.400,-0.590
3368,0.400,-0.570
3369,0.405,-0.540
3370,0.405,-0.480
3371,0.405,-0.470
3372,0.390,-0.450
3373,0.365,-0.450
3374,0.355,-0.425
3375,0.330,-0.390
3376,0.350,-0.355
3377,0.325,-0.335
3378,0.300,-0.325
3379,0.250,-0.280
3380,0.225,-0.240
3381,0.215,-0.190
3382,0.195,-0.135
3383,0.165,-0.125
3384,0.155,-0.130
3385,0.100,-0.110
3386,0.095,-0.100
3387,0.095,-0.050
3388,0.085,-0.015
3389,0.065,0.005
3390,0.035,0.010
3391,0.005,0.020
3392,-0.020,0.035
3393,-0.030,0.065
3394,-0.005,0.085
3395,-0.015,0.085
3396,-0.030,0.065
3397,-0.050,0.055
3398,-0.065,0.070
3399,-0.060,0.085
3400,-0.055,0.110
3401,-0.090,0.105
3402,-0.095,0.100
3403,-0.125,0.105
3404,-0.135,0.105
3405,-0.130,0.135
3406,-0.105,0.145
3407,-0.105,0.125
3408,-0.115,0.110
3409,-0.160,0.090
3410,-0.150,0.095
3411,-0.150,0.120
3412,-0.135,0.135
3413,-0.140,0.130
3414,-0.150,0.125
3415,-0.165,0.120
3416,-0.170,0.135
3417,-0.155,0.160
3418,-0.135,0.155
3419,-0.135,0.160
3420,-0.145,0.120
3421,-0.150,0.115
3422,-0.145,0.125
3423,-0.150,0.125
3424,-0.140,0.145
3425,-0.145,0.140
3426,-0.150,0.135
3427,-0.165,0.125
3428,-0.155,0.145
3429,-0.160,0.160
3430,-0.145,0.180
3431,-0.125,0.155
3432,-0.140,0.135
3433,-0.155,0.110
3434,-0.145,0.115
3435,-0.140,0.135
3436,-0.120,0.140
3437,-0.120,0.155
3438,-0.145,0.145
3439,-0.145,0.135
3440,-0.145,0.145
3441,-0.120,0.155
3442,-0.105,0.150
3443,-0.105,0.125
3444,-0.115,0.120
3445,-0.130,0.120
3446,-0.145,0.105
3447,-0.120,0.105
3448,-0.125,0.145
3449,-0.130,0.140
3450,-0.145,0.135
3451,-0.145,0.125
3452,-0.130,0.125
3453,-0.115,0.150
3454,-0.095,0.135
3455,-0.090,0.130
3456,-0.110,0.100
3457,-0.120,0.095
3458,-0.135,0.100
3459,-0.140,0.130
3460,-0.135,0.150
3461,-0.130,0.145
3462,-0.125,0.150
3463,-0.145,0.125
3464,-0.135,0.135
3465,-0.125,0.135
3466,-0.115,0.150
3467,-0.105,0.140
3468,-0.125,0.125
3469,-0.135,0.125
3470,-0.150,0.160
3471,-0.140,0.190
3472,-0.125,0.205
3473,-0.120,0.190
3474,-0.110,0.190
3475,-0.095,0.180
3476,-0.080,0.190
3477,-0.050,0.190
3478,-0.030,0.190
3479,-0.035,0.160
3480,-0.030,0.150
3481,-0.030,0.130
3482,-0.030,0.135
3483,-0.010,0.155
3484,0.015,0.170
3485,0.030,0.150
3486,0.045,0.115
3487,0.040,0.085
3488,0.070,0.065
3489,0.100,0.085
3490,0.135,0.095
3491,0.120,0.075
3492,0.120,0.060
3493,0.105,0.075
3494,0.105,0.090
3495,0.100,0.125
3496,0.120,0.155
3497,0.125,0.150
3498,0.115,0.130
3499,0.090,0.120
3500,0.050,0.095
3501,0.035,0.105
3502,0.020,0.120
3503,-0.015,0.100
3504,-0.085,0.100
3505,-0.120,0.095
3506,-0.150,0.105
3507,-0.150,0.115
3508,-0.140,0.125
3509,-0.155,0.105
3510,-0.165,0.085
3511,-0.175,0.070
3512,-0.205,0.075
3513,-0.195,0.085
3514,-0.200,0.100
3515,-0.220,0.110
3516,-0.235,0.105
3517,-0.250,0.100
3518,-0.230,0.100
3519,-0.230,0.110
3520,-0.210,0.125
3521,-0.220,0.110
3522,-0.230,0.100
3523,-0.260,0.070
3524,-0.260,0.095
3525,-0.255,0.115
3526,-0.260,0.135
3527,-0.265,0.155
3528,-0.260,0.115
3529,-0.260,0.115
3530,-0.260,0.115
3531,-0.225,0.135
3532,-0.220,0.150
3533,-0.210,0.125
3534,-0.220,0.130
3535,-0.240,0.140
3536,-0.240,0.195
3537,-0.205,0.220
3538,-0.165,0.190
3539,-0.135,0.110
3540,-0.065,0.020
3541,0.025,-0.020
3542,0.135,-0.005
3543,0.325,0.015
3544,0.550,0.065
3545,0.765,0.165
3546,0.990,0.320
3547,1.200,0.515
3548,1.365,0.710
3549,1.420,0.870
3550,1.365,0.985
3551,1.145,1.020
3552,0.755,1.000
3553,0.335,0.960
3554,-0.065,0.960
3555,-0.370,0.975
3556,-0.530,1.010
3557,-0.565,1.070
3558,-0.530,1.115
3559,-0.495,1.175
3560,-0.495,1.235
3561,-0.500,1.290
3562,-0.515,1.335
3563,-0.540,1.365
3564,-0.575,1.405
3565,-0.630,1.450
3566,-0.665,1.500
3567,-0.670,1.585
3568,-0.650,1.660
3569,-0.640,1.690
3570,-0.635,1.700
3571,-0.650,1.660
3572,-0.655,1.575
3573,-0.665,1.445
3574,-0.675,1.295
3575,-0.670,1.115
3576,-0.640,0.910
3577,-0.605,0.710
3578,-0.550,0.520
3579,-0.470,0.365
3580,-0.405,0.250
3581,-0.340,0.170
3582,-0.275,0.130
3583,-0.215,0.085
3584,-0.180,0.065
3585,-0.150,0.065
3586,-0.140,0.060
3587,-0.100,0.035
3588,-0.100,-0.020
3589,-0.085,-0.050
3590,-0.100,-0.070
3591,-0.085,-0.075
3592,-0.050,-0.055
3593,-0.045,-0.060
3594,-0.070,-0.070
3595,-0.070,-0.100
3596,-0.070,-0.095
3597,-0.050,-0.115
3598,-0.015,-0.110
3599,0.000,-0.145
3600,-0.010,-0.155
3601,-0.030,-0.180
3602,-0.040,-0.175
3603,-0.030,-0.145
3604,0.000,-0.155
3605,0.005,-0.185
3606,0.020,-0.225
3607,0.015,-0.260
3608,0.025,-0.275
3609,0.030,-0.265
3610,0.045,-0.245
3611,0.055,-0.265
3612,0.055,-0.300
3613,0.075,-0.350
3614,0.085,-0.355
3615,0.115,-0.370
3616,0.145,-0.375
3617,0.145,-0.415
3618,0.135,-0.445
3619,0.140,-0.485
3620,0.140,-0.475
3621,0.170,-0.470
3622,0.205,-0.470
3623,0.210,-0.500
3624,0.225,-0.540
3625,0.225,-0.575
3626,0.225,-0.590
3627,0.240,-0.570
3628,0.270,-0.555
3629,0.280,-0.565
3630,0.280,-0.565
3631,0.290,-0.580
3632,0.295,-0.555
3633,0.295,-0.535
3634,0.320,-0.535
3635,0.330,-0.520
3636,0.345,-0.515
3637,0.325,-0.495
3638,0.310,-0.460
3639,0.310,-0.420
3640,0.305,-0.350
3641,0.295,-0.335
3642,0.255,-0.320
3643,0.230,-0.300
3644,0.175,-0.260
3645,0.185,-0.210
3646,0.150,-0.155
3647,0.120,-0.115
3648,0.090,-0.075
3649,0.035,-0.055
3650,0.025,-0.040
3651,0.020,-0.010
3652,0.005,0.025
3653,-0.020,0.055
3654,-0.070,0.055
3655,-0.095,0.085
3656,-0.125,0.100
3657,-0.105,0.120
3658,-0.100,0.115
3659,-0.115,0.110
3660,-0.135,0.100
3661,-0.155,0.090
3662,-0.160,0.120
3663,-0.175,0.125
3664,-0.175,0.155
3665,-0.170,0.170
3666,-0.180,0.165
3667,-0.190,0.150
3668,-0.195,0.155
3669,-0.180,0.145
3670,-0.185,0.165
3671,-0.185,0.145
3672,-0.200,0.135
3673,-0.225,0.130
3674,-0.235,0.155
3675,-0.225,0.180
3676,-0.210,0.190
3677,-0.210,0.180
3678,-0.200,0.165
3679,-0.220,0.135
3680,-0.200,0.135
3681,-0.190,0.145
3682,-0.190,0.160
3683,-0.195,0.180
3684,-0.200,0.165
3685,-0.205,0.155
3686,-0.195,0.165
3687,-0.195,0.175
3688,-0.160,0.175
3689,-0.150,0.165
3690,-0.180,0.175
3691,-0.205,0.165
3692,-0.220,0.185
3693,-0.200,0.190
3694,-0.175,0.200
3695,-0.165,0.170
3696,-0.165,0.150
3697,-0.185,0.130
3698,-0.200,0.145
3699,-0.195,0.180
3700,-0.185,0.200
3701,-0.175,0.205
3702,-0.190,0.190
3703,-0.200,0.180
3704,-0.200,0.160
3705,-0.190,0.175
3706,-0.180,0.190
3707,-0.190,0.175
3708,-0.210,0.160
3709,-0.235,0.165
3710,-0.245,0.180
3711,-0.230,0.190
3712,-0.225,0.195
3713,-0.210,0.180
3714,-0.220,0.160
3715,-0.235,0.165
3716,-0.240,0.155
3717,-0.245,0.190
3718,-0.240,0.215
3719,-0.245,0.220
3720,-0.250,0.215
3721,-0.245,0.215
3722,-0.245,0.215
3723,-0.235,0.230
3724,-0.190,0.240
3725,-0.160,0.240
3726,-0.160,0.225
3727,-0.160,0.240
3728,-0.150,0.260
3729,-0.140,0.265
3730,-0.130,0.250
3731,-0.100,0.215
3732,-0.095,0.185
3733,-0.080,0.150
3734,-0.055,0.145
3735,-0.020,0.140
3736,0.000,0.135
3737,0.025,0.145
3738,0.025,0.150
3739,0.010,0.135
3740,0.020,0.155
3741,0.025,0.150
3742,0.030,0.160
3743,0.005,0.170
3744,-0.010,0.150
3745,-0.050,0.145
3746,-0.090,0.145
3747,-0.140,0.170
3748,-0.190,0.185
3749,-0.200,0.155
3750,-0.225,0.125
3751,-0.260,0.100
3752,-0.280,0.095
3753,-0.280,0.120
3754,-0.295,0.140
3755,-0.300,0.150
3756,-0.320,0.140
3757,-0.340,0.145
3758,-0.345,0.130
3759,-0.340,0.130
3760,-0.330,0.135
3761,-0.345,0.130
3762,-0.360,0.125
3763,-0.375,0.140
3764,-0.385,0.165
3765,-0.385,0.180
3766,-0.375,0.195
3767,-0.365,0.170
3768,-0.365,0.155
3769,-0.385,0.135
3770,-0.385,0.140
3771,-0.375,0.150
3772,-0.365,0.170
3773,-0.380,0.170
3774,-0.390,0.180
3775,-0.395,0.185
3776,-0.390,0.175
3777,-0.385,0.210
3778,-0.340,0.230
3779,-0.315,0.205
3780,-0.325,0.135
3781,-0.300,0.075
3782,-0.245,0.045
3783,-0.145,0.040
3784,0.020,0.065
3785,0.235,0.100
3786,0.480,0.150
3787,0.750,0.280
3788,1.000,0.470
3789,1.205,0.680
3790,1.275,0.840
3791,1.105,0.945
3792,0.705,0.980
3793,0.160,0.945
3794,-0.310,0.935
3795,-0.625,0.945
3796,-0.710,0.990
3797,-0.660,1.045
3798,-0.605,1.100
3799,-0.615,1.155
3800,-0.660,1.235
3801,-0.700,1.310
3802,-0.740,1.370
3803,-0.755,1.405
3804,-0.800,1.420
3805,-0.825,1.450
3806,-0.830,1.500
3807,-0.815,1.565
3808,-0.780,1.610
3809,-0.800,1.635
3810,-0.815,1.615
3811,-0.860,1.575
3812,-0.870,1.485
3813,-0.865,1.375
3814,-0.845,1.215
3815,-0.790,1.030
3816,-0.755,0.835
3817,-0.730,0.615
3818,-0.690,0.455
3819,-0.635,0.335
3820,-0.570,0.260
3821,-0.520,0.215
3822,-0.455,0.150
3823,-0.400,0.125
3824,-0.365,0.100
3825,-0.330,0.060
3826,-0.300,0.030
3827,-0.295,-0.005
3828,-0.290,-0.020
3829,-0.285,-0.035
3830,-0.290,-0.020
3831,-0.270,-0.005
3832,-0.250,-0.015
3833,-0.240,-0.040
3834,-0.260,-0.085
3835,-0.245,-0.100
3836,-0.250,-0.110
3837,-0.250,-0.100
3838,-0.225,-0.100
3839,-0.225,-0.110
3840,-0.230,-0.125
3841,-0.255,-0.150
3842,-0.250,-0.150
3843,-0.215,-0.150
3844,-0.180,-0.145
3845,-0.160,-0.175
3846,-0.170,-0.190
3847,-0.175,-0.230
3848,-0.180,-0.220
3849,-0.165,-0.215
3850,-0.145,-0.190
3851,-0.130,-0.205
3852,-0.135,-0.245
3853,-0.155,-0.285
3854,-0.125,-0.295
3855,-0.110,-0.315
3856,-0.085,-0.320
3857,-0.075,-0.335
3858,-0.100,-0.385
3859,-0.095,-0.400
3860,-0.085,-0.410
3861,-0.050,-0.405
3862,-0.035,-0.410
3863,-0.010,-0.435
3864,0.005,-0.490
3865,-0.005,-0.525
3866,0.010,-0.540
3867,0.035,-0.505
3868,0.060,-0.485
3869,0.090,-0.510
3870,0.090,-0.515
3871,0.085,-0.555
3872,0.110,-0.540
3873,0.135,-0.545
3874,0.160,-0.520
3875,0.165,-0.510
3876,0.160,-0.510
3877,0.140,-0.490
3878,0.135,-0.460
3879,0.135,-0.425
3880,0.150,-0.375
3881,0.145,-0.380
3882,0.125,-0.370
3883,0.090,-0.360
3884,0.070,-0.315
3885,0.050,-0.260
3886,0.045,-0.215
3887,0.015,-0.190
3888,-0.015,-0.155
3889,-0.055,-0.145
3890,-0.070,-0.125
3891,-0.080,-0.090
3892,-0.090,-0.055
3893,-0.110,-0.035
3894,-0.130,-0.020
3895,-0.185,0.005
3896,-0.215,0.035
3897,-0.245,0.075
3898,-0.235,0.090
3899,-0.235,0.085
3900,-0.250,0.075
3901,-0.275,0.075
3902,-0.300,0.085
3903,-0.315,0.100
3904,-0.315,0.135
3905,-0.325,0.145
3906,-0.335,0.145
3907,-0.365,0.145
3908,-0.370,0.135
3909,-0.365,0.160
3910,-0.360,0.165
3911,-0.370,0.155
3912,-0.380,0.135
3913,-0.410,0.125
3914,-0.425,0.120
3915,-0.420,0.155
3916,-0.410,0.180
3917,-0.405,0.190
3918,-0.410,0.175
3919,-0.410,0.140
3920,-0.415,0.155
3921,-0.420,0.155
3922,-0.385,0.165
3923,-0.390,0.170
3924,-0.395,0.155
3925,-0.410,0.140
3926,-0.410,0.145
3927,-0.400,0.150
3928,-0.380,0.155
3929,-0.390,0.145
3930,-0.385,0.125
3931,-0.410,0.110
3932,-0.415,0.115
3933,-0.400,0.135
3934,-0.385,0.160
3935,-0.370,0.145
3936,-0.350,0.130
3937,-0.365,0.110
3938,-0.370,0.120
3939,-0.355,0.130
3940,-0.365,0.130
3941,-0.345,0.130
3942,-0.370,0.135
3943,-0.390,0.125
3944,-0.395,0.130
3945,-0.380,0.150
3946,-0.355,0.180
3947,-0.345,0.155
3948,-0.345,0.130
3949,-0.360,0.120
3950,-0.380,0.105
3951,-0.375,0.120
3952,-0.380,0.145
3953,-0.380,0.145
3954,-0.385,0.135
3955,-0.385,0.135
3956,-0.380,0.160
3957,-0.390,0.170
3958,-0.365,0.155
3959,-0.360,0.145
3960,-0.375,0.140
3961,-0.380,0.145
3962,-0.385,0.170
3963,-0.375,0.200
3964,-0.375,0.225
3965,-0.355,0.220
3966,-0.335,0.195
3967,-0.310,0.190
3968,-0.290,0.195
3969,-0.280,0.175
3970,-0.270,0.175
3971,-0.255,0.185
3972,-0.245,0.175
3973,-0.245,0.160
3974,-0.220,0.140
3975,-0.180,0.130
3976,-0.140,0.130
3977,-0.120,0.115
3978,-0.115,0.100
3979,-0.130,0.105
3980,-0.135,0.130
3981,-0.145,0.150
3982,-0.145,0.165
3983,-0.170,0.185
3984,-0.165,0.150
3985,-0.175,0.130
3986,-0.195,0.120
3987,-0.245,0.130
3988,-0.290,0.145
3989,-0.325,0.145
3990,-0.365,0.130
3991,-0.395,0.125
3992,-0.415,0.135
3993,-0.390,0.145
3994,-0.390,0.130
3995,-0.395,0.115
3996,-0.400,0.095
3997,-0.420,0.075
3998,-0.440,0.095
3999,-0.450,0.110
4000,-0.470,0.130
4001,-0.465,0.125
4002,-0.470,0.120
4003,-0.480,0.130
4004,-0.480,0.105
4005,-0.460,0.105
4006,-0.450,0.115
4007,-0.465,0.120
4008,-0.485,0.120
4009,-0.495,0.115
4010,-0.500,0.130
4011,-0.475,0.140
4012,-0.450,0.160
4013,-0.440,0.135
4014,-0.445,0.115
4015,-0.460,0.090
4016,-0.450,0.105
4017,-0.450,0.135
4018,-0.425,0.195
4019,-0.405,0.185
4020,-0.395,0.145
4021,-0.370,0.080
4022,-0.325,0.035
4023,-0.235,0.005
4024,-0.115,0.010
4025,0.065,0.025
4026,0.260,0.050
4027,0.485,0.115
4028,0.730,0.260
4029,0.965,0.450
4030,1.120,0.585
4031,1.150,0.745
4032,0.950,0.830
4033,0.590,0.840
4034,0.120,0.810
4035,-0.305,0.795
4036,-0.605,0.815
4037,-0.720,0.875
4038,-0.715,0.925
4039,-0.660,0.995
4040,-0.660,1.065
4041,-0.685,1.105
4042,-0.720,1.150
4043,-0.760,1.190
4044,-0.795,1.210
4045,-0.825,1.235
4046,-0.870,1.295
4047,-0.850,1.370
4048,-0.830,1.445
4049,-0.815,1.490
4050,-0.830,1.530
4051,-0.845,1.525
4052,-0.855,1.490
4053,-0.855,1.445
4054,-0.835,1.360
4055,-0.850,1.245
4056,-0.845,1.095
4057,-0.835,0.945
4058,-0.795,0.785
4059,-0.735,0.650
4060,-0.660,0.500
4061,-0.610,0.360
4062,-0.570,0.240
4063,-0.515,0.170
4064,-0.455,0.125
4065,-0.395,0.110
4066,-0.335,0.120
4067,-0.310,0.090
4068,-0.295,0.050
4069,-0.285,0.035
4070,-0.275,0.030
4071,-0.245,0.010
4072,-0.215,0.005
4073,-0.200,-0.025
4074,-0.190,-0.075
4075,-0.215,-0.055
4076,-0.205,-0.060
4077,-0.190,-0.045
4078,-0.175,-0.040
4079,-0.150,-0.055
4080,-0.155,-0.090
4081,-0.155,-0.110
4082,-0.175,-0.135
4083,-0.140,-0.135
4084,-0.120,-0.120
4085,-0.120,-0.120
4086,-0.120,-0.145
4087,-0.115,-0.150
4088,-0.105,-0.145
4089,-0.090,-0.160
4090,-0.065,-0.160
4091,-0.040,-0.190
4092,-0.045,-0.215
4093,-0.060,-0.260
4094,-0.060,-0.270
4095,-0.035,-0.245
4096,-0.005,-0.255
4097,0.010,-0.265
4098,0.020,-0.280
4099,0.025,-0.320
4100,0.040,-0.350
4101,0.055,-0.365
4102,0.080,-0.375
4103,0.095,-0.390
4104,0.095,-0.435
4105,0.090,-0.460
4106,0.115,-0.450
4107,0.135,-0.450
4108,0.180,-0.460
4109,0.200,-0.465
4110,0.220,-0.505
4111,0.220,-0.530
4112,0.210,-0.540
4113,0.225,-0.530
4114,0.250,-0.490
4115,0.255,-0.510
4116,0.250,-0.505
4117,0.255,-0.490
4118,0.285,-0.480
4119,0.300,-0.455
4120,0.320,-0.440
4121,0.320,-0.425
4122,0.305,-0.400
4123,0.280,-0.400
4124,0.260,-0.360
4125,0.235,-0.310
4126,0.230,-0.270
4127,0.235,-0.220
4128,0.215,-0.230
4129,0.180,-0.215
4130,0.155,-0.190
4131,0.145,-0.135
4132,0.135,-0.085
4133,0.100,-0.060
4134,0.070,-0.040
4135,0.035,-0.030
4136,0.010,0.025
4137,0.010,0.050
4138,0.010,0.090
4139,-0.010,0.090
4140,-0.015,0.090
4141,-0.065,0.090
4142,-0.085,0.130
4143,-0.095,0.150
4144,-0.095,0.180
4145,-0.100,0.170
4146,-0.110,0.180
4147,-0.130,0.145
4148,-0.145,0.170
4149,-0.150,0.180
4150,-0.140,0.195
4151,-0.140,0.195
4152,-0.150,0.195
4153,-0.165,0.200
4154,-0.170,0.215
4155,-0.160,0.225
4156,-0.140,0.230
4157,-0.135,0.220
4158,-0.150,0.195
4159,-0.145,0.195
4160,-0.175,0.180
4161,-0.160,0.210
4162,-0.160,0.225
4163,-0.150,0.220
4164,-0.170,0.210
4165,-0.170,0.215
4166,-0.155,0.190
4167,-0.140,0.195
4168,-0.120,0.200
4169,-0.115,0.190
4170,-0.145,0.180
4171,-0.160,0.195
4172,-0.150,0.190
4173,-0.130,0.215
4174,-0.115,0.220
4175,-0.095,0.210
4176,-0.110,0.185
4177,-0.115,0.155
4178,-0.110,0.165
4179,-0.120,0.180
4180,-0.100,0.205
4181,-0.095,0.210
4182,-0.095,0.205
4183,-0.085,0.185
4184,-0.085,0.185
4185,-0.070,0.200
4186,-0.055,0.185
4187,-0.050,0.200
4188,-0.070,0.175
4189,-0.085,0.180
4190,-0.105,0.200
4191,-0.085,0.225
4192,-0.070,0.235
4193,-0.075,0.225
4194,-0.060,0.190
4195,-0.065,0.180
4196,-0.065,0.180
4197,-0.075,0.200
4198,-0.055,0.215
4199,-0.055,0.225
4200,-0.075,0.210
4201,-0.085,0.205
4202,-0.095,0.205
4203,-0.070,0.230
4204,-0.060,0.235
4205,-0.045,0.210
4206,-0.050,0.200
4207,-0.080,0.200
4208,-0.075,0.225
4209,-0.060,0.245
4210,-0.040,0.280
4211,-0.035,0.290
4212,-0.030,0.280
4213,-0.015,0.270
4214,0.015,0.255
4215,0.030,0.270
4216,0.060,0.285
4217,0.080,0.270
4218,0.075,0.230
4219,0.070,0.215
4220,0.075,0.225
4221,0.105,0.240
4222,0.165,0.230
4223,0.185,0.190
4224,0.195,0.175
4225,0.195,0.160
4226,0.200,0.185
4227,0.210,0.195
4228,0.215,0.235
4229,0.210,0.240
4230,0.200,0.230
4231,0.170,0.210
4232,0.155,0.205
4233,0.150,0.220
4234,0.125,0.210
4235,0.085,0.205
4236,0.030,0.180
4237,0.000,0.165
4238,-0.035,0.190
4239,-0.040,0.205
4240,-0.045,0.230
4241,-0.035,0.215
4242,-0.060,0.180
4243,-0.080,0.165
4244,-0.095,0.170
4245,-0.080,0.185
4246,-0.100,0.190
4247,-0.105,0.195
4248,-0.125,0.180
4249,-0.160,0.185
4250,-0.160,0.195
4251,-0.150,0.205
4252,-0.125,0.200
4253,-0.125,0.190
4254,-0.120,0.155
4255,-0.150,0.160
4256,-0.160,0.175
4257,-0.160,0.215
4258,-0.120,0.235
4259,-0.125,0.230
4260,-0.120,0.205
4261,-0.130,0.200
4262,-0.130,0.195
4263,-0.110,0.210
4264,-0.090,0.210
4265,-0.080,0.220
4266,-0.100,0.245
4267,-0.105,0.255
4268,-0.100,0.250
4269,-0.045,0.225
4270,0.020,0.180
4271,0.095,0.145
4272,0.200,0.090
4273,0.330,0.080
4274,0.515,0.115
4275,0.750,0.165
4276,0.995,0.305
4277,1.220,0.500
4278,1.395,0.670
4279,1.480,0.820
4280,1.420,0.955
4281,1.230,1.065
4282,0.885,1.080
4283,0.440,1.035
4284,0.020,1.025
4285,-0.300,1.025
4286,-0.470,1.060
4287,-0.480,1.130
4288,-0.430,1.215
4289,-0.405,1.270
4290,-0.405,1.315
4291,-0.455,1.335
4292,-0.495,1.380
4293,-0.520,1.455
4294,-0.535,1.500
4295,-0.580,1.560
4296,-0.595,1.625
4297,-0.585,1.675
4298,-0.585,1.710
4299,-0.585,1.745
4300,-0.565,1.705
4301,-0.565,1.610
4302,-0.570,1.445
4303,-0.595,1.295
4304,-0.575,1.125
4305,-0.530,0.970
4306,-0.480,0.795
4307,-0.425,0.620
4308,-0.390,0.460
4309,-0.335,0.340
4310,-0.295,0.280
4311,-0.225,0.235
4312,-0.150,0.200
4313,-0.105,0.180
4314,-0.085,0.135
4315,-0.070,0.110
4316,-0.065,0.100
4317,-0.030,0.075
4318,-0.005,0.070
4319,0.020,0.045
4320,0.025,0.020
4321,0.025,-0.005
4322,0.020,-0.025
4323,0.025,-0.020
4324,0.035,-0.005
4325,0.050,-0.015
4326,0.055,-0.025
4327,0.055,-0.050
4328,0.055,-0.055
4329,0.080,-0.080
4330,0.090,-0.080
4331,0.095,-0.080
4332,0.095,-0.100
4333,0.075,-0.105
4334,0.055,-0.120
4335,0.090,-0.115
4336,0.105,-0.110
4337,0.130,-0.125
4338,0.145,-0.165
4339,0.140,-0.200
4340,0.145,-0.215
4341,0.155,-0.205
4342,0.170,-0.205
4343,0.175,-0.205
4344,0.180,-0.240
4345,0.185,-0.270
4346,0.195,-0.285
4347,0.225,-0.315
4348,0.240,-0.330
4349,0.265,-0.365
4350,0.255,-0.390
4351,0.255,-0.425
4352,0.255,-0.420
4353,0.285,-0.420
4354,0.310,-0.410
4355,0.335,-0.445
4356,0.355,-0.465
4357,0.355,-0.500
4358,0.365,-0.510
4359,0.385,-0.510
4360,0.415,-0.495
4361,0.425,-0.485
4362,0.420,-0.480
4363,0.420,-0.485
4364,0.430,-0.470
4365,0.440,-0.455
4366,0.455,-0.425
4367,0.460,-0.400
4368,0.440,-0.390
4369,0.410,-0.375
4370,0.380,-0.335
4371,0.370,-0.280
4372,0.370,-0.245
4373,0.360,-0.225
4374,0.340,-0.200
4375,0.305,-0.180
4376,0.275,-0.150
4377,0.235,-0.100
4378,0.215,-0.040
4379,0.180,0.000
4380,0.145,0.025
4381,0.110,0.040
4382,0.090,0.060
4383,0.070,0.085
4384,0.075,0.120
4385,0.040,0.130
4386,0.010,0.125
4387,-0.020,0.150
4388,-0.040,0.160
4389,-0.040,0.190
4390,-0.030,0.205
4391,-0.030,0.190
4392,-0.055,0.180
4393,-0.075,0.155
4394,-0.090,0.160
4395,-0.095,0.215
4396,-0.110,0.220
4397,-0.100,0.220
4398,-0.105,0.210
4399,-0.115,0.200
4400,-0.110,0.195
4401,-0.115,0.195
4402,-0.100,0.230
4403,-0.095,0.215
4404,-0.115,0.210
4405,-0.145,0.190
4406,-0.155,0.215
4407,-0.125,0.220
4408,-0.115,0.230
4409,-0.100,0.205
4410,-0.095,0.195
4411,-0.110,0.170
4412,-0.120,0.185
4413,-0.110,0.215
4414,-0.115,0.250
4415,-0.105,0.230
4416,-0.100,0.210
4417,-0.125,0.180
4418,-0.120,0.195
4419,-0.100,0.200
4420,-0.095,0.220
4421,-0.095,0.220
4422,-0.115,0.210
4423,-0.120,0.210
4424,-0.105,0.195
4425,-0.090,0.205
4426,-0.075,0.200
4427,-0.080,0.195
4428,-0.080,0.185
4429,-0.110,0.170
4430,-0.115,0.190
4431,-0.100,0.200
4432,-0.095,0.220
4433,-0.090,0.220
4434,-0.085,0.200
4435,-0.095,0.185
4436,-0.100,0.195
4437,-0.090,0.180
4438,-0.085,0.195
4439,-0.095,0.215
4440,-0.120,0.205
4441,-0.120,0.195
4442,-0.115,0.210
4443,-0.110,0.225
4444,-0.095,0.215
4445,-0.100,0.190
4446,-0.105,0.200
4447,-0.130,0.190
4448,-0.140,0.205
4449,-0.125,0.245
4450,-0.110,0.260
4451,-0.080,0.250
4452,-0.090,0.255
4453,-0.085,0.240
4454,-0.080,0.245
4455,-0.065,0.275
4456,-0.030,0.290
4457,-0.010,0.310
4458,0.000,0.285
4459,-0.010,0.255
4460,0.015,0.255
4461,0.035,0.260
4462,0.065,0.240
4463,0.090,0.200
4464,0.090,0.185
4465,0.100,0.175
4466,0.120,0.175
4467,0.125,0.225
4468,0.160,0.230
4469,0.175,0.215
4470,0.160,0.200
4471,0.135,0.190
4472,0.115,0.185
4473,0.105,0.215
4474,0.085,0.230
4475,0.060,0.245
4476,0.000,0.230
4477,-0.045,0.205
4478,-0.080,0.185
4479,-0.090,0.185
4480,-0.090,0.200
4481,-0.100,0.205
4482,-0.145,0.185
4483,-0.175,0.185
4484,-0.190,0.190
4485,-0.185,0.200
4486,-0.180,0.200
4487,-0.175,0.200
4488,-0.190,0.170
4489,-0.200,0.160
4490,-0.220,0.155
4491,-0.220,0.190
4492,-0.220,0.220
4493,-0.215,0.205
4494,-0.240,0.200
4495,-0.230,0.190
4496,-0.240,0.185
4497,-0.225,0.180
4498,-0.215,0.205
4499,-0.200,0.205
4500,-0.230,0.190
4501,-0.225,0.195
4502,-0.230,0.215
4503,-0.210,0.230
4504,-0.180,0.250
4505,-0.170,0.275
4506,-0.165,0.225
4507,-0.165,0.190
4508,-0.140,0.125
4509,-0.070,0.075
4510,0.045,0.095
4511,0.200,0.120
4512,0.415,0.130
4513,0.655,0.200
4514,0.905,0.355
4515,1.175,0.575
4516,1.375,0.795
4517,1.390,0.970
4518,1.145,1.050
4519,0.655,1.050
4520,0.110,1.025
4521,-0.320,1.020
4522,-0.535,1.060
4523,-0.540,1.120
4524,-0.485,1.190
4525,-0.485,1.255
4526,-0.520,1.330
4527,-0.570,1.410
4528,-0.605,1.485
4529,-0.620,1.515
4530,-0.680,1.550
4531,-0.675,1.590
4532,-0.660,1.655
4533,-0.650,1.705
4534,-0.635,1.735
4535,-0.665,1.705
4536,-0.710,1.600
4537,-0.720,1.470
4538,-0.710,1.315
4539,-0.670,1.130
4540,-0.610,0.940
4541,-0.550,0.735
4542,-0.520,0.540
4543,-0.485,0.400
4544,-0.435,0.325
4545,-0.360,0.310
4546,-0.280,0.275
4547,-0.210,0.240
4548,-0.170,0.180
4549,-0.160,0.135
4550,-0.160,0.115
4551,-0.145,0.115
4552,-0.115,0.110
4553,-0.115,0.095
4554,-0.115,0.070
4555,-0.130,0.050
4556,-0.110,0.050
4557,-0.075,0.050
4558,-0.060,0.045
4559,-0.055,0.020
4560,-0.065,-0.030
4561,-0.070,-0.050
4562,-0.070,-0.035
4563,-0.055,-0.015
4564,-0.045,0.005
4565,-0.020,-0.020
4566,-0.015,-0.055
4567,-0.030,-0.085
4568,-0.010,-0.105
4569,0.000,-0.110
4570,0.010,-0.105
4571,0.015,-0.115
4572,0.015,-0.130
4573,0.010,-0.140
4574,0.020,-0.165
4575,0.040,-0.170
4576,0.060,-0.195
4577,0.080,-0.230
4578,0.090,-0.270
4579,0.085,-0.275
4580,0.080,-0.270
4581,0.085,-0.280
4582,0.125,-0.275
4583,0.130,-0.295
4584,0.130,-0.335
4585,0.145,-0.375
4586,0.160,-0.390
4587,0.190,-0.410
4588,0.225,-0.415
4589,0.225,-0.430
4590,0.220,-0.445
4591,0.215,-0.455
4592,0.230,-0.460
4593,0.255,-0.475
4594,0.290,-0.465
4595,0.310,-0.475
4596,0.320,-0.485
4597,0.315,-0.470
4598,0.305,-0.435
4599,0.295,-0.385
4600,0.315,-0.350
4601,0.310,-0.340
4602,0.300,-0.325
4603,0.285,-0.315
4604,0.255,-0.280
4605,0.225,-0.215
4606,0.215,-0.160
4607,0.190,-0.125
4608,0.160,-0.100
4609,0.125,-0.085
4610,0.100,-0.065
4611,0.085,-0.025
4612,0.070,0.010
4613,0.060,0.035
4614,0.020,0.075
4615,-0.005,0.090
4616,-0.060,0.115
4617,-0.040,0.135
4618,-0.045,0.160
4619,-0.060,0.160
4620,-0.080,0.150
4621,-0.100,0.155
4622,-0.130,0.155
4623,-0.140,0.195
4624,-0.140,0.220
4625,-0.160,0.225
4626,-0.180,0.220
4627,-0.190,0.205
4628,-0.195,0.210
4629,-0.190,0.220
4630,-0.180,0.235
4631,-0.175,0.225
4632,-0.205,0.220
4633,-0.220,0.225
4634,-0.230,0.225
4635,-0.235,0.240
4636,-0.210,0.255
4637,-0.220,0.230
4638,-0.205,0.215
4639,-0.215,0.185
4640,-0.225,0.190
4641,-0.225,0.210
4642,-0.225,0.230
4643,-0.205,0.245
4644,-0.220,0.220
4645,-0.225,0.205
4646,-0.220,0.205
4647,-0.190,0.205
4648,-0.185,0.235
4649,-0.185,0.215
4650,-0.200,0.215
4651,-0.235,0.205
4652,-0.235,0.210
4653,-0.215,0.215
4654,-0.190,0.225
4655,-0.180,0.200
4656,-0.180,0.185
4657,-0.200,0.165
4658,-0.210,0.170
4659,-0.215,0.210
4660,-0.200,0.220
4661,-0.200,0.255
4662,-0.200,0.205
4663,-0.210,0.195
4664,-0.225,0.180
4665,-0.210,0.180
4666,-0.200,0.200
4667,-0.200,0.190
4668,-0.220,0.185
4669,-0.245,0.195
4670,-0.240,0.215
4671,-0.235,0.215
4672,-0.215,0.205
4673,-0.205,0.210
4674,-0.225,0.180
4675,-0.235,0.165
4676,-0.255,0.175
4677,-0.255,0.205
4678,-0.255,0.235
4679,-0.235,0.230
4680,-0.250,0.210
4681,-0.265,0.195
4682,-0.245,0.185
4683,-0.235,0.190
4684,-0.245,0.185
4685,-0.240,0.215
4686,-0.265,0.210
4687,-0.265,0.230
4688,-0.275,0.270
4689,-0.255,0.290
4690,-0.220,0.300
4691,-0.190,0.265
4692,-0.185,0.235
4693,-0.180,0.240
4694,-0.175,0.260
4695,-0.160,0.285
4696,-0.140,0.290
4697,-0.120,0.270
4698,-0.120,0.240
4699,-0.105,0.210
4700,-0.080,0.185
4701,-0.050,0.180
4702,-0.020,0.185
4703,-0.010,0.190
4704,0.000,0.185
4705,-0.025,0.195
4706,-0.020,0.210
4707,-0.035,0.235
4708,-0.010,0.245
4709,-0.005,0.225
4710,-0.035,0.200
4711,-0.065,0.180
4712,-0.110,0.200
4713,-0.145,0.225
4714,-0.185,0.245
4715,-0.225,0.230
4716,-0.240,0.195
4717,-0.275,0.180
4718,-0.275,0.175
4719,-0.275,0.195
4720,-0.280,0.205
4721,-0.295,0.205
4722,-0.340,0.195
4723,-0.355,0.195
4724,-0.360,0.195
4725,-0.360,0.215
4726,-0.330,0.200
4727,-0.330,0.200
4728,-0.340,0.190
4729,-0.365,0.175
4730,-0.385,0.185
4731,-0.385,0.205
4732,-0.375,0.230
4733,-0.365,0.245
4734,-0.370,0.210
4735,-0.385,0.195
4736,-0.390,0.210
4737,-0.375,0.205
4738,-0.355,0.210
4739,-0.355,0.200
4740,-0.385,0.185
4741,-0.385,0.185
4742,-0.390,0.210
4743,-0.360,0.255
4744,-0.330,0.270
4745,-0.305,0.200
4746,-0.270,0.110
4747,-0.195,0.045
4748,-0.100,0.040
4749,0.070,0.065
4750,0.290,0.130
4751,0.555,0.240
4752,0.820,0.400
4753,1.040,0.560
4754,1.200,0.755
4755,1.190,0.905
4756,0.960,0.985
4757,0.505,1.005
4758,-0.020,0.975
4759,-0.450,0.955
4760,-0.685,0.970
4761,-0.710,1.035
4762,-0.645,1.100
4763,-0.580,1.160
4764,-0.605,1.200
4765,-0.660,1.255
4766,-0.710,1.310
4767,-0.755,1.375
4768,-0.800,1.425
4769,-0.810,1.480
4770,-0.810,1.535
4771,-0.820,1.570
4772,-0.800,1.620
4773,-0.795,1.640
4774,-0.810,1.635
4775,-0.835,1.555
4776,-0.870,1.435
4777,-0.885,1.275
4778,-0.870,1.085
4779,-0.805,0.900
4780,-0.735,0.725
4781,-0.675,0.520
4782,-0.615,0.350
4783,-0.580,0.255
4784,-0.530,0.220
4785,-0.470,0.215
4786,-0.420,0.205
4787,-0.365,0.170
4788,-0.340,0.120
4789,-0.330,0.090
4790,-0.320,0.070
4791,-0.295,0.040
4792,-0.295,0.055
4793,-0.285,0.035
4794,-0.285,0.025
4795,-0.310,0.005
4796,-0.290,-0.010
4797,-0.275,0.000
4798,-0.240,-0.015
4799,-0.250,-0.035
4800,-0.245,-0.055
4801,-0.255,-0.080
4802,-0.250,-0.080
4803,-0.245,-0.050
4804,-0.220,-0.055
4805,-0.205,-0.070
4806,-0.195,-0.100
4807,-0.200,-0.120
4808,-0.200,-0.125
4809,-0.185,-0.140
4810,-0.170,-0.150
4811,-0.170,-0.160
4812,-0.185,-0.170
4813,-0.195,-0.205
4814,-0.190,-0.220
4815,-0.185,-0.230
4816,-0.150,-0.255
4817,-0.115,-0.295
4818,-0.105,-0.345
4819,-0.115,-0.365
4820,-0.115,-0.380
4821,-0.105,-0.360
4822,-0.080,-0.355
4823,-0.050,-0.390
4824,-0.055,-0.445
4825,-0.035,-0.465
4826,-0.025,-0.490
4827,-0.015,-0.485
4828,0.025,-0.475
4829,0.020,-0.485
4830,0.035,-0.505
4831,0.035,-0.520
4832,0.045,-0.500
4833,0.075,-0.475
4834,0.110,-0.470
4835,0.115,-0.475
4836,0.100,-0.445
4837,0.075,-0.415
4838,0.065,-0.370
4839,0.075,-0.335
4840,0.080,-0.300
4841,0.065,-0.280
4842,0.025,-0.280
4843,0.000,-0.275
4844,-0.025,-0.235
4845,-0.040,-0.175
4846,-0.055,-0.120
4847,-0.075,-0.085
4848,-0.110,-0.060
4849,-0.145,-0.045
4850,-0.175,-0.035
4851,-0.185,0.015
4852,-0.200,0.030
4853,-0.210,0.050
4854,-0.255,0.060
4855,-0.285,0.090
4856,-0.315,0.105
4857,-0.320,0.125
4858,-0.300,0.150
4859,-0.300,0.140
4860,-0.315,0.135
4861,-0.355,0.130
4862,-0.375,0.140
4863,-0.385,0.180
4864,-0.400,0.200
4865,-0.380,0.185
4866,-0.385,0.165
4867,-0.395,0.155
4868,-0.385,0.160
4869,-0.385,0.175
4870,-0.375,0.180
4871,-0.380,0.185
4872,-0.400,0.185
4873,-0.415,0.170
4874,-0.425,0.180
4875,-0.405,0.190
4876,-0.385,0.195
4877,-0.380,0.185
4878,-0.385,0.170
4879,-0.400,0.155
4880,-0.395,0.165
4881,-0.415,0.190
4882,-0.405,0.215
4883,-0.385,0.205
4884,-0.375,0.180
4885,-0.390,0.155
4886,-0.395,0.135
4887,-0.410,0.155
4888,-0.385,0.200
4889,-0.365,0.205
4890,-0.370,0.190
4891,-0.360,0.155
4892,-0.370,0.140
4893,-0.350,0.160
4894,-0.345,0.160
4895,-0.350,0.155
4896,-0.360,0.150
4897,-0.380,0.165
4898,-0.385,0.175
4899,-0.370,0.190
4900,-0.360,0.200
4901,-0.350,0.180
4902,-0.365,0.155
4903,-0.385,0.145
4904,-0.405,0.145
4905,-0.405,0.160
4906,-0.380,0.195
4907,-0.385,0.195
4908,-0.385,0.185
4909,-0.400,0.175
4910,-0.395,0.190
4911,-0.380,0.205
4912,-0.360,0.220
4913,-0.335,0.215
4914,-0.355,0.205
4915,-0.355,0.190
4916,-0.355,0.235
4917,-0.315,0.250
4918,-0.285,0.260
4919,-0.265,0.220
4920,-0.260,0.185
4921,-0.250,0.170
4922,-0.240,0.150
4923,-0.220,0.150
4924,-0.175,0.155
4925,-0.130,0.175
4926,-0.125,0.150
4927,-0.125,0.130
4928,-0.130,0.150
4929,-0.115,0.170
4930,-0.105,0.195
4931,-0.110,0.180
4932,-0.145,0.165
4933,-0.180,0.155
4934,-0.210,0.170
4935,-0.245,0.195
4936,-0.260,0.195
4937,-0.300,0.185
4938,-0.335,0.135
4939,-0.380,0.125
4940,-0.375,0.135
4941,-0.380,0.160
4942,-0.385,0.190
4943,-0.400,0.170
4944,-0.420,0.155
4945,-0.435,0.145
4946,-0.440,0.135
4947,-0.435,0.145
4948,-0.435,0.155
4949,-0.440,0.140
4950,-0.455,0.140
4951,-0.475,0.160
4952,-0.475,0.165
4953,-0.450,0.190
4954,-0.435,0.190
4955,-0.440,0.165
4956,-0.455,0.145
4957,-0.455,0.130
4958,-0.465,0.155
4959,-0.450,0.170
4960,-0.445,0.200
4961,-0.440,0.175
4962,-0.440,0.165
4963,-0.445,0.160
4964,-0.430,0.155
4965,-0.410,0.210
4966,-0.390,0.210
4967,-0.375,0.160
4968,-0.360,0.085
4969,-0.320,0.045
4970,-0.220,0.060
4971,-0.050,0.075
4972,0.165,0.120
4973,0.425,0.165
4974,0.690,0.285
4975,0.925,0.435
4976,1.105,0.605
4977,1.165,0.765
4978,1.035,0.900
4979,0.690,0.915
4980,0.200,0.880
4981,-0.265,0.845
4982,-0.585,0.840
4983,-0.715,0.900
4984,-0.670,0.965
4985,-0.625,1.035
4986,-0.625,1.105
4987,-0.680,1.150
4988,-0.735,1.200
4989,-0.745,1.250
4990,-0.775,1.305
4991,-0.795,1.320
4992,-0.805,1.345
4993,-0.805,1.385
4994,-0.805,1.470
4995,-0.795,1.540
4996,-0.785,1.590
4997,-0.805,1.570
4998,-0.825,1.500
4999,-0.845,1.380
5000,-0.840,1.265
5001,-0.805,1.105
5002,-0.750,0.930
5003,-0.710,0.735
5004,-0.675,0.560
5005,-0.635,0.420
5006,-0.585,0.315
5007,-0.505,0.235
5008,-0.440,0.210
5009,-0.360,0.160
5010,-0.315,0.100
5011,-0.275,0.070
5012,-0.255,0.050
5013,-0.245,0.035
5014,-0.225,0.035
5015,-0.210,0.020
5016,-0.200,0.005
5017,-0.205,-0.010
5018,-0.190,-0.030
5019,-0.170,-0.045
5020,-0.160,-0.055
5021,-0.145,-0.065
5022,-0.150,-0.080
5023,-0.155,-0.095
5024,-0.160,-0.095
5025,-0.145,-0.085
5026,-0.125,-0.085
5027,-0.100,-0.115
5028,-0.095,-0.145
5029,-0.095,-0.165
5030,-0.100,-0.165
5031,-0.085,-0.170
5032,-0.080,-0.155
5033,-0.060,-0.170
5034,-0.050,-0.190
5035,-0.035,-0.225
5036,-0.020,-0.260
5037,0.000,-0.275
5038,0.005,-0.275
5039,0.035,-0.300
5040,0.025,-0.340
5041,0.020,-0.370
5042,0.025,-0.380
5043,0.080,-0.380
5044,0.120,-0.400
5045,0.150,-0.430
5046,0.145,-0.470
5047,0.150,-0.505
5048,0.155,-0.505
5049,0.180,-0.495
5050,0.210,-0.480
5051,0.240,-0.500
5052,0.255,-0.535
5053,0.260,-0.560
5054,0.260,-0.555
5055,0.280,-0.535
5056,0.305,-0.495
5057,0.315,-0.480
5058,0.300,-0.455
5059,0.290,-0.450
5060,0.285,-0.425
5061,0.305,-0.390
5062,0.300,-0.355
5063,0.275,-0.335
5064,0.215,-0.310
5065,0.180,-0.260
5066,0.165,-0.205
5067,0.150,-0.170
5068,0.150,-0.125
5069,0.140,-0.130
5070,0.095,-0.115
5071,0.070,-0.095
5072,0.035,-0.050
5073,0.020,0.005
5074,0.010,0.030
5075,0.000,0.060
5076,-0.020,0.065
5077,-0.040,0.065
5078,-0.055,0.085
5079,-0.070,0.110
5080,-0.080,0.130
5081,-0.100,0.140
5082,-0.110,0.155
5083,-0.135,0.155
5084,-0.145,0.160
5085,-0.120,0.160
5086,-0.120,0.185
5087,-0.130,0.170
5088,-0.145,0.150
5089,-0.165,0.165
5090,-0.175,0.185
5091,-0.170,0.200
5092,-0.165,0.215
5093,-0.140,0.205
5094,-0.145,0.190
5095,-0.150,0.165
5096,-0.155,0.165
5097,-0.170,0.180
5098,-0.140,0.210
5099,-0.140,0.225
5100,-0.125,0.190
5101,-0.150,0.175
5102,-0.150,0.165
5103,-0.115,0.175
5104,-0.110,0.185
5105,-0.100,0.185
5106,-0.120,0.170
5107,-0.115,0.165
5108,-0.135,0.170
5109,-0.120,0.195
5110,-0.080,0.200
5111,-0.075,0.180
5112,-0.090,0.155
5113,-0.095,0.140
5114,-0.105,0.150
5115,-0.100,0.175
5116,-0.075,0.195
5117,-0.085,0.190
5118,-0.110,0.185
5119,-0.100,0.170
5120,-0.095,0.160
5121,-0.080,0.155
5122,-0.075,0.175
5123,-0.070,0.160
5124,-0.085,0.155
5125,-0.120,0.170
5126,-0.095,0.170
5127,-0.085,0.180
5128,-0.080,0.190
5129,-0.070,0.170
5130,-0.070,0.155
5131,-0.105,0.160
5132,-0.100,0.180
5133,-0.095,0.205
5134,-0.090,0.230
5135,-0.085,0.220
5136,-0.080,0.215
5137,-0.075,0.215
5138,-0.050,0.215
5139,-0.040,0.225
5140,-0.005,0.235
5141,0.020,0.260
5142,0.020,0.245
5143,0.020,0.240
5144,0.020,0.230
5145,0.060,0.210
5146,0.095,0.200
5147,0.105,0.180
5148,0.140,0.155
5149,0.135,0.140
5150,0.155,0.165
5151,0.155,0.185
5152,0.175,0.210
5153,0.185,0.200
5154,0.165,0.175
5155,0.160,0.170
5156,0.140,0.180
5157,0.120,0.185
5158,0.105,0.220
5159,0.070,0.210
5160,0.020,0.185
5161,-0.040,0.185
5162,-0.060,0.160
5163,-0.075,0.170
5164,-0.075,0.170
5165,-0.090,0.170
5166,-0.115,0.175
5167,-0.150,0.165
5168,-0.155,0.175
5169,-0.155,0.185
5170,-0.140,0.175
5171,-0.135,0.175
5172,-0.145,0.155
5173,-0.150,0.155
5174,-0.180,0.140
5175,-0.170,0.170
5176,-0.175,0.200
5177,-0.180,0.200
5178,-0.195,0.185
5179,-0.185,0.180
5180,-0.185,0.155
5181,-0.180,0.165
5182,-0.165,0.185
5183,-0.160,0.195
5184,-0.170,0.195
5185,-0.180,0.200
5186,-0.180,0.190
5187,-0.165,0.220
5188,-0.145,0.240
5189,-0.125,0.250
5190,-0.100,0.210
5191,-0.100,0.145
5192,-0.050,0.085
5193,0.035,0.085
5194,0.160,0.100
5195,0.360,0.115
5196,0.600,0.150
5197,0.850,0.245
5198,1.110,0.430
5199,1.315,0.650
5200,1.445,0.840
5201,1.370,0.990
5202,1.075,1.050
5203,0.620,1.050
5204,0.150,1.020
5205,-0.210,1.020
5206,-0.415,1.030
5207,-0.470,1.075
5208,-0.460,1.100
5209,-0.430,1.160
5210,-0.455,1.230
5211,-0.490,1.325
5212,-0.510,1.375
5213,-0.535,1.430
5214,-0.565,1.465
5215,-0.610,1.495
5216,-0.625,1.545
5217,-0.610,1.605
5218,-0.580,1.675
5219,-0.580,1.695
5220,-0.595,1.695
5221,-0.625,1.675
5222,-0.655,1.620
5223,-0.665,1.535
5224,-0.650,1.430
5225,-0.620,1.275
5226,-0.605,1.075
5227,-0.570,0.890
5228,-0.515,0.700
5229,-0.465,0.555
5230,-0.425,0.440
5231,-0.385,0.325
5232,-0.305,0.265
5233,-0.245,0.215
5234,-0.185,0.185
5235,-0.130,0.160
5236,-0.095,0.140
5237,-0.085,0.090
5238,-0.075,0.075
5239,-0.080,0.035
5240,-0.070,0.020
5241,-0.055,0.035
5242,-0.040,0.040
5243,-0.015,0.020
5244,-0.015,-0.005
5245,-0.015,-0.040
5246,-0.010,-0.060
5247,-0.005,-0.045
5248,0.015,-0.035
5249,0.025,-0.050
5250,0.005,-0.060
5251,0.005,-0.075
5252,0.005,-0.090
5253,0.020,-0.090
5254,0.050,-0.100
5255,0.065,-0.115
5256,0.055,-0.140
5257,0.045,-0.150
5258,0.045,-0.170
5259,0.040,-0.155
5260,0.070,-0.160
5261,0.105,-0.190
5262,0.110,-0.225
5263,0.105,-0.265
5264,0.095,-0.270
5265,0.120,-0.270
5266,0.140,-0.280
5267,0.150,-0.275
5268,0.160,-0.315
5269,0.165,-0.335
5270,0.180,-0.340
5271,0.210,-0.380
5272,0.235,-0.390
5273,0.260,-0.415
5274,0.255,-0.440
5275,0.255,-0.480
5276,0.255,-0.465
5277,0.280,-0.455
5278,0.315,-0.440
5279,0.355,-0.450
5280,0.360,-0.490
5281,0.360,-0.510
5282,0.350,-0.515
5283,0.365,-0.485
5284,0.375,-0.440
5285,0.385,-0.405
5286,0.375,-0.395
5287,0.350,-0.395
5288,0.350,-0.370
5289,0.350,-0.340
5290,0.345,-0.315
5291,0.355,-0.285
5292,0.320,-0.270
5293,0.280,-0.250
5294,0.235,-0.205
5295,0.220,-0.145
5296,0.215,-0.100
5297,0.200,-0.070
5298,0.165,-0.060
5299,0.125,-0.065
5300,0.105,-0.030
5301,0.085,0.000
5302,0.060,0.050
5303,0.065,0.065
5304,0.020,0.085
5305,-0.010,0.095
5306,-0.020,0.115
5307,-0.025,0.135
5308,-0.040,0.155
5309,-0.035,0.145
5310,-0.060,0.135
5311,-0.100,0.150
5312,-0.120,0.165
5313,-0.110,0.190
5314,-0.110,0.225
5315,-0.110,0.215
5316,-0.135,0.195
5317,-0.140,0.165
5318,-0.150,0.165
5319,-0.145,0.175
5320,-0.130,0.195
5321,-0.150,0.205
5322,-0.155,0.190
5323,-0.175,0.185
5324,-0.190,0.180
5325,-0.175,0.195
5326,-0.160,0.195
5327,-0.140,0.185
5328,-0.150,0.170
5329,-0.180,0.155
5330,-0.195,0.190
5331,-0.180,0.225
5332,-0.160,0.230
5333,-0.160,0.215
5334,-0.160,0.185
5335,-0.165,0.160
5336,-0.170,0.160
5337,-0.175,0.175
5338,-0.165,0.180
5339,-0.150,0.200
5340,-0.170,0.185
5341,-0.175,0.175
5342,-0.175,0.185
5343,-0.160,0.195
5344,-0.140,0.175
5345,-0.135,0.175
5346,-0.155,0.140
5347,-0.170,0.135
5348,-0.185,0.160
5349,-0.170,0.195
5350,-0.155,0.215
5351,-0.150,0.205
5352,-0.150,0.160
5353,-0.160,0.150
5354,-0.175,0.140
5355,-0.175,0.165
5356,-0.155,0.195
5357,-0.150,0.175
5358,-0.175,0.185
5359,-0.185,0.170
5360,-0.165,0.180
5361,-0.155,0.185
5362,-0.135,0.185
5363,-0.135,0.185
5364,-0.150,0.160
5365,-0.175,0.155
5366,-0.195,0.170
5367,-0.190,0.215
5368,-0.175,0.225
5369,-0.175,0.220
5370,-0.170,0.190
5371,-0.175,0.175
5372,-0.165,0.185
5373,-0.165,0.215
5374,-0.145,0.260
5375,-0.140,0.255
5376,-0.145,0.265
5377,-0.125,0.250
5378,-0.110,0.245
5379,-0.070,0.265
5380,-0.035,0.275
5381,-0.025,0.225
5382,-0.035,0.205
5383,-0.035,0.185
5384,-0.025,0.190
5385,0.010,0.185
5386,0.045,0.180
5387,0.075,0.175
5388,0.100,0.155
5389,0.085,0.135
5390,0.085,0.150
5391,0.085,0.170
5392,0.095,0.185
5393,0.090,0.180
5394,0.075,0.180
5395,0.040,0.170
5396,0.040,0.170
5397,0.010,0.195
5398,-0.010,0.205
5399,-0.060,0.180
5400,-0.105,0.150
5401,-0.145,0.130
5402,-0.160,0.150
5403,-0.170,0.165
5404,-0.185,0.185
5405,-0.180,0.180
5406,-0.200,0.150
5407,-0.215,0.150
5408,-0.220,0.155
5409,-0.230,0.165
5410,-0.240,0.170
5411,-0.235,0.170
5412,-0.255,0.170
5413,-0.275,0.180
5414,-0.275,0.185
5415,-0.255,0.200
5416,-0.250,0.205
5417,-0.255,0.180
5418,-0.270,0.150
5419,-0.295,0.155
5420,-0.275,0.175
5421,-0.275,0.200
5422,-0.265,0.230
5423,-0.270,0.220
5424,-0.265,0.195
5425,-0.280,0.185
5426,-0.275,0.185
5427,-0.255,0.220
5428,-0.225,0.265
5429,-0.225,0.245
5430,-0.200,0.195
5431,-0.180,0.135
5432,-0.090,0.090
5433,0.045,0.090
5434,0.230,0.125
5435,0.460,0.135
5436,0.730,0.225
5437,0.990,0.395
5438,1.195,0.630
5439,1.325,0.845
5440,1.260,1.020
5441,0.965,1.065
5442,0.520,1.040
5443,0.025,0.995
5444,-0.345,0.970
5445,-0.535,1.005
5446,-0.590,1.050
5447,-0.545,1.130
5448,-0.520,1.210
5449,-0.535,1.265
5450,-0.570,1.315
5451,-0.590,1.370
5452,-0.620,1.425
5453,-0.640,1.450
5454,-0.675,1.475
5455,-0.700,1.520
5456,-0.705,1.590
5457,-0.695,1.680
5458,-0.685,1.725
5459,-0.680,1.720
5460,-0.705,1.670
5461,-0.725,1.565
5462,-0.730,1.430
5463,-0.715,1.305
5464,-0.675,1.120
5465,-0.660,0.940
5466,-0.620,0.745
5467,-0.580,0.555
5468,-0.535,0.415
5469,-0.455,0.325
5470,-0.375,0.285
5471,-0.295,0.230
5472,-0.250,0.155
5473,-0.210,0.130
5474,-0.205,0.105
5475,-0.200,0.100
5476,-0.180,0.105
5477,-0.160,0.090
5478,-0.150,0.050
5479,-0.140,0.025
5480,-0.130,0.020
5481,-0.100,-0.010
5482,-0.090,-0.005
5483,-0.080,-0.010
5484,-0.100,-0.025
5485,-0.110,-0.040
5486,-0.130,-0.035
5487,-0.100,-0.040
5488,-0.085,-0.020
5489,-0.060,-0.045
5490,-0.065,-0.085
5491,-0.070,-0.095
5492,-0.080,-0.105
5493,-0.090,-0.100
5494,-0.075,-0.100
5495,-0.050,-0.105
5496,-0.050,-0.120
5497,-0.055,-0.130
5498,-0.045,-0.150
5499,-0.035,-0.155
5500,-0.010,-0.160
5501,0.005,-0.200
5502,0.010,-0.225
5503,-0.020,-0.245
5504,-0.010,-0.240
5505,0.020,-0.245
5506,0.040,-0.265
5507,0.055,-0.290
5508,0.075,-0.335
5509,0.075,-0.360
5510,0.080,-0.390
5511,0.095,-0.395
5512,0.115,-0.375
5513,0.120,-0.400
5514,0.115,-0.430
5515,0.115,-0.445
5516,0.130,-0.450
5517,0.155,-0.460
5518,0.190,-0.470
5519,0.195,-0.500
5520,0.205,-0.525
5521,0.185,-0.535
5522,0.185,-0.500
5523,0.200,-0.460
5524,0.225,-0.430
5525,0.230,-0.430
5526,0.230,-0.430
5527,0.225,-0.425
5528,0.220,-0.405
5529,0.220,-0.375
5530,0.215,-0.345
5531,0.205,-0.340
5532,0.165,-0.330
5533,0.130,-0.295
5534,0.110,-0.255
5535,0.095,-0.200
5536,0.085,-0.160
5537,0.085,-0.170
5538,0.055,-0.155
5539,0.020,-0.125
5540,-0.010,-0.095
5541,-0.035,-0.030
5542,-0.045,0.010
5543,-0.065,0.040
5544,-0.100,0.040
5545,-0.125,0.050
5546,-0.145,0.070
5547,-0.165,0.090
5548,-0.160,0.120
5549,-0.185,0.140
5550,-0.225,0.125
5551,-0.260,0.145
5552,-0.275,0.180
5553,-0.280,0.190
5554,-0.270,0.205
5555,-0.285,0.200
5556,-0.290,0.170
5557,-0.315,0.165
5558,-0.325,0.190
5559,-0.345,0.200
5560,-0.335,0.230
5561,-0.340,0.235
5562,-0.340,0.215
5563,-0.355,0.200
5564,-0.350,0.200
5565,-0.340,0.210
5566,-0.340,0.205
5567,-0.345,0.205
5568,-0.350,0.200
5569,-0.385,0.190
5570,-0.385,0.220
5571,-0.360,0.235
5572,-0.345,0.250
5573,-0.320,0.215
5574,-0.330,0.180
5575,-0.355,0.175
5576,-0.365,0.175
5577,-0.355,0.195
5578,-0.345,0.210
5579,-0.345,0.215
5580,-0.360,0.200
5581,-0.375,0.200
5582,-0.370,0.195
5583,-0.355,0.205
5584,-0.335,0.200
5585,-0.350,0.195
5586,-0.345,0.175
5587,-0.355,0.165
5588,-0.365,0.160
5589,-0.360,0.195
5590,-0.340,0.225
5591,-0.330,0.210
5592,-0.335,0.175
5593,-0.345,0.165
5594,-0.345,0.150
5595,-0.345,0.165
5596,-0.350,0.190
5597,-0.340,0.180
5598,-0.375,0.185
5599,-0.380,0.195
5600,-0.395,0.180
5601,-0.385,0.195
5602,-0.350,0.210
5603,-0.340,0.195
5604,-0.360,0.165
5605,-0.395,0.150
5606,-0.410,0.165
5607,-0.400,0.185
5608,-0.385,0.225
5609,-0.365,0.240
5610,-0.375,0.235
5611,-0.380,0.225
5612,-0.370,0.230
5613,-0.330,0.230
5614,-0.310,0.240
5615,-0.295,0.250
5616,-0.310,0.230
5617,-0.300,0.240
5618,-0.300,0.245
5619,-0.285,0.235
5620,-0.245,0.235
5621,-0.215,0.210
5622,-0.200,0.165
5623,-0.185,0.120
5624,-0.160,0.100
5625,-0.140,0.130
5626,-0.130,0.170
5627,-0.135,0.185
5628,-0.130,0.190
5629,-0.150,0.190
5630,-0.160,0.175
5631,-0.175,0.190
5632,-0.175,0.190
5633,-0.175,0.170
5634,-0.195,0.175
5635,-0.245,0.175
5636,-0.315,0.190
5637,-0.345,0.180
5638,-0.370,0.195
5639,-0.365,0.200
5640,-0.390,0.165
5641,-0.410,0.150
5642,-0.425,0.135
5643,-0.435,0.145
5644,-0.445,0.160
5645,-0.450,0.170
5646,-0.480,0.170
5647,-0.500,0.160
5648,-0.515,0.165
5649,-0.510,0.185
5650,-0.505,0.190
5651,-0.500,0.180
5652,-0.505,0.155
5653,-0.525,0.140
5654,-0.550,0.155
5655,-0.530,0.165
5656,-0.515,0.195
5657,-0.500,0.200
5658,-0.520,0.205
5659,-0.545,0.180
5660,-0.545,0.160
5661,-0.525,0.185
5662,-0.505,0.185
5663,-0.530,0.175
5664,-0.520,0.160
5665,-0.540,0.165
5666,-0.535,0.170
5667,-0.530,0.195
5668,-0.495,0.215
5669,-0.480,0.235
5670,-0.465,0.190
5671,-0.460,0.130
5672,-0.415,0.065
5673,-0.350,0.020
5674,-0.260,0.040
5675,-0.100,0.055
5676,0.075,0.080
5677,0.300,0.140
5678,0.570,0.255
5679,0.820,0.425
5680,0.990,0.575
5681,1.060,0.695
5682,0.945,0.830
5683,0.635,0.905
5684,0.215,0.915
5685,-0.215,0.895
5686,-0.545,0.905
5687,-0.745,0.885
5688,-0.810,0.890
5689,-0.785,0.940
5690,-0.750,1.005
5691,-0.745,1.055
5692,-0.770,1.150
5693,-0.810,1.175
5694,-0.860,1.220
5695,-0.915,1.270
5696,-0.950,1.310
5697,-0.935,1.365
5698,-0.925,1.420
5699,-0.890,1.455
5700,-0.900,1.500
5701,-0.920,1.525
5702,-0.940,1.550
5703,-0.945,1.560
5704,-0.955,1.515
5705,-0.970,1.395
5706,-0.970,1.270
5707,-0.965,1.130
5708,-0.930,0.970
5709,-0.870,0.815
5710,-0.815,0.670
5711,-0.775,0.510
5712,-0.735,0.345
5713,-0.710,0.230
5714,-0.655,0.190
5715,-0.590,0.195
5716,-0.515,0.190
5717,-0.465,0.150
5718,-0.435,0.100
5719,-0.435,0.050
5720,-0.455,0.030
5721,-0.430,0.025
5722,-0.400,0.035
5723,-0.390,0.030
5724,-0.385,-0.010
5725,-0.390,-0.005
5726,-0.385,-0.010
5727,-0.365,0.000
5728,-0.355,-0.010
5729,-0.330,-0.035
5730,-0.325,-0.060
5731,-0.340,-0.090
5732,-0.345,-0.085
5733,-0.335,-0.090
5734,-0.310,-0.070
5735,-0.310,-0.075
5736,-0.305,-0.080
5737,-0.320,-0.120
5738,-0.295,-0.135
5739,-0.285,-0.150
5740,-0.265,-0.145
5741,-0.255,-0.170
5742,-0.265,-0.185
5743,-0.285,-0.195
5744,-0.275,-0.190
5745,-0.270,-0.190
5746,-0.245,-0.165
5747,-0.225,-0.200
5748,-0.220,-0.245
5749,-0.230,-0.290
5750,-0.220,-0.310
5751,-0.200,-0.315
5752,-0.180,-0.310
5753,-0.170,-0.330
5754,-0.170,-0.345
5755,-0.155,-0.365
5756,-0.150,-0.400
5757,-0.120,-0.410
5758,-0.085,-0.420
5759,-0.060,-0.450
5760,-0.055,-0.475
5761,-0.055,-0.490
5762,-0.050,-0.500
5763,-0.045,-0.480
5764,-0.020,-0.460
5765,0.010,-0.460
5766,0.030,-0.480
5767,0.030,-0.495
5768,0.035,-0.495
5769,0.040,-0.465
5770,0.045,-0.435
5771,0.045,-0.420
5772,0.015,-0.390
5773,0.015,-0.370
5774,0.000,-0.350
5775,-0.005,-0.320
5776,0.015,-0.290
5777,0.000,-0.275
5778,-0.020,-0.270
5779,-0.065,-0.260
5780,-0.100,-0.210
5781,-0.115,-0.145
5782,-0.140,-0.105
5783,-0.150,-0.085
5784,-0.175,-0.070
5785,-0.195,-0.065
5786,-0.220,-0.045
5787,-0.230,-0.025
5788,-0.240,0.015
5789,-0.260,0.040
5790,-0.305,0.050
5791,-0.330,0.075
5792,-0.340,0.100
5793,-0.350,0.125
5794,-0.350,0.145
5795,-0.375,0.130
5796,-0.390,0.130
5797,-0.410,0.130
5798,-0.425,0.150
5799,-0.435,0.160
5800,-0.440,0.190
5801,-0.430,0.205
5802,-0.455,0.195
5803,-0.445,0.180
5804,-0.455,0.180
5805,-0.455,0.175
5806,-0.450,0.195
5807,-0.450,0.185
5808,-0.460,0.195
5809,-0.465,0.170
5810,-0.485,0.195
5811,-0.465,0.215
5812,-0.455,0.210
5813,-0.440,0.215
5814,-0.445,0.195
5815,-0.455,0.170
5816,-0.470,0.165
5817,-0.465,0.170
5818,-0.445,0.200
5819,-0.440,0.200
5820,-0.450,0.205
5821,-0.460,0.190
5822,-0.465,0.180
5823,-0.450,0.175
5824,-0.430,0.185
5825,-0.415,0.165
5826,-0.430,0.145
5827,-0.455,0.155
5828,-0.460,0.175
5829,-0.440,0.195
5830,-0.440,0.205
5831,-0.430,0.185
5832,-0.430,0.170
5833,-0.440,0.155
5834,-0.435,0.130
5835,-0.425,0.160
5836,-0.415,0.195
5837,-0.425,0.180
5838,-0.435,0.195
5839,-0.445,0.180
5840,-0.445,0.200
5841,-0.435,0.200
5842,-0.420,0.195
5843,-0.410,0.175
5844,-0.425,0.175
5845,-0.460,0.170
5846,-0.460,0.185
5847,-0.440,0.240
5848,-0.435,0.250
5849,-0.420,0.270
5850,-0.400,0.230
5851,-0.410,0.205
5852,-0.385,0.205
5853,-0.345,0.220
5854,-0.330,0.230
5855,-0.330,0.235
5856,-0.325,0.220
5857,-0.340,0.225
5858,-0.310,0.205
5859,-0.280,0.220
5860,-0.245,0.205
5861,-0.215,0.170
5862,-0.200,0.140
5863,-0.200,0.120
5864,-0.185,0.135
5865,-0.170,0.165
5866,-0.160,0.200
5867,-0.145,0.200
5868,-0.165,0.190
5869,-0.165,0.195
5870,-0.170,0.185
5871,-0.175,0.170
5872,-0.175,0.190
5873,-0.200,0.185
5874,-0.240,0.180
5875,-0.305,0.180
5876,-0.350,0.185
5877,-0.365,0.205
5878,-0.365,0.205
5879,-0.365,0.185
5880,-0.380,0.140
5881,-0.395,0.145
5882,-0.415,0.145
5883,-0.415,0.160
5884,-0.420,0.175
5885,-0.420,0.180
5886,-0.440,0.175
5887,-0.460,0.160
5888,-0.470,0.175
5889,-0.445,0.170
5890,-0.425,0.175
5891,-0.425,0.165
5892,-0.450,0.160
5893,-0.470,0.150
5894,-0.485,0.170
5895,-0.470,0.195
5896,-0.455,0.225
5897,-0.440,0.195
5898,-0.450,0.170
5899,-0.455,0.155
5900,-0.450,0.150
5901,-0.435,0.180
5902,-0.420,0.180
5903,-0.415,0.190
5904,-0.420,0.185
5905,-0.435,0.190
5906,-0.415,0.230
5907,-0.385,0.245
5908,-0.345,0.215
5909,-0.300,0.130
5910,-0.260,0.070
5911,-0.180,0.035
5912,-0.040,0.060
5913,0.180,0.105
5914,0.445,0.180
5915,0.705,0.300
5916,0.945,0.455
5917,1.130,0.590
5918,1.185,0.725
5919,1.120,0.880
5920,0.870,0.950
5921,0.465,0.955
5922,0.015,0.935
5923,-0.375,0.900
5924,-0.610,0.935
5925,-0.710,0.960
5926,-0.680,1.030
5927,-0.630,1.085
5928,-0.635,1.150
5929,-0.685,1.165
5930,-0.735,1.215
5931,-0.765,1.285
5932,-0.785,1.370
5933,-0.800,1.410
5934,-0.830,1.450
5935,-0.855,1.480
5936,-0.840,1.540
5937,-0.825,1.580
5938,-0.800,1.630
5939,-0.805,1.645
5940,-0.850,1.590
5941,-0.865,1.500
5942,-0.885,1.390
5943,-0.880,1.275
5944,-0.830,1.155
5945,-0.770,0.960
5946,-0.730,0.770
5947,-0.700,0.570
5948,-0.670,0.430
5949,-0.615,0.335
5950,-0.530,0.300
5951,-0.465,0.255
5952,-0.420,0.205
5953,-0.380,0.175
5954,-0.340,0.135
5955,-0.295,0.120
5956,-0.265,0.110
5957,-0.245,0.070
5958,-0.250,0.025
5959,-0.255,0.010
5960,-0.260,0.010
5961,-0.230,0.025
5962,-0.215,0.045
5963,-0.205,0.035
5964,-0.185,0.000
5965,-0.195,-0.040
5966,-0.185,-0.065
5967,-0.175,-0.060
5968,-0.175,-0.045
5969,-0.170,-0.060
5970,-0.160,-0.070
5971,-0.170,-0.080
5972,-0.175,-0.095
5973,-0.150,-0.085
5974,-0.115,-0.095
5975,-0.105,-0.135
5976,-0.100,-0.155
5977,-0.120,-0.165
5978,-0.110,-0.170
5979,-0.105,-0.180
5980,-0.080,-0.170
5981,-0.075,-0.175
5982,-0.055,-0.195
5983,-0.065,-0.220
5984,-0.045,-0.250
5985,-0.025,-0.275
5986,0.000,-0.275
5987,0.000,-0.295
5988,-0.005,-0.325
5989,0.000,-0.340
5990,-0.010,-0.350
5991,0.030,-0.365
5992,0.060,-0.360
5993,0.080,-0.380
5994,0.095,-0.415
5995,0.100,-0.435
5996,0.100,-0.470
5997,0.120,-0.460
5998,0.145,-0.440
5999,0.160,-0.440
6000,0.160,-0.455
6001,0.165,-0.455
6002,0.165,-0.455
6003,0.175,-0.440
6004,0.190,-0.435
6005,0.205,-0.445
6006,0.215,-0.425
6007,0.210,-0.420
6008,0.200,-0.390
6009,0.190,-0.345
6010,0.200,-0.315
6011,0.195,-0.290
6012,0.180,-0.275
6013,0.160,-0.275
6014,0.165,-0.250
6015,0.150,-0.220
6016,0.135,-0.195
6017,0.120,-0.170
6018,0.085,-0.145
6019,0.050,-0.105
6020,0.015,-0.070
6021,0.015,-0.035
6022,0.010,-0.005
6023,0.010,0.010
6024,-0.025,0.015
6025,-0.040,0.035
6026,-0.060,0.045
6027,-0.090,0.080
6028,-0.105,0.125
6029,-0.120,0.140
6030,-0.145,0.155
6031,-0.155,0.165
6032,-0.175,0.165
6033,-0.150,0.170
6034,-0.155,0.180
6035,-0.155,0.170
6036,-0.185,0.150
6037,-0.215,0.160
6038,-0.220,0.175
6039,-0.225,0.220
6040,-0.220,0.240
6041,-0.210,0.210
6042,-0.220,0.190
6043,-0.255,0.175
6044,-0.255,0.180
6045,-0.235,0.190
6046,-0.235,0.200
6047,-0.240,0.210
6048,-0.255,0.210
6049,-0.275,0.205
6050,-0.260,0.235
6051,-0.245,0.230
6052,-0.220,0.235
6053,-0.205,0.215
6054,-0.220,0.190
6055,-0.245,0.185
6056,-0.255,0.200
6057,-0.240,0.235
6058,-0.220,0.255
6059,-0.210,0.250
6060,-0.215,0.220
6061,-0.230,0.205
6062,-0.225,0.210
6063,-0.215,0.215
6064,-0.215,0.225
6065,-0.205,0.215
6066,-0.220,0.220
6067,-0.240,0.205
6068,-0.235,0.235
6069,-0.225,0.240
6070,-0.210,0.255
6071,-0.195,0.235
6072,-0.200,0.210
6073,-0.210,0.185
6074,-0.230,0.200
6075,-0.215,0.230
6076,-0.215,0.245
6077,-0.210,0.255
6078,-0.215,0.240
6079,-0.225,0.230
6080,-0.230,0.220
6081,-0.215,0.220
6082,-0.200,0.220
6083,-0.205,0.225
6084,-0.215,0.220
6085,-0.235,0.215
6086,-0.240,0.235
6087,-0.235,0.255
6088,-0.205,0.275
6089,-0.205,0.270
6090,-0.195,0.240
6091,-0.210,0.220
6092,-0.225,0.235
6093,-0.210,0.245
6094,-0.210,0.290
6095,-0.185,0.300
6096,-0.185,0.300
6097,-0.180,0.280
6098,-0.155,0.275
6099,-0.130,0.305
6100,-0.095,0.305
6101,-0.070,0.290
6102,-0.065,0.260
6103,-0.070,0.215
6104,-0.065,0.215
6105,-0.045,0.230
6106,-0.010,0.225
6107,0.025,0.215
6108,0.035,0.190
6109,0.045,0.160
6110,0.055,0.165
6111,0.045,0.185
6112,0.075,0.215
6113,0.085,0.220
6114,0.070,0.235
6115,0.040,0.235
6116,0.010,0.215
6117,0.010,0.210
6118,0.005,0.245
6119,-0.010,0.235
6120,-0.075,0.210
6121,-0.125,0.175
6122,-0.170,0.195
6123,-0.180,0.185
6124,-0.190,0.215
6125,-0.195,0.225
6126,-0.215,0.215
6127,-0.230,0.185
6128,-0.250,0.165
6129,-0.250,0.180
6130,-0.265,0.190
6131,-0.265,0.200
6132,-0.285,0.200
6133,-0.305,0.190
6134,-0.305,0.195
6135,-0.310,0.210
6136,-0.295,0.230
6137,-0.285,0.215
6138,-0.285,0.195
6139,-0.305,0.175
6140,-0.320,0.180
6141,-0.330,0.215
6142,-0.310,0.245
6143,-0.300,0.240
6144,-0.300,0.230
6145,-0.310,0.195
6146,-0.320,0.190
6147,-0.290,0.205
6148,-0.280,0.230
6149,-0.270,0.250
6150,-0.270,0.265
6151,-0.280,0.255
6152,-0.255,0.200
6153,-0.180,0.155
6154,-0.070,0.130
6155,0.070,0.105
6156,0.235,0.065
6157,0.450,0.085
6158,0.690,0.180
6159,0.960,0.375
6160,1.185,0.620
6161,1.325,0.810
6162,1.305,0.960
6163,1.060,1.010
6164,0.625,1.035
6165,0.130,1.005
6166,-0.265,1.005
6167,-0.540,1.025
6168,-0.640,1.060
6169,-0.635,1.125
6170,-0.590,1.200
6171,-0.570,1.285
6172,-0.575,1.375
6173,-0.595,1.395
6174,-0.645,1.410
6175,-0.700,1.415
6176,-0.740,1.475
6177,-0.740,1.570
6178,-0.730,1.640
6179,-0.700,1.685
6180,-0.690,1.695
6181,-0.705,1.660
6182,-0.725,1.615
6183,-0.725,1.520
6184,-0.720,1.390
6185,-0.710,1.230
6186,-0.665,1.030
6187,-0.650,0.875
6188,-0.610,0.715
6189,-0.570,0.565
6190,-0.495,0.440
6191,-0.420,0.340
6192,-0.370,0.250
6193,-0.330,0.180
6194,-0.270,0.140
6195,-0.225,0.135
6196,-0.180,0.125
6197,-0.180,0.105
6198,-0.160,0.065
6199,-0.160,0.020
6200,-0.155,0.025
6201,-0.125,0.015
6202,-0.120,0.010
6203,-0.110,-0.005
6204,-0.105,-0.025
6205,-0.120,-0.060
6206,-0.115,-0.055
6207,-0.095,-0.030
6208,-0.075,-0.030
6209,-0.060,-0.045
6210,-0.060,-0.090
6211,-0.070,-0.110
6212,-0.085,-0.090
6213,-0.070,-0.100
6214,-0.045,-0.085
6215,-0.055,-0.090
6216,-0.055,-0.115
6217,-0.055,-0.125
6218,-0.055,-0.140
6219,-0.020,-0.160
6220,0.000,-0.160
6221,0.005,-0.175
6222,0.010,-0.200
6223,-0.010,-0.245
6224,-0.005,-0.255
6225,0.010,-0.255
6226,0.050,-0.240
6227,0.065,-0.265
6228,0.075,-0.320
6229,0.070,-0.350
6230,0.080,-0.385
6231,0.105,-0.395
6232,0.135,-0.410
6233,0.150,-0.410
6234,0.155,-0.430
6235,0.165,-0.470
6236,0.180,-0.480
6237,0.210,-0.475
6238,0.220,-0.495
6239,0.245,-0.500
6240,0.255,-0.530
6241,0.245,-0.565
6242,0.250,-0.540
6243,0.255,-0.510
6244,0.295,-0.490
6245,0.300,-0.475
6246,0.300,-0.485
6247,0.295,-0.480
6248,0.290,-0.485
6249,0.295,-0.430
6250,0.295,-0.390
6251,0.285,-0.355
6252,0.250,-0.345
6253,0.220,-0.335
6254,0.190,-0.295
6255,0.195,-0.245
6256,0.195,-0.210
6257,0.185,-0.175
6258,0.140,-0.170
6259,0.100,-0.160
6260,0.045,-0.125
6261,0.040,-0.055
6262,0.030,-0.010
6263,0.015,0.015
6264,-0.005,0.030
6265,-0.040,0.025
6266,-0.055,0.040
6267,-0.070,0.065
6268,-0.070,0.095
6269,-0.090,0.135
6270,-0.125,0.130
6271,-0.165,0.130
6272,-0.170,0.150
6273,-0.170,0.180
6274,-0.170,0.180
6275,-0.175,0.180
6276,-0.190,0.165
6277,-0.220,0.170
6278,-0.225,0.175
6279,-0.240,0.200
6280,-0.235,0.240
6281,-0.235,0.235
6282,-0.245,0.215
6283,-0.260,0.170
6284,-0.255,0.165
6285,-0.255,0.195
6286,-0.230,0.205
6287,-0.245,0.210
6288,-0.250,0.190
6289,-0.265,0.200
6290,-0.265,0.195
6291,-0.250,0.215
6292,-0.220,0.230
6293,-0.220,0.205
6294,-0.240,0.175
6295,-0.255,0.150
6296,-0.250,0.170
6297,-0.260,0.185
6298,-0.235,0.205
6299,-0.225,0.215
6300,-0.220,0.175
6301,-0.225,0.155
6302,-0.230,0.160
6303,-0.210,0.170
6304,-0.205,0.180
6305,-0.200,0.180
6306,-0.235,0.175
6307,-0.230,0.175
6308,-0.220,0.180
6309,-0.215,0.200
6310,-0.180,0.200
6311,-0.170,0.170
6312,-0.175,0.145
6313,-0.205,0.140
6314,-0.220,0.135
6315,-0.205,0.170
6316,-0.205,0.190
6317,-0.180,0.195
6318,-0.190,0.175
6319,-0.205,0.150
6320,-0.200,0.165
6321,-0.205,0.160
6322,-0.195,0.175
6323,-0.190,0.170
6324,-0.210,0.165
6325,-0.230,0.155
6326,-0.235,0.175
6327,-0.210,0.210
6328,-0.205,0.225
6329,-0.195,0.205
6330,-0.195,0.205
6331,-0.200,0.205
6332,-0.205,0.200
6333,-0.200,0.230
6334,-0.170,0.265
6335,-0.135,0.275
6336,-0.130,0.260
6337,-0.115,0.260
6338,-0.110,0.245
6339,-0.085,0.240
6340,-0.055,0.235
6341,-0.030,0.200
6342,-0.040,0.165
6343,-0.050,0.155
6344,-0.020,0.145
6345,0.015,0.170
6346,0.070,0.175
6347,0.090,0.175
6348,0.080,0.155
6349,0.055,0.140
6350,0.050,0.145
6351,0.045,0.175
6352,0.040,0.210
6353,0.035,0.210
6354,0.000,0.205
6355,-0.040,0.170
6356,-0.070,0.175
6357,-0.105,0.185
6358,-0.120,0.180
6359,-0.140,0.155
6360,-0.180,0.140
6361,-0.220,0.145
6362,-0.230,0.150
6363,-0.235,0.165
6364,-0.230,0.195
6365,-0.230,0.190
6366,-0.260,0.150
6367,-0.260,0.120
6368,-0.270,0.115
6369,-0.265,0.135
6370,-0.270,0.160
6371,-0.280,0.165
6372,-0.300,0.155
6373,-0.325,0.150
6374,-0.325,0.165
6375,-0.315,0.165
6376,-0.295,0.165
6377,-0.290,0.160
6378,-0.290,0.150
6379,-0.310,0.125
6380,-0.320,0.150
6381,-0.325,0.180
6382,-0.310,0.215
6383,-0.295,0.200
6384,-0.280,0.175
6385,-0.285,0.150
6386,-0.295,0.160
6387,-0.260,0.180
6388,-0.230,0.235
6389,-0.220,0.220
6390,-0.205,0.150
6391,-0.160,0.090
6392,-0.085,0.050
6393,0.070,0.055
6394,0.275,0.060
6395,0.510,0.085
6396,0.745,0.140
6397,0.990,0.315
6398,1.190,0.555
6399,1.300,0.775
6400,1.240,0.950
6401,0.955,1.020
6402,0.480,1.000
6403,-0.015,0.960
6404,-0.395,0.930
6405,-0.585,0.945
6406,-0.605,1.025
6407,-0.540,1.105
6408,-0.530,1.170
6409,-0.545,1.225
6410,-0.600,1.275
6411,-0.610,1.355
6412,-0.630,1.395
6413,-0.660,1.430
6414,-0.705,1.470
6415,-0.715,1.505
6416,-0.705,1.575
6417,-0.690,1.650
6418,-0.690,1.695
6419,-0.700,1.705
6420,-0.715,1.625
6421,-0.740,1.515
6422,-0.735,1.355
6423,-0.720,1.190
6424,-0.680,1.025
6425,-0.635,0.840
6426,-0.600,0.650
6427,-0.565,0.465
6428,-0.515,0.340
6429,-0.445,0.275
6430,-0.345,0.250
6431,-0.290,0.190
6432,-0.240,0.140
6433,-0.215,0.085
6434,-0.210,0.060
6435,-0.200,0.070
6436,-0.170,0.085
6437,-0.165,0.065
6438,-0.145,0.035
6439,-0.155,-0.015
6440,-0.135,-0.025
6441,-0.120,-0.025
6442,-0.105,-0.015
6443,-0.095,-0.045
6444,-0.110,-0.070
6445,-0.130,-0.080
6446,-0.120,-0.080
6447,-0.110,-0.070
6448,-0.070,-0.050
6449,-0.060,-0.085
6450,-0.065,-0.135
6451,-0.075,-0.165
6452,-0.080,-0.155
6453,-0.075,-0.150
6454,-0.060,-0.125
6455,-0.045,-0.145
6456,-0.050,-0.180
6457,-0.045,-0.210
6458,-0.030,-0.235
6459,-0.005,-0.225
6460,0.015,-0.230
6461,0.020,-0.265
6462,0.015,-0.290
6463,0.000,-0.310
6464,0.000,-0.305
6465,0.015,-0.305
6466,0.045,-0.325
6467,0.065,-0.360
6468,0.070,-0.410
6469,0.060,-0.450
6470,0.065,-0.470
6471,0.090,-0.460
6472,0.115,-0.455
6473,0.130,-0.465
6474,0.130,-0.485
6475,0.155,-0.525
6476,0.160,-0.525
6477,0.180,-0.530
6478,0.210,-0.505
6479,0.220,-0.525
6480,0.210,-0.535
6481,0.200,-0.540
6482,0.200,-0.530
6483,0.215,-0.495
6484,0.230,-0.440
6485,0.240,-0.445
6486,0.235,-0.435
6487,0.215,-0.435
6488,0.185,-0.395
6489,0.180,-0.335
6490,0.165,-0.295
6491,0.145,-0.265
6492,0.115,-0.245
6493,0.080,-0.235
6494,0.065,-0.190
6495,0.035,-0.160
6496,0.035,-0.110
6497,0.010,-0.095
6498,-0.045,-0.065
6499,-0.075,-0.045
6500,-0.100,-0.005
6501,-0.100,0.045
6502,-0.100,0.070
6503,-0.115,0.070
6504,-0.140,0.070
6505,-0.190,0.070
6506,-0.205,0.080
6507,-0.220,0.125
6508,-0.220,0.175
6509,-0.240,0.155
6510,-0.255,0.155
6511,-0.275,0.150
6512,-0.280,0.160
6513,-0.280,0.160
6514,-0.275,0.170
6515,-0.290,0.165
6516,-0.320,0.160
6517,-0.340,0.155
6518,-0.340,0.180
6519,-0.335,0.180
6520,-0.310,0.190
6521,-0.315,0.165
6522,-0.320,0.150
6523,-0.345,0.145
6524,-0.355,0.170
6525,-0.345,0.190
6526,-0.320,0.205
6527,-0.325,0.190
6528,-0.315,0.185
6529,-0.330,0.160
6530,-0.335,0.155
6531,-0.320,0.160
6532,-0.310,0.160
6533,-0.320,0.155
6534,-0.330,0.160
6535,-0.340,0.160
6536,-0.335,0.170
6537,-0.310,0.190
6538,-0.300,0.180
6539,-0.325,0.170
6540,-0.320,0.140
6541,-0.320,0.130
6542,-0.320,0.140
6543,-0.330,0.170
6544,-0.305,0.180
6545,-0.310,0.180
6546,-0.315,0.150
6547,-0.320,0.145
6548,-0.320,0.145
6549,-0.305,0.155
6550,-0.305,0.135
6551,-0.315,0.140
6552,-0.335,0.160
6553,-0.335,0.150
6554,-0.330,0.160
6555,-0.335,0.165
6556,-0.305,0.165
6557,-0.310,0.145
6558,-0.330,0.135
6559,-0.335,0.125
6560,-0.350,0.140
6561,-0.355,0.160
6562,-0.360,0.185
6563,-0.355,0.175
6564,-0.365,0.180
6565,-0.345,0.175
6566,-0.345,0.180
6567,-0.325,0.200
6568,-0.315,0.215
6569,-0.300,0.215
6570,-0.285,0.215
6571,-0.295,0.235
6572,-0.265,0.225
6573,-0.235,0.225
6574,-0.210,0.220
6575,-0.185,0.170
6576,-0.195,0.160
6577,-0.190,0.145
6578,-0.185,0.145
6579,-0.145,0.130
6580,-0.105,0.155
6581,-0.085,0.145
6582,-0.075,0.145
6583,-0.090,0.110
6584,-0.100,0.115
6585,-0.090,0.135
6586,-0.090,0.160
6587,-0.110,0.165
6588,-0.145,0.155
6589,-0.195,0.140
6590,-0.240,0.135
6591,-0.265,0.145
6592,-0.290,0.145
6593,-0.310,0.140
6594,-0.335,0.120
6595,-0.375,0.090
6596,-0.405,0.115
6597,-0.425,0.140
6598,-0.400,0.155
6599,-0.390,0.145
6600,-0.400,0.125
6601,-0.425,0.105
6602,-0.470,0.095
6603,-0.465,0.115
6604,-0.455,0.140
6605,-0.465,0.150
6606,-0.470,0.130
6607,-0.475,0.120
6608,-0.480,0.120
6609,-0.455,0.135
6610,-0.450,0.145
6611,-0.425,0.125
6612,-0.455,0.115
6613,-0.475,0.105
6614,-0.485,0.120
6615,-0.470,0.160
6616,-0.455,0.175
6617,-0.445,0.160
6618,-0.445,0.130
6619,-0.445,0.130
6620,-0.435,0.160
6621,-0.405,0.140
6622,-0.365,0.110
6623,-0.300,0.035
6624,-0.215,-0.010
6625,-0.075,0.010
6626,0.145,0.030
6627,0.440,0.110
6628,0.725,0.265
6629,0.965,0.455
6630,1.105,0.615
6631,1.055,0.785
6632,0.775,0.900
6633,0.285,0.925
6634,-0.245,0.880
6635,-0.650,0.825
6636,-0.790,0.820
6637,-0.770,0.905
6638,-0.710,1.020
6639,-0.695,1.110
6640,-0.730,1.185
6641,-0.775,1.230
6642,-0.825,1.255
6643,-0.845,1.295
6644,-0.895,1.305
6645,-0.885,1.385
6646,-0.860,1.455
6647,-0.855,1.530
6648,-0.880,1.565
6649,-0.905,1.560
6650,-0.915,1.495
6651,-0.930,1.385
6652,-0.925,1.255
6653,-0.885,1.065
6654,-0.840,0.880
6655,-0.795,0.690
6656,-0.780,0.530
6657,-0.715,0.410
6658,-0.665,0.300
6659,-0.590,0.230
6660,-0.525,0.165
6661,-0.475,0.115
6662,-0.430,0.085
6663,-0.405,0.060
6664,-0.385,0.065
6665,-0.380,0.035
6666,-0.375,0.035
6667,-0.385,-0.005
6668,-0.365,-0.010
6669,-0.335,-0.030
6670,-0.330,-0.030
6671,-0.310,-0.040
6672,-0.315,-0.085
6673,-0.320,-0.095
6674,-0.335,-0.090
6675,-0.330,-0.070
6676,-0.330,-0.050
6677,-0.300,-0.080
6678,-0.305,-0.125
6679,-0.305,-0.140
6680,-0.300,-0.155
6681,-0.290,-0.150
6682,-0.280,-0.145
6683,-0.260,-0.145
6684,-0.255,-0.175
6685,-0.265,-0.195
6686,-0.255,-0.215
6687,-0.250,-0.240
6688,-0.225,-0.225
6689,-0.200,-0.260
6690,-0.205,-0.280
6691,-0.225,-0.310
6692,-0.230,-0.320
6693,-0.220,-0.335
6694,-0.175,-0.320
6695,-0.155,-0.365
6696,-0.160,-0.425
6697,-0.145,-0.460
6698,-0.165,-0.475
6699,-0.135,-0.465
6700,-0.120,-0.455
6701,-0.120,-0.465
6702,-0.120,-0.495
6703,-0.125,-0.520
6704,-0.115,-0.525
6705,-0.075,-0.525
6706,-0.065,-0.510
6707,-0.030,-0.520
