'sample interval','MLII','V1'
'0.00277778 sec','mV','mV'
0,-0.995,-0.470
1,-0.995,-0.470
2,-0.995,-0.470
3,-0.995,-0.470
4,-0.995,-0.470
5,-0.995,-0.470
6,-0.995,-0.470
7,-1.015,-0.470
8,-0.985,-0.455
9,-0.985,-0.450
10,-0.970,-0.445
11,-0.975,-0.410
12,-0.970,-0.425
13,-0.990,-0.415
14,-1.000,-0.420
15,-1.020,-0.425
16,-1.025,-0.445
17,-1.030,-0.450
18,-1.045,-0.455
19,-1.025,-0.445
20,-1.035,-0.425
21,-1.015,-0.405
22,-1.015,-0.400
23,-0.995,-0.385
24,-0.990,-0.380
25,-0.990,-0.385
26,-0.995,-0.385
27,-1.005,-0.405
28,-1.005,-0.400
29,-1.015,-0.415
30,-1.010,-0.410
31,-0.990,-0.405
32,-1.020,-0.400
33,-1.010,-0.380
34,-1.015,-0.390
35,-1.000,-0.370
36,-0.990,-0.375
37,-0.995,-0.385
38,-1.010,-0.395
39,-1.005,-0.415
40,-1.015,-0.420
41,-0.995,-0.410
42,-1.005,-0.415
43,-1.005,-0.420
44,-0.985,-0.410
45,-0.985,-0.370
46,-0.980,-0.365
47,-0.960,-0.350
48,-0.940,-0.370
49,-0.960,-0.370
50,-0.940,-0.385
51,-0.945,-0.380
52,-0.945,-0.390
53,-0.940,-0.385
54,-0.950,-0.405
55,-0.935,-0.380
56,-0.915,-0.385
57,-0.905,-0.370
58,-0.890,-0.370
59,-0.875,-0.360
60,-0.860,-0.380
61,-0.865,-0.385
62,-0.860,-0.385
63,-0.845,-0.380
64,-0.850,-0.410
65,-0.850,-0.385
66,-0.840,-0.375
67,-0.820,-0.390
68,-0.805,-0.365
69,-0.775,-0.350
70,-0.755,-0.350
71,-0.725,-0.325
72,-0.705,-0.335
73,-0.685,-0.330
74,-0.670,-0.355
75,-0.670,-0.365
76,-0.660,-0.365
77,-0.650,-0.365
78,-0.630,-0.375
79,-0.605,-0.385
80,-0.600,-0.380
81,-0.560,-0.365
82,-0.530,-0.350
83,-0.520,-0.355
84,-0.495,-0.360
85,-0.475,-0.360
86,-0.470,-0.370
87,-0.450,-0.400
88,-0.450,-0.405
89,-0.445,-0.400
90,-0.435,-0.410
91,-0.425,-0.400
92,-0.415,-0.400
93,-0.385,-0.380
94,-0.370,-0.380
95,-0.365,-0.365
96,-0.365,-0.360
97,-0.350,-0.385
98,-0.370,-0.395
99,-0.395,-0.405
100,-0.420,-0.415
101,-0.445,-0.410
102,-0.470,-0.410
103,-0.490,-0.405
104,-0.525,-0.380
105,-0.550,-0.380
106,-0.555,-0.375
107,-0.590,-0.385
108,-0.615,-0.370
109,-0.650,-0.360
110,-0.685,-0.370
111,-0.740,-0.365
112,-0.765,-0.400
113,-0.800,-0.400
114,-0.830,-0.400
115,-0.845,-0.390
116,-0.850,-0.370
117,-0.865,-0.375
118,-0.875,-0.365
119,-0.870,-0.370
120,-0.865,-0.385
121,-0.870,-0.385
122,-0.890,-0.385
123,-0.905,-0.395
124,-0.925,-0.405
125,-0.930,-0.430
126,-0.945,-0.425
127,-0.950,-0.430
128,-0.935,-0.415
129,-0.930,-0.405
130,-0.930,-0.405
131,-0.925,-0.395
132,-0.930,-0.395
133,-0.935,-0.395
134,-0.940,-0.405
135,-0.930,-0.415
136,-0.950,-0.420
137,-0.935,-0.435
138,-0.950,-0.425
139,-0.955,-0.410
140,-0.960,-0.415
141,-0.945,-0.410
142,-0.920,-0.380
143,-0.915,-0.375
144,-0.905,-0.395
145,-0.920,-0.390
146,-0.915,-0.400
147,-0.930,-0.405
148,-0.935,-0.415
149,-0.945,-0.415
150,-0.920,-0.430
151,-0.915,-0.430
152,-0.905,-0.415
153,-0.900,-0.420
154,-0.905,-0.405
155,-0.880,-0.390
156,-0.875,-0.405
157,-0.870,-0.390
158,-0.870,-0.395
159,-0.880,-0.405
160,-0.880,-0.420
161,-0.905,-0.420
162,-0.900,-0.430
163,-0.910,-0.435
164,-0.900,-0.425
165,-0.885,-0.410
166,-0.865,-0.415
167,-0.850,-0.400
168,-0.850,-0.415
169,-0.845,-0.420
170,-0.855,-0.425
171,-0.865,-0.425
172,-0.875,-0.425
173,-0.890,-0.440
174,-0.895,-0.445
175,-0.895,-0.450
176,-0.890,-0.430
177,-0.885,-0.435
178,-0.875,-0.410
179,-0.875,-0.405
180,-0.860,-0.400
181,-0.870,-0.405
182,-0.880,-0.410
183,-0.890,-0.420
184,-0.900,-0.435
185,-0.915,-0.425
186,-0.930,-0.430
187,-0.930,-0.430
188,-0.905,-0.425
189,-0.920,-0.430
190,-0.880,-0.415
191,-0.890,-0.410
192,-0.885,-0.405
193,-0.905,-0.420
194,-0.885,-0.425
195,-0.910,-0.445
196,-0.900,-0.450
197,-0.920,-0.455
198,-0.925,-0.450
199,-0.920,-0.430
200,-0.925,-0.425
201,-0.920,-0.425
202,-0.920,-0.390
203,-0.905,-0.390
204,-0.900,-0.400
205,-0.915,-0.410
206,-0.920,-0.410
207,-0.935,-0.430
208,-0.945,-0.445
209,-0.940,-0.440
210,-0.965,-0.450
211,-0.950,-0.445
212,-0.960,-0.445
213,-0.940,-0.425
214,-0.940,-0.425
215,-0.925,-0.420
216,-0.910,-0.425
217,-0.915,-0.410
218,-0.920,-0.425
219,-0.915,-0.440
220,-0.920,-0.445
221,-0.930,-0.450
222,-0.940,-0.460
223,-0.940,-0.450
224,-0.935,-0.430
225,-0.915,-0.415
226,-0.915,-0.420
227,-0.905,-0.395
228,-0.895,-0.415
229,-0.905,-0.410
230,-0.900,-0.425
231,-0.910,-0.435
232,-0.910,-0.425
233,-0.910,-0.445
234,-0.925,-0.445
235,-0.910,-0.425
236,-0.890,-0.415
237,-0.865,-0.400
238,-0.845,-0.395
239,-0.820,-0.365
240,-0.800,-0.370
241,-0.790,-0.365
242,-0.770,-0.370
243,-0.770,-0.370
244,-0.755,-0.370
245,-0.745,-0.340
246,-0.720,-0.355
247,-0.675,-0.340
248,-0.640,-0.345
249,-0.605,-0.325
250,-0.580,-0.350
251,-0.550,-0.345
252,-0.560,-0.390
253,-0.575,-0.410
254,-0.610,-0.450
255,-0.605,-0.465
256,-0.625,-0.470
257,-0.655,-0.465
258,-0.665,-0.480
259,-0.705,-0.480
260,-0.745,-0.480
261,-0.780,-0.480
262,-0.850,-0.455
263,-0.875,-0.455
264,-0.910,-0.455
265,-0.910,-0.440
266,-0.925,-0.455
267,-0.935,-0.470
268,-0.950,-0.465
269,-0.945,-0.475
270,-0.950,-0.490
271,-0.955,-0.480
272,-0.960,-0.480
273,-0.960,-0.475
274,-0.945,-0.465
275,-0.935,-0.450
276,-0.940,-0.475
277,-0.945,-0.460
278,-0.950,-0.470
279,-0.955,-0.495
280,-0.965,-0.480
281,-0.980,-0.490
282,-0.970,-0.505
283,-0.975,-0.500
284,-0.975,-0.505
285,-0.950,-0.490
286,-0.955,-0.485
287,-0.945,-0.465
288,-0.930,-0.450
289,-0.945,-0.460
290,-0.970,-0.470
291,-0.955,-0.460
292,-0.950,-0.475
293,-0.955,-0.485
294,-0.965,-0.475
295,-0.975,-0.470
296,-0.990,-0.455
297,-1.005,-0.425
298,-1.000,-0.400
299,-0.970,-0.335
300,-0.890,-0.275
301,-0.755,-0.245
302,-0.570,-0.225
303,-0.335,-0.260
304,-0.040,-0.355
305,0.320,-0.500
306,0.665,-0.675
307,0.945,-0.905
308,1.115,-1.125
309,1.205,-1.335
310,1.175,-1.475
311,1.040,-1.530
312,0.820,-1.545
313,0.450,-1.505
314,-0.030,-1.445
315,-0.535,-1.385
316,-0.905,-1.290
317,-1.085,-1.195
318,-1.070,-1.090
319,-0.965,-0.990
320,-0.830,-0.890
321,-0.735,-0.790
322,-0.690,-0.720
323,-0.710,-0.650
324,-0.755,-0.595
325,-0.825,-0.560
326,-0.880,-0.510
327,-0.920,-0.495
328,-0.955,-0.495
329,-0.955,-0.490
330,-0.965,-0.485
331,-0.955,-0.470
332,-0.940,-0.455
333,-0.935,-0.445
334,-0.945,-0.420
335,-0.930,-0.405
336,-0.960,-0.400
337,-0.945,-0.395
338,-0.965,-0.400
339,-0.970,-0.400
340,-0.970,-0.410
341,-0.980,-0.410
342,-0.980,-0.425
343,-0.985,-0.405
344,-0.980,-0.405
345,-0.980,-0.405
346,-0.970,-0.385
347,-0.965,-0.385
348,-0.975,-0.390
349,-0.970,-0.385
350,-0.980,-0.390
351,-0.975,-0.395
352,-0.985,-0.405
353,-1.000,-0.400
354,-1.015,-0.410
355,-0.990,-0.410
356,-0.970,-0.390
357,-0.970,-0.380
358,-0.960,-0.370
359,-0.960,-0.350
360,-0.940,-0.355
361,-0.950,-0.350
362,-0.950,-0.355
363,-0.975,-0.365
364,-0.970,-0.380
365,-0.965,-0.380
366,-0.950,-0.400
367,-0.960,-0.390
368,-0.955,-0.390
369,-0.930,-0.385
370,-0.935,-0.360
371,-0.915,-0.355
372,-0.905,-0.365
373,-0.905,-0.375
374,-0.900,-0.385
375,-0.910,-0.395
376,-0.910,-0.395
377,-0.920,-0.410
378,-0.900,-0.395
379,-0.895,-0.405
380,-0.885,-0.375
381,-0.885,-0.360
382,-0.865,-0.360
383,-0.835,-0.335
384,-0.825,-0.335
385,-0.820,-0.345
386,-0.810,-0.360
387,-0.815,-0.355
388,-0.805,-0.355
389,-0.810,-0.360
390,-0.800,-0.350
391,-0.780,-0.345
392,-0.775,-0.320
393,-0.745,-0.345
394,-0.725,-0.325
395,-0.685,-0.320
396,-0.665,-0.315
397,-0.650,-0.325
398,-0.650,-0.330
399,-0.650,-0.335
400,-0.650,-0.325
401,-0.610,-0.335
402,-0.590,-0.355
403,-0.555,-0.340
404,-0.535,-0.320
405,-0.500,-0.325
406,-0.485,-0.315
407,-0.455,-0.310
408,-0.430,-0.320
409,-0.405,-0.305
410,-0.405,-0.340
411,-0.395,-0.345
412,-0.395,-0.355
413,-0.385,-0.365
414,-0.375,-0.365
415,-0.370,-0.380
416,-0.360,-0.370
417,-0.340,-0.360
418,-0.335,-0.360
419,-0.305,-0.345
420,-0.310,-0.365
421,-0.345,-0.370
422,-0.365,-0.365
423,-0.380,-0.370
424,-0.405,-0.375
425,-0.425,-0.380
426,-0.455,-0.375
427,-0.485,-0.360
428,-0.515,-0.365
429,-0.535,-0.350
430,-0.545,-0.330
431,-0.580,-0.340
432,-0.585,-0.325
433,-0.625,-0.325
434,-0.645,-0.350
435,-0.685,-0.355
436,-0.720,-0.375
437,-0.735,-0.380
438,-0.765,-0.385
439,-0.785,-0.375
440,-0.800,-0.380
441,-0.805,-0.370
442,-0.805,-0.370
443,-0.805,-0.375
444,-0.830,-0.380
445,-0.825,-0.375
446,-0.840,-0.385
447,-0.870,-0.400
448,-0.875,-0.395
449,-0.890,-0.390
450,-0.895,-0.415
451,-0.890,-0.395
452,-0.910,-0.395
453,-0.900,-0.390
454,-0.900,-0.395
455,-0.905,-0.385
456,-0.890,-0.375
457,-0.910,-0.385
458,-0.900,-0.385
459,-0.910,-0.405
460,-0.915,-0.415
461,-0.915,-0.405
462,-0.930,-0.415
463,-0.925,-0.430
464,-0.910,-0.405
465,-0.895,-0.400
466,-0.890,-0.395
467,-0.870,-0.375
468,-0.865,-0.380
469,-0.870,-0.390
470,-0.875,-0.400
471,-0.885,-0.395
472,-0.890,-0.410
473,-0.890,-0.405
474,-0.870,-0.415
475,-0.855,-0.395
476,-0.865,-0.380
477,-0.850,-0.370
478,-0.855,-0.350
479,-0.855,-0.350
480,-0.850,-0.345
481,-0.855,-0.335
482,-0.850,-0.325
483,-0.860,-0.315
484,-0.850,-0.295
485,-0.830,-0.280
486,-0.770,-0.230
487,-0.685,-0.195
488,-0.550,-0.175
489,-0.410,-0.200
490,-0.245,-0.275
491,-0.100,-0.410
492,0.075,-0.560
493,0.235,-0.710
494,0.445,-0.880
495,0.630,-1.045
496,0.835,-1.220
497,1.060,-1.445
498,1.260,-1.670
499,1.440,-1.870
500,1.610,-2.065
501,1.735,-2.190
502,1.825,-2.245
503,1.885,-2.285
504,1.910,-2.295
505,1.905,-2.310
506,1.875,-2.305
507,1.825,-2.305
508,1.760,-2.305
509,1.675,-2.285
510,1.575,-2.225
511,1.530,-2.150
512,1.510,-2.035
513,1.550,-1.940
514,1.560,-1.845
515,1.540,-1.745
516,1.535,-1.665
517,1.445,-1.575
518,1.335,-1.475
519,1.200,-1.410
520,1.065,-1.345
521,0.890,-1.285
522,0.710,-1.200
523,0.480,-1.125
524,0.180,-1.030
525,-0.175,-0.935
526,-0.520,-0.860
527,-0.810,-0.755
528,-0.975,-0.630
529,-1.045,-0.530
530,-1.065,-0.440
531,-1.050,-0.375
532,-1.050,-0.350
533,-1.065,-0.360
534,-1.110,-0.350
535,-1.155,-0.345
536,-1.220,-0.310
537,-1.245,-0.290
538,-1.270,-0.245
539,-1.270,-0.225
540,-1.280,-0.185
541,-1.300,-0.175
542,-1.320,-0.190
543,-1.330,-0.170
544,-1.365,-0.190
545,-1.370,-0.185
546,-1.390,-0.175
547,-1.415,-0.175
548,-1.405,-0.155
549,-1.425,-0.145
550,-1.425,-0.110
551,-1.445,-0.095
552,-1.435,-0.100
553,-1.445,-0.100
554,-1.480,-0.085
555,-1.490,-0.100
556,-1.505,-0.095
557,-1.540,-0.085
558,-1.535,-0.080
559,-1.555,-0.065
560,-1.545,-0.055
561,-1.565,-0.020
562,-1.565,-0.010
563,-1.570,0.030
564,-1.570,0.040
565,-1.575,0.065
566,-1.585,0.070
567,-1.585,0.085
568,-1.590,0.095
569,-1.600,0.095
570,-1.615,0.105
571,-1.620,0.150
572,-1.630,0.175
573,-1.630,0.205
574,-1.645,0.220
575,-1.615,0.255
576,-1.610,0.290
577,-1.620,0.295
578,-1.615,0.310
579,-1.610,0.295
580,-1.605,0.300
581,-1.630,0.295
582,-1.640,0.285
583,-1.675,0.300
584,-1.700,0.305
585,-1.725,0.310
586,-1.745,0.330
587,-1.755,0.355
588,-1.780,0.390
589,-1.815,0.425
590,-1.885,0.445
591,-1.920,0.425
592,-1.985,0.450
593,-2.055,0.445
594,-2.120,0.465
595,-2.180,0.500
596,-2.225,0.515
597,-2.250,0.530
598,-2.270,0.575
599,-2.295,0.565
600,-2.300,0.580
601,-2.305,0.555
602,-2.310,0.530
603,-2.315,0.515
604,-2.305,0.500
605,-2.295,0.485
606,-2.285,0.475
607,-2.285,0.455
608,-2.250,0.445
609,-2.220,0.435
610,-2.180,0.405
611,-2.145,0.400
612,-2.125,0.350
613,-2.095,0.325
614,-2.050,0.285
615,-2.015,0.240
616,-1.995,0.205
617,-1.940,0.155
618,-1.880,0.115
619,-1.825,0.070
620,-1.770,0.050
621,-1.700,0.030
622,-1.630,-0.010
623,-1.575,-0.030
624,-1.515,-0.075
625,-1.485,-0.105
626,-1.450,-0.140
627,-1.420,-0.170
628,-1.400,-0.220
629,-1.370,-0.230
630,-1.330,-0.260
631,-1.310,-0.275
632,-1.285,-0.295
633,-1.255,-0.280
634,-1.230,-0.295
635,-1.230,-0.290
636,-1.195,-0.300
637,-1.195,-0.305
638,-1.195,-0.315
639,-1.210,-0.320
640,-1.220,-0.350
641,-1.235,-0.355
642,-1.230,-0.370
643,-1.220,-0.360
644,-1.225,-0.355
645,-1.215,-0.345
646,-1.210,-0.345
647,-1.175,-0.320
648,-1.180,-0.320
649,-1.185,-0.330
650,-1.210,-0.315
651,-1.190,-0.335
652,-1.200,-0.340
653,-1.205,-0.345
654,-1.210,-0.345
655,-1.210,-0.355
656,-1.210,-0.340
657,-1.205,-0.340
658,-1.185,-0.325
659,-1.195,-0.315
660,-1.160,-0.310
661,-1.175,-0.315
662,-1.165,-0.320
663,-1.170,-0.325
664,-1.170,-0.330
665,-1.175,-0.355
666,-1.175,-0.360
667,-1.165,-0.355
668,-1.175,-0.345
669,-1.155,-0.335
670,-1.145,-0.335
671,-1.160,-0.320
672,-1.150,-0.305
673,-1.140,-0.315
674,-1.155,-0.330
675,-1.155,-0.335
676,-1.150,-0.325
677,-1.140,-0.355
678,-1.145,-0.335
679,-1.155,-0.355
680,-1.160,-0.340
681,-1.135,-0.325
682,-1.135,-0.325
683,-1.120,-0.315
684,-1.125,-0.320
685,-1.130,-0.330
686,-1.125,-0.325
687,-1.130,-0.360
688,-1.135,-0.365
689,-1.145,-0.365
690,-1.150,-0.360
691,-1.145,-0.375
692,-1.135,-0.370
693,-1.125,-0.350
694,-1.120,-0.345
695,-1.100,-0.330
696,-1.095,-0.335
697,-1.100,-0.340
698,-1.100,-0.350
699,-1.110,-0.360
700,-1.120,-0.355
701,-1.135,-0.385
702,-1.135,-0.385
703,-1.135,-0.395
704,-1.125,-0.385
705,-1.125,-0.375
706,-1.095,-0.375
707,-1.110,-0.355
708,-1.095,-0.365
709,-1.120,-0.380
710,-1.140,-0.385
711,-1.115,-0.390
712,-1.130,-0.390
713,-1.100,-0.400
714,-1.120,-0.405
715,-1.130,-0.405
716,-1.130,-0.390
717,-1.120,-0.385
718,-1.110,-0.380
719,-1.100,-0.375
720,-1.090,-0.380
721,-1.100,-0.370
722,-1.095,-0.380
723,-1.095,-0.395
724,-1.100,-0.395
725,-1.125,-0.420
726,-1.120,-0.405
727,-1.130,-0.415
728,-1.115,-0.410
729,-1.105,-0.400
730,-1.100,-0.400
731,-1.085,-0.390
732,-1.075,-0.390
733,-1.085,-0.420
734,-1.090,-0.400
735,-1.085,-0.415
736,-1.090,-0.435
737,-1.100,-0.425
738,-1.090,-0.425
739,-1.095,-0.425
740,-1.100,-0.400
741,-1.080,-0.405
742,-1.080,-0.400
743,-1.085,-0.400
744,-1.070,-0.390
745,-1.080,-0.390
746,-1.085,-0.415
747,-1.075,-0.420
748,-1.070,-0.405
749,-1.080,-0.425
750,-1.090,-0.430
751,-1.085,-0.435
752,-1.080,-0.425
753,-1.075,-0.425
754,-1.070,-0.410
755,-1.065,-0.405
756,-1.055,-0.415
757,-1.050,-0.405
758,-1.050,-0.415
759,-1.060,-0.420
760,-1.065,-0.420
761,-1.075,-0.430
762,-1.085,-0.430
763,-1.085,-0.430
764,-1.075,-0.430
765,-1.080,-0.410
766,-1.075,-0.400
767,-1.075,-0.390
768,-1.060,-0.390
769,-1.060,-0.400
770,-1.050,-0.400
771,-1.055,-0.415
772,-1.060,-0.420
773,-1.070,-0.435
774,-1.075,-0.440
775,-1.065,-0.450
776,-1.070,-0.435
777,-1.070,-0.440
778,-1.055,-0.420
779,-1.050,-0.410
780,-1.050,-0.430
781,-1.045,-0.410
782,-1.055,-0.410
783,-1.055,-0.425
784,-1.060,-0.430
785,-1.060,-0.425
786,-1.065,-0.450
787,-1.070,-0.430
788,-1.070,-0.445
789,-1.075,-0.420
790,-1.065,-0.420
791,-1.050,-0.410
792,-1.040,-0.420
793,-1.040,-0.420
794,-1.045,-0.430
795,-1.050,-0.445
796,-1.055,-0.450
797,-1.070,-0.475
798,-1.060,-0.460
799,-1.080,-0.465
800,-1.080,-0.470
801,-1.070,-0.465
802,-1.065,-0.430
803,-1.055,-0.425
804,-1.035,-0.425
805,-1.040,-0.420
806,-1.045,-0.430
807,-1.035,-0.425
808,-1.050,-0.455
809,-1.055,-0.470
810,-1.060,-0.475
811,-1.055,-0.470
812,-1.065,-0.465
813,-1.050,-0.455
814,-1.065,-0.450
815,-1.055,-0.460
816,-1.035,-0.435
817,-1.045,-0.440
818,-1.045,-0.440
819,-1.035,-0.460
820,-1.040,-0.460
821,-1.040,-0.485
822,-1.045,-0.495
823,-1.045,-0.490
824,-1.040,-0.465
825,-1.045,-0.450
826,-1.025,-0.430
827,-1.010,-0.425
828,-1.005,-0.415
829,-1.020,-0.430
830,-1.015,-0.410
831,-1.025,-0.440
832,-1.030,-0.455
833,-1.050,-0.470
834,-1.055,-0.465
835,-1.065,-0.455
836,-1.045,-0.445
837,-1.020,-0.450
838,-1.035,-0.435
839,-1.025,-0.420
840,-1.015,-0.430
841,-1.030,-0.450
842,-1.005,-0.430
843,-1.020,-0.450
844,-1.025,-0.450
845,-1.030,-0.475
846,-1.030,-0.470
847,-1.040,-0.465
848,-1.035,-0.435
849,-1.035,-0.445
850,-1.015,-0.435
851,-1.030,-0.405
852,-1.000,-0.415
853,-0.995,-0.420
854,-0.995,-0.420
855,-1.005,-0.445
856,-1.010,-0.445
857,-1.035,-0.455
858,-1.040,-0.450
859,-1.045,-0.470
860,-1.035,-0.450
861,-1.030,-0.455
862,-1.010,-0.445
863,-1.015,-0.425
864,-1.000,-0.425
865,-1.000,-0.440
866,-1.005,-0.435
867,-1.010,-0.445
868,-1.020,-0.450
869,-1.020,-0.455
870,-1.035,-0.470
871,-1.050,-0.465
872,-1.045,-0.450
873,-1.050,-0.440
874,-1.045,-0.430
875,-1.030,-0.430
876,-1.010,-0.410
877,-1.000,-0.415
878,-1.010,-0.425
879,-1.010,-0.440
880,-1.015,-0.455
881,-1.025,-0.460
882,-1.045,-0.470
883,-1.045,-0.460
884,-1.040,-0.460
885,-1.020,-0.450
886,-1.015,-0.440
887,-1.015,-0.440
888,-1.010,-0.450
889,-1.010,-0.430
890,-1.000,-0.445
891,-0.995,-0.450
892,-1.010,-0.450
893,-1.015,-0.450
894,-1.020,-0.460
895,-1.025,-0.445
896,-1.020,-0.455
897,-1.015,-0.430
898,-1.010,-0.440
899,-0.985,-0.420
900,-0.980,-0.425
901,-0.985,-0.415
902,-0.990,-0.425
903,-0.995,-0.450
904,-1.015,-0.440
905,-1.015,-0.450
906,-1.020,-0.470
907,-1.010,-0.465
908,-1.015,-0.445
909,-0.990,-0.460
910,-0.985,-0.440
911,-0.970,-0.440
912,-0.950,-0.435
913,-0.930,-0.425
914,-0.930,-0.415
915,-0.915,-0.420
916,-0.905,-0.420
917,-0.895,-0.400
918,-0.875,-0.395
919,-0.860,-0.390
920,-0.865,-0.365
921,-0.830,-0.350
922,-0.805,-0.355
923,-0.780,-0.330
924,-0.740,-0.330
925,-0.700,-0.340
926,-0.665,-0.345
927,-0.630,-0.375
928,-0.625,-0.410
929,-0.655,-0.430
930,-0.675,-0.465
931,-0.705,-0.490
932,-0.700,-0.465
933,-0.685,-0.485
934,-0.690,-0.485
935,-0.705,-0.460
936,-0.720,-0.460
937,-0.770,-0.470
938,-0.820,-0.460
939,-0.885,-0.460
940,-0.955,-0.480
941,-0.995,-0.480
942,-1.020,-0.485
943,-1.015,-0.495
944,-1.020,-0.490
945,-1.020,-0.485
946,-1.015,-0.485
947,-0.985,-0.485
948,-0.980,-0.490
949,-1.000,-0.475
950,-0.995,-0.480
951,-1.020,-0.495
952,-1.035,-0.495
953,-1.030,-0.525
954,-1.035,-0.530
955,-1.030,-0.525
956,-1.030,-0.520
957,-1.035,-0.505
958,-1.010,-0.500
959,-1.000,-0.480
960,-0.990,-0.465
961,-0.995,-0.465
962,-0.995,-0.480
963,-1.015,-0.495
964,-1.025,-0.500
965,-1.060,-0.505
966,-1.090,-0.485
967,-1.080,-0.460
968,-1.045,-0.420
969,-0.965,-0.350
970,-0.800,-0.290
971,-0.575,-0.270
972,-0.270,-0.300
973,0.085,-0.375
974,0.455,-0.525
975,0.780,-0.725
976,1.030,-0.970
977,1.145,-1.200
978,1.140,-1.380
979,0.990,-1.460
980,0.685,-1.485
981,0.240,-1.430
982,-0.300,-1.375
983,-0.755,-1.265
984,-1.040,-1.170
985,-1.115,-1.070
986,-1.035,-0.975
987,-0.920,-0.900
988,-0.815,-0.810
989,-0.770,-0.765
990,-0.790,-0.710
991,-0.870,-0.635
992,-0.915,-0.590
993,-0.980,-0.535
994,-1.000,-0.515
995,-1.005,-0.490
996,-1.005,-0.485
997,-1.005,-0.480
998,-1.015,-0.465
999,-1.020,-0.485
1000,-1.040,-0.490
1001,-1.030,-0.475
1002,-1.040,-0.455
1003,-1.060,-0.445
1004,-1.045,-0.425
1005,-1.055,-0.410
1006,-1.045,-0.415
1007,-1.050,-0.400
1008,-1.045,-0.410
1009,-1.030,-0.415
1010,-1.025,-0.425
1011,-1.045,-0.430
1012,-1.055,-0.445
1013,-1.065,-0.435
1014,-1.070,-0.445
1015,-1.060,-0.440
1016,-1.055,-0.420
1017,-1.055,-0.420
1018,-1.050,-0.415
1019,-1.045,-0.410
1020,-1.025,-0.420
1021,-1.045,-0.410
1022,-1.065,-0.430
1023,-1.065,-0.425
1024,-1.060,-0.435
1025,-1.070,-0.435
1026,-1.080,-0.410
1027,-1.070,-0.425
1028,-1.060,-0.410
1029,-1.060,-0.405
1030,-1.055,-0.400
1031,-1.035,-0.395
1032,-1.025,-0.395
1033,-1.030,-0.385
1034,-1.025,-0.415
1035,-1.040,-0.425
1036,-1.035,-0.425
1037,-1.045,-0.425
1038,-1.040,-0.420
1039,-1.025,-0.430
1040,-1.025,-0.420
1041,-1.005,-0.410
1042,-1.010,-0.410
1043,-0.995,-0.390
1044,-0.990,-0.395
1045,-0.985,-0.385
1046,-0.975,-0.405
1047,-0.985,-0.405
1048,-0.985,-0.400
1049,-0.985,-0.400
1050,-0.990,-0.400
1051,-0.970,-0.400
1052,-0.960,-0.380
1053,-0.950,-0.375
1054,-0.915,-0.365
1055,-0.910,-0.350
1056,-0.910,-0.350
1057,-0.885,-0.350
1058,-0.885,-0.360
1059,-0.885,-0.350
1060,-0.875,-0.355
1061,-0.865,-0.360
1062,-0.860,-0.365
1063,-0.850,-0.370
1064,-0.835,-0.355
1065,-0.795,-0.335
1066,-0.785,-0.315
1067,-0.765,-0.320
1068,-0.745,-0.310
1069,-0.720,-0.305
1070,-0.710,-0.315
1071,-0.695,-0.335
1072,-0.690,-0.320
1073,-0.675,-0.355
1074,-0.660,-0.325
1075,-0.650,-0.335
1076,-0.620,-0.345
1077,-0.620,-0.315
1078,-0.575,-0.325
1079,-0.545,-0.315
1080,-0.545,-0.330
1081,-0.535,-0.330
1082,-0.520,-0.345
1083,-0.515,-0.380
1084,-0.510,-0.380
1085,-0.505,-0.390
1086,-0.495,-0.390
1087,-0.485,-0.390
1088,-0.470,-0.395
1089,-0.460,-0.390
1090,-0.455,-0.385
1091,-0.450,-0.370
1092,-0.460,-0.375
1093,-0.480,-0.400
1094,-0.500,-0.410
1095,-0.525,-0.405
1096,-0.550,-0.440
1097,-0.570,-0.440
1098,-0.595,-0.435
1099,-0.615,-0.420
1100,-0.630,-0.415
1101,-0.650,-0.405
1102,-0.675,-0.410
1103,-0.695,-0.400
1104,-0.700,-0.405
1105,-0.740,-0.425
1106,-0.765,-0.425
1107,-0.780,-0.430
1108,-0.810,-0.445
1109,-0.810,-0.445
1110,-0.835,-0.430
1111,-0.840,-0.425
1112,-0.850,-0.420
1113,-0.850,-0.420
1114,-0.840,-0.410
1115,-0.835,-0.410
1116,-0.840,-0.420
1117,-0.850,-0.415
1118,-0.855,-0.425
1119,-0.875,-0.430
1120,-0.895,-0.460
1121,-0.910,-0.450
1122,-0.915,-0.465
1123,-0.915,-0.465
1124,-0.905,-0.445
1125,-0.890,-0.435
1126,-0.870,-0.435
1127,-0.880,-0.430
1128,-0.880,-0.435
1129,-0.875,-0.435
1130,-0.885,-0.435
1131,-0.890,-0.445
1132,-0.880,-0.445
1133,-0.895,-0.455
1134,-0.900,-0.450
1135,-0.895,-0.445
1136,-0.885,-0.440
1137,-0.870,-0.440
1138,-0.860,-0.450
1139,-0.850,-0.425
1140,-0.840,-0.440
1141,-0.850,-0.445
1142,-0.865,-0.465
1143,-0.850,-0.460
1144,-0.860,-0.490
1145,-0.855,-0.485
1146,-0.860,-0.485
1147,-0.860,-0.480
1148,-0.870,-0.470
1149,-0.850,-0.460
1150,-0.855,-0.460
1151,-0.845,-0.445
1152,-0.840,-0.450
1153,-0.865,-0.440
1154,-0.860,-0.455
1155,-0.855,-0.460
1156,-0.850,-0.475
1157,-0.855,-0.470
1158,-0.875,-0.470
1159,-0.875,-0.475
1160,-0.875,-0.470
1161,-0.860,-0.455
1162,-0.845,-0.430
1163,-0.840,-0.440
1164,-0.835,-0.430
1165,-0.855,-0.450
1166,-0.865,-0.470
1167,-0.875,-0.485
1168,-0.890,-0.480
1169,-0.900,-0.490
1170,-0.890,-0.485
1171,-0.895,-0.490
1172,-0.890,-0.465
1173,-0.900,-0.450
1174,-0.895,-0.440
1175,-0.880,-0.440
1176,-0.860,-0.440
1177,-0.885,-0.435
1178,-0.885,-0.465
1179,-0.900,-0.460
1180,-0.905,-0.475
1181,-0.920,-0.485
1182,-0.925,-0.485
1183,-0.925,-0.475
1184,-0.910,-0.465
1185,-0.925,-0.455
1186,-0.930,-0.445
1187,-0.920,-0.435
1188,-0.930,-0.450
1189,-0.910,-0.460
1190,-0.930,-0.480
1191,-0.920,-0.490
1192,-0.945,-0.475
1193,-0.955,-0.490
1194,-0.945,-0.490
1195,-0.955,-0.485
1196,-0.950,-0.490
1197,-0.950,-0.470
1198,-0.940,-0.460
1199,-0.920,-0.465
1200,-0.915,-0.465
1201,-0.925,-0.455
1202,-0.940,-0.475
1203,-0.945,-0.490
1204,-0.955,-0.505
1205,-0.960,-0.510
1206,-0.950,-0.515
1207,-0.955,-0.510
1208,-0.955,-0.500
1209,-0.945,-0.490
1210,-0.955,-0.485
1211,-0.950,-0.475
1212,-0.940,-0.480
1213,-0.935,-0.510
1214,-0.940,-0.510
1215,-0.950,-0.515
1216,-0.960,-0.530
1217,-0.960,-0.525
1218,-0.965,-0.515
1219,-0.960,-0.510
1220,-0.965,-0.485
1221,-0.945,-0.480
1222,-0.915,-0.480
1223,-0.930,-0.475
1224,-0.935,-0.475
1225,-0.945,-0.485
1226,-0.930,-0.495
1227,-0.955,-0.515
1228,-0.945,-0.505
1229,-0.945,-0.510
1230,-0.955,-0.505
1231,-0.935,-0.520
1232,-0.950,-0.500
1233,-0.945,-0.490
1234,-0.935,-0.505
1235,-0.925,-0.480
1236,-0.920,-0.495
1237,-0.920,-0.485
1238,-0.910,-0.495
1239,-0.915,-0.495
1240,-0.920,-0.500
1241,-0.915,-0.505
1242,-0.905,-0.500
1243,-0.890,-0.470
1244,-0.850,-0.445
1245,-0.830,-0.440
1246,-0.810,-0.430
1247,-0.790,-0.415
1248,-0.770,-0.420
1249,-0.765,-0.390
1250,-0.760,-0.400
1251,-0.735,-0.400
1252,-0.725,-0.405
1253,-0.710,-0.400
1254,-0.670,-0.400
1255,-0.635,-0.410
1256,-0.600,-0.415
1257,-0.585,-0.425
1258,-0.580,-0.445
1259,-0.590,-0.445
1260,-0.595,-0.460
1261,-0.610,-0.490
1262,-0.615,-0.520
1263,-0.615,-0.515
1264,-0.620,-0.535
1265,-0.650,-0.525
1266,-0.685,-0.525
1267,-0.730,-0.535
1268,-0.765,-0.535
1269,-0.815,-0.530
1270,-0.865,-0.520
1271,-0.895,-0.515
1272,-0.920,-0.500
1273,-0.940,-0.505
1274,-0.945,-0.520
1275,-0.960,-0.540
1276,-0.960,-0.550
1277,-0.965,-0.555
1278,-0.970,-0.560
1279,-0.975,-0.560
1280,-0.965,-0.535
1281,-0.960,-0.530
1282,-0.950,-0.515
1283,-0.960,-0.520
1284,-0.960,-0.520
1285,-0.960,-0.520
1286,-0.960,-0.520
1287,-0.965,-0.520
1288,-0.970,-0.535
1289,-0.970,-0.540
1290,-0.980,-0.535
1291,-0.970,-0.540
1292,-0.970,-0.530
1293,-0.970,-0.535
1294,-0.950,-0.525
1295,-0.930,-0.520
1296,-0.945,-0.525
1297,-0.925,-0.525
1298,-0.930,-0.525
1299,-0.945,-0.530
1300,-0.945,-0.540
1301,-0.980,-0.550
1302,-1.020,-0.540
1303,-1.040,-0.500
1304,-1.015,-0.440
1305,-0.960,-0.365
1306,-0.860,-0.340
1307,-0.695,-0.275
1308,-0.480,-0.275
1309,-0.225,-0.320
1310,0.090,-0.415
1311,0.395,-0.550
1312,0.715,-0.720
1313,0.955,-0.930
1314,1.115,-1.130
1315,1.170,-1.345
1316,1.165,-1.480
1317,1.095,-1.555
1318,0.925,-1.565
1319,0.640,-1.540
1320,0.230,-1.495
1321,-0.265,-1.445
1322,-0.705,-1.380
1323,-1.010,-1.325
1324,-1.085,-1.245
1325,-1.050,-1.135
1326,-0.900,-1.035
1327,-0.770,-0.960
1328,-0.710,-0.885
1329,-0.700,-0.795
1330,-0.720,-0.720
1331,-0.770,-0.650
1332,-0.845,-0.605
1333,-0.905,-0.560
1334,-0.915,-0.535
1335,-0.925,-0.530
1336,-0.935,-0.520
1337,-0.945,-0.520
1338,-0.945,-0.515
1339,-0.940,-0.520
1340,-0.940,-0.495
1341,-0.935,-0.470
1342,-0.935,-0.470
1343,-0.925,-0.460
1344,-0.935,-0.445
1345,-0.945,-0.465
1346,-0.950,-0.480
1347,-0.955,-0.470
1348,-0.965,-0.475
1349,-0.975,-0.480
1350,-1.000,-0.490
1351,-0.985,-0.480
1352,-0.980,-0.455
1353,-0.985,-0.450
1354,-0.970,-0.445
1355,-0.965,-0.420
1356,-0.965,-0.420
1357,-0.975,-0.425
1358,-0.980,-0.435
1359,-0.970,-0.440
1360,-0.970,-0.460
1361,-0.980,-0.455
1362,-0.990,-0.455
1363,-0.965,-0.445
1364,-0.970,-0.445
1365,-0.960,-0.440
1366,-0.945,-0.435
1367,-0.940,-0.420
1368,-0.940,-0.435
1369,-0.945,-0.425
1370,-0.945,-0.435
1371,-0.950,-0.440
1372,-0.960,-0.465
1373,-0.960,-0.460
1374,-0.960,-0.470
1375,-0.950,-0.455
1376,-0.945,-0.460
1377,-0.945,-0.440
1378,-0.930,-0.435
1379,-0.910,-0.410
1380,-0.910,-0.410
1381,-0.910,-0.405
1382,-0.925,-0.410
1383,-0.910,-0.445
1384,-0.920,-0.455
1385,-0.935,-0.440
1386,-0.920,-0.435
1387,-0.915,-0.430
1388,-0.905,-0.445
1389,-0.880,-0.425
1390,-0.870,-0.405
1391,-0.860,-0.395
1392,-0.850,-0.405
1393,-0.865,-0.410
1394,-0.855,-0.410
1395,-0.835,-0.435
1396,-0.840,-0.445
1397,-0.825,-0.425
1398,-0.810,-0.425
1399,-0.815,-0.420
1400,-0.780,-0.410
1401,-0.785,-0.385
1402,-0.755,-0.385
1403,-0.735,-0.365
1404,-0.710,-0.370
1405,-0.710,-0.375
1406,-0.705,-0.390
1407,-0.675,-0.390
1408,-0.670,-0.410
1409,-0.650,-0.400
1410,-0.645,-0.420
1411,-0.625,-0.385
1412,-0.605,-0.390
1413,-0.590,-0.375
1414,-0.565,-0.370
1415,-0.535,-0.365
1416,-0.510,-0.360
1417,-0.500,-0.390
1418,-0.485,-0.390
1419,-0.485,-0.415
1420,-0.475,-0.410
1421,-0.470,-0.425
1422,-0.475,-0.440
1423,-0.440,-0.430
1424,-0.425,-0.385
1425,-0.400,-0.390
1426,-0.390,-0.380
1427,-0.365,-0.385
1428,-0.365,-0.395
1429,-0.355,-0.400
1430,-0.350,-0.400
1431,-0.350,-0.435
1432,-0.360,-0.440
1433,-0.370,-0.440
1434,-0.390,-0.445
1435,-0.395,-0.445
1436,-0.410,-0.430
1437,-0.425,-0.425
1438,-0.440,-0.415
1439,-0.450,-0.400
1440,-0.490,-0.420
1441,-0.510,-0.410
1442,-0.550,-0.425
1443,-0.595,-0.435
1444,-0.620,-0.445
1445,-0.655,-0.450
1446,-0.680,-0.465
1447,-0.700,-0.450
1448,-0.715,-0.440
1449,-0.745,-0.425
1450,-0.745,-0.410
1451,-0.765,-0.395
1452,-0.775,-0.420
1453,-0.790,-0.425
1454,-0.800,-0.450
1455,-0.830,-0.445
1456,-0.840,-0.460
1457,-0.850,-0.460
1458,-0.870,-0.485
1459,-0.880,-0.485
1460,-0.890,-0.475
1461,-0.895,-0.465
1462,-0.890,-0.455
1463,-0.870,-0.450
1464,-0.875,-0.460
1465,-0.890,-0.470
1466,-0.885,-0.480
1467,-0.885,-0.475
1468,-0.910,-0.480
1469,-0.920,-0.485
1470,-0.915,-0.480
1471,-0.925,-0.465
1472,-0.920,-0.445
1473,-0.910,-0.445
1474,-0.910,-0.415
1475,-0.900,-0.440
1476,-0.900,-0.440
1477,-0.900,-0.450
1478,-0.915,-0.445
1479,-0.920,-0.465
1480,-0.925,-0.470
1481,-0.930,-0.460
1482,-0.925,-0.470
1483,-0.925,-0.485
1484,-0.915,-0.455
1485,-0.900,-0.470
1486,-0.880,-0.465
1487,-0.880,-0.440
1488,-0.865,-0.450
1489,-0.865,-0.465
1490,-0.890,-0.465
1491,-0.890,-0.475
1492,-0.900,-0.485
1493,-0.920,-0.475
1494,-0.900,-0.475
1495,-0.890,-0.480
1496,-0.890,-0.475
1497,-0.890,-0.460
1498,-0.875,-0.460
1499,-0.880,-0.445
1500,-0.875,-0.460
1501,-0.860,-0.460
1502,-0.860,-0.470
1503,-0.880,-0.480
1504,-0.880,-0.485
1505,-0.900,-0.495
1506,-0.895,-0.490
1507,-0.920,-0.505
1508,-0.905,-0.485
1509,-0.890,-0.490
1510,-0.870,-0.480
1511,-0.880,-0.465
1512,-0.875,-0.470
1513,-0.885,-0.455
1514,-0.890,-0.455
1515,-0.905,-0.480
1516,-0.905,-0.485
1517,-0.900,-0.490
1518,-0.915,-0.490
1519,-0.920,-0.500
1520,-0.920,-0.490
1521,-0.905,-0.470
1522,-0.915,-0.465
1523,-0.915,-0.445
1524,-0.890,-0.460
1525,-0.925,-0.470
1526,-0.925,-0.485
1527,-0.930,-0.490
1528,-0.930,-0.490
1529,-0.935,-0.505
1530,-0.945,-0.520
1531,-0.935,-0.495
1532,-0.925,-0.500
1533,-0.930,-0.475
1534,-0.920,-0.485
1535,-0.920,-0.460
1536,-0.910,-0.460
1537,-0.910,-0.470
1538,-0.930,-0.475
1539,-0.945,-0.490
1540,-0.955,-0.500
1541,-0.960,-0.500
1542,-0.965,-0.520
1543,-0.955,-0.500
1544,-0.960,-0.495
1545,-0.945,-0.480
1546,-0.940,-0.485
1547,-0.935,-0.480
1548,-0.940,-0.475
1549,-0.940,-0.485
1550,-0.930,-0.495
1551,-0.945,-0.485
1552,-0.955,-0.520
1553,-0.955,-0.515
1554,-0.965,-0.515
1555,-0.950,-0.515
1556,-0.955,-0.495
1557,-0.950,-0.480
1558,-0.960,-0.470
1559,-0.945,-0.470
1560,-0.950,-0.470
1561,-0.955,-0.470
1562,-0.945,-0.475
1563,-0.955,-0.495
1564,-0.965,-0.495
1565,-0.985,-0.510
1566,-0.990,-0.510
1567,-0.965,-0.500
1568,-0.965,-0.495
1569,-0.960,-0.490
1570,-0.955,-0.455
1571,-0.960,-0.470
1572,-0.940,-0.480
1573,-0.945,-0.475
1574,-0.940,-0.480
1575,-0.940,-0.480
1576,-0.930,-0.485
1577,-0.940,-0.490
1578,-0.920,-0.505
1579,-0.920,-0.460
1580,-0.900,-0.440
1581,-0.885,-0.430
1582,-0.840,-0.410
1583,-0.835,-0.390
1584,-0.815,-0.380
1585,-0.790,-0.395
1586,-0.800,-0.390
1587,-0.785,-0.400
1588,-0.750,-0.405
1589,-0.735,-0.395
1590,-0.690,-0.405
1591,-0.650,-0.420
1592,-0.650,-0.425
1593,-0.640,-0.455
1594,-0.640,-0.475
1595,-0.645,-0.470
1596,-0.640,-0.495
1597,-0.650,-0.500
1598,-0.665,-0.505
1599,-0.660,-0.515
1600,-0.670,-0.530
1601,-0.720,-0.530
1602,-0.735,-0.515
1603,-0.785,-0.530
1604,-0.830,-0.520
1605,-0.885,-0.520
1606,-0.930,-0.505
1607,-0.945,-0.500
1608,-0.960,-0.495
1609,-0.975,-0.500
1610,-0.975,-0.520
1611,-1.000,-0.540
1612,-1.020,-0.545
1613,-1.015,-0.550
1614,-1.015,-0.555
1615,-1.020,-0.555
1616,-1.015,-0.545
1617,-1.010,-0.545
1618,-1.010,-0.525
1619,-1.010,-0.505
1620,-1.010,-0.535
1621,-1.015,-0.520
1622,-1.010,-0.525
1623,-1.015,-0.540
1624,-1.035,-0.540
1625,-1.035,-0.530
1626,-1.030,-0.540
1627,-1.040,-0.540
1628,-1.040,-0.540
1629,-1.040,-0.520
1630,-1.015,-0.520
1631,-1.010,-0.515
1632,-1.005,-0.525
1633,-0.990,-0.510
1634,-0.995,-0.530
1635,-1.000,-0.535
1636,-1.010,-0.545
1637,-1.040,-0.550
1638,-1.045,-0.525
1639,-1.075,-0.540
1640,-1.095,-0.495
1641,-1.075,-0.435
1642,-0.995,-0.375
1643,-0.870,-0.320
1644,-0.680,-0.290
1645,-0.430,-0.315
1646,-0.105,-0.390
1647,0.255,-0.530
1648,0.590,-0.700
1649,0.880,-0.910
1650,1.055,-1.155
1651,1.110,-1.335
1652,1.060,-1.470
1653,0.910,-1.535
1654,0.615,-1.515
1655,0.195,-1.455
1656,-0.295,-1.385
1657,-0.760,-1.325
1658,-1.070,-1.260
1659,-1.185,-1.180
1660,-1.135,-1.085
1661,-1.005,-1.000
1662,-0.880,-0.930
1663,-0.815,-0.850
1664,-0.795,-0.770
1665,-0.840,-0.705
1666,-0.885,-0.635
1667,-0.945,-0.565
1668,-0.990,-0.535
1669,-1.010,-0.515
1670,-1.025,-0.495
1671,-1.020,-0.510
1672,-1.035,-0.515
1673,-1.040,-0.510
1674,-1.055,-0.520
1675,-1.055,-0.495
1676,-1.055,-0.480
1677,-1.050,-0.455
1678,-1.045,-0.450
1679,-1.045,-0.435
1680,-1.040,-0.450
1681,-1.055,-0.445
1682,-1.050,-0.450
1683,-1.055,-0.460
1684,-1.065,-0.475
1685,-1.080,-0.465
1686,-1.070,-0.470
1687,-1.075,-0.470
1688,-1.060,-0.450
1689,-1.080,-0.440
1690,-1.070,-0.425
1691,-1.070,-0.430
1692,-1.065,-0.410
1693,-1.070,-0.425
1694,-1.065,-0.430
1695,-1.060,-0.455
1696,-1.065,-0.445
1697,-1.075,-0.465
1698,-1.090,-0.475
1699,-1.075,-0.455
1700,-1.070,-0.445
1701,-1.075,-0.455
1702,-1.055,-0.445
1703,-1.040,-0.430
1704,-1.035,-0.440
1705,-1.045,-0.445
1706,-1.055,-0.435
1707,-1.055,-0.460
1708,-1.060,-0.465
1709,-1.060,-0.455
1710,-1.080,-0.465
1711,-1.055,-0.455
1712,-1.060,-0.450
1713,-1.035,-0.440
1714,-1.015,-0.425
1715,-1.015,-0.415
1716,-1.000,-0.410
1717,-0.995,-0.415
1718,-1.005,-0.440
1719,-1.010,-0.440
1720,-1.015,-0.460
1721,-1.010,-0.460
1722,-1.005,-0.460
1723,-0.985,-0.460
1724,-0.975,-0.430
1725,-0.960,-0.450
1726,-0.940,-0.440
1727,-0.915,-0.420
1728,-0.910,-0.425
1729,-0.905,-0.440
1730,-0.900,-0.445
1731,-0.895,-0.445
1732,-0.880,-0.445
1733,-0.880,-0.440
1734,-0.890,-0.435
1735,-0.880,-0.435
1736,-0.850,-0.415
1737,-0.815,-0.420
1738,-0.785,-0.405
1739,-0.750,-0.395
1740,-0.735,-0.395
1741,-0.715,-0.435
1742,-0.705,-0.430
1743,-0.705,-0.435
1744,-0.690,-0.450
1745,-0.685,-0.460
1746,-0.670,-0.480
1747,-0.660,-0.480
1748,-0.630,-0.470
1749,-0.635,-0.465
1750,-0.590,-0.470
1751,-0.560,-0.455
1752,-0.555,-0.455
1753,-0.530,-0.445
1754,-0.520,-0.455
1755,-0.520,-0.465
1756,-0.510,-0.470
1757,-0.510,-0.470
1758,-0.510,-0.475
1759,-0.500,-0.475
1760,-0.490,-0.475
1761,-0.480,-0.455
1762,-0.470,-0.450
1763,-0.465,-0.455
1764,-0.460,-0.450
1765,-0.480,-0.455
1766,-0.495,-0.450
1767,-0.530,-0.470
1768,-0.545,-0.475
1769,-0.585,-0.475
1770,-0.605,-0.475
1771,-0.635,-0.475
1772,-0.650,-0.460
1773,-0.670,-0.440
1774,-0.710,-0.435
1775,-0.720,-0.420
1776,-0.745,-0.405
1777,-0.775,-0.425
1778,-0.815,-0.410
1779,-0.840,-0.430
1780,-0.865,-0.430
1781,-0.900,-0.435
1782,-0.920,-0.450
1783,-0.920,-0.440
1784,-0.945,-0.445
1785,-0.945,-0.440
1786,-0.960,-0.435
1787,-0.975,-0.420
1788,-0.975,-0.420
1789,-0.990,-0.425
1790,-1.005,-0.440
1791,-1.005,-0.445
1792,-1.030,-0.455
1793,-1.045,-0.465
1794,-1.065,-0.485
1795,-1.060,-0.480
1796,-1.045,-0.470
1797,-1.035,-0.460
1798,-1.030,-0.450
1799,-1.040,-0.440
1800,-1.030,-0.440
1801,-1.050,-0.445
1802,-1.060,-0.450
1803,-1.060,-0.450
1804,-1.060,-0.455
1805,-1.070,-0.455
1806,-1.070,-0.460
1807,-1.065,-0.455
1808,-1.060,-0.450
1809,-1.045,-0.455
1810,-1.035,-0.450
1811,-1.030,-0.430
1812,-1.015,-0.445
1813,-1.010,-0.440
1814,-1.015,-0.445
1815,-1.040,-0.460
1816,-1.040,-0.475
1817,-1.030,-0.480
1818,-1.035,-0.470
1819,-1.050,-0.475
1820,-1.025,-0.480
1821,-1.010,-0.465
1822,-1.020,-0.435
1823,-1.005,-0.430
1824,-0.995,-0.425
1825,-0.980,-0.445
1826,-0.990,-0.445
1827,-1.005,-0.460
1828,-1.010,-0.460
1829,-1.015,-0.470
1830,-1.005,-0.470
1831,-1.015,-0.470
1832,-1.010,-0.465
1833,-0.995,-0.470
1834,-0.985,-0.450
1835,-0.975,-0.435
1836,-0.975,-0.435
1837,-0.965,-0.445
1838,-0.965,-0.475
1839,-0.995,-0.470
1840,-0.995,-0.475
1841,-1.000,-0.470
1842,-1.005,-0.500
1843,-1.020,-0.490
1844,-1.005,-0.475
1845,-1.005,-0.460
1846,-1.000,-0.445
1847,-0.975,-0.440
1848,-0.985,-0.445
1849,-1.005,-0.435
1850,-1.000,-0.465
1851,-1.020,-0.470
1852,-1.020,-0.475
1853,-1.030,-0.485
1854,-1.010,-0.480
1855,-1.010,-0.465
1856,-1.015,-0.475
1857,-1.010,-0.460
1858,-1.000,-0.455
1859,-0.995,-0.455
1860,-1.010,-0.455
1861,-1.005,-0.465
1862,-1.015,-0.485
1863,-1.030,-0.485
1864,-1.025,-0.485
1865,-1.045,-0.500
1866,-1.060,-0.490
1867,-1.050,-0.500
1868,-1.040,-0.475
1869,-1.040,-0.450
1870,-1.030,-0.445
1871,-1.035,-0.455
1872,-1.015,-0.445
1873,-1.030,-0.465
1874,-1.035,-0.450
1875,-1.040,-0.470
1876,-1.035,-0.480
1877,-1.050,-0.490
1878,-1.060,-0.500
1879,-1.075,-0.495
1880,-1.060,-0.500
1881,-1.050,-0.480
1882,-1.045,-0.475
1883,-1.040,-0.455
1884,-1.030,-0.470
1885,-1.030,-0.470
1886,-1.035,-0.495
1887,-1.045,-0.485
1888,-1.050,-0.485
1889,-1.060,-0.500
1890,-1.065,-0.505
1891,-1.075,-0.475
1892,-1.060,-0.495
1893,-1.050,-0.470
1894,-1.035,-0.450
1895,-1.035,-0.445
1896,-1.015,-0.450
1897,-1.010,-0.450
1898,-0.995,-0.450
1899,-0.995,-0.460
1900,-0.985,-0.470
1901,-0.985,-0.460
1902,-0.970,-0.455
1903,-0.950,-0.450
1904,-0.945,-0.430
1905,-0.925,-0.435
1906,-0.910,-0.415
1907,-0.890,-0.405
1908,-0.865,-0.380
1909,-0.860,-0.400
1910,-0.825,-0.390
1911,-0.810,-0.390
1912,-0.770,-0.390
1913,-0.740,-0.405
1914,-0.720,-0.425
1915,-0.710,-0.435
1916,-0.695,-0.465
1917,-0.700,-0.460
1918,-0.705,-0.475
1919,-0.720,-0.470
1920,-0.695,-0.485
1921,-0.710,-0.475
1922,-0.720,-0.505
1923,-0.755,-0.515
1924,-0.800,-0.525
1925,-0.840,-0.545
1926,-0.900,-0.555
1927,-0.965,-0.555
1928,-1.015,-0.535
1929,-1.045,-0.515
1930,-1.040,-0.515
1931,-1.055,-0.500
1932,-1.060,-0.490
1933,-1.045,-0.490
1934,-1.055,-0.515
1935,-1.050,-0.515
1936,-1.075,-0.515
1937,-1.085,-0.545
1938,-1.080,-0.545
1939,-1.080,-0.540
1940,-1.080,-0.530
1941,-1.070,-0.520
1942,-1.065,-0.505
1943,-1.075,-0.510
1944,-1.070,-0.515
1945,-1.080,-0.505
1946,-1.090,-0.525
1947,-1.085,-0.530
1948,-1.100,-0.525
1949,-1.085,-0.555
1950,-1.100,-0.555
1951,-1.105,-0.545
1952,-1.085,-0.525
1953,-1.075,-0.520
1954,-1.055,-0.515
1955,-1.065,-0.495
1956,-1.050,-0.495
1957,-1.055,-0.490
1958,-1.060,-0.500
1959,-1.085,-0.495
1960,-1.120,-0.475
1961,-1.120,-0.460
1962,-1.090,-0.415
1963,-0.990,-0.350
1964,-0.835,-0.310
1965,-0.575,-0.305
1966,-0.255,-0.355
1967,0.145,-0.465
1968,0.535,-0.655
1969,0.865,-0.895
1970,1.065,-1.155
1971,1.165,-1.375
1972,1.110,-1.525
1973,0.900,-1.570
1974,0.525,-1.550
1975,-0.015,-1.490
1976,-0.575,-1.390
1977,-1.000,-1.285
1978,-1.210,-1.180
1979,-1.210,-1.055
1980,-1.085,-0.950
1981,-0.955,-0.860
1982,-0.855,-0.810
1983,-0.830,-0.755
1984,-0.855,-0.685
1985,-0.935,-0.645
1986,-0.990,-0.595
1987,-1.035,-0.560
1988,-1.050,-0.540
1989,-1.085,-0.510
1990,-1.055,-0.510
1991,-1.060,-0.495
1992,-1.025,-0.485
1993,-1.035,-0.485
1994,-1.045,-0.470
1995,-1.050,-0.485
1996,-1.055,-0.465
1997,-1.090,-0.485
1998,-1.090,-0.485
1999,-1.085,-0.480
2000,-1.085,-0.455
2001,-1.080,-0.450
2002,-1.080,-0.445
2003,-1.070,-0.445
2004,-1.055,-0.435
2005,-1.065,-0.430
2006,-1.070,-0.425
2007,-1.060,-0.450
2008,-1.080,-0.465
2009,-1.090,-0.470
2010,-1.090,-0.485
2011,-1.090,-0.475
2012,-1.085,-0.455
2013,-1.070,-0.450
2014,-1.070,-0.450
2015,-1.050,-0.445
2016,-1.045,-0.440
2017,-1.055,-0.435
2018,-1.065,-0.430
2019,-1.065,-0.450
2020,-1.040,-0.465
2021,-1.060,-0.485
2022,-1.055,-0.480
2023,-1.050,-0.480
2024,-1.065,-0.460
2025,-1.040,-0.460
2026,-1.030,-0.455
2027,-1.020,-0.440
2028,-1.025,-0.450
2029,-1.010,-0.440
2030,-0.990,-0.455
2031,-0.995,-0.455
2032,-0.990,-0.460
2033,-0.990,-0.470
2034,-0.985,-0.455
2035,-0.980,-0.455
2036,-0.970,-0.440
2037,-0.955,-0.435
2038,-0.935,-0.415
2039,-0.935,-0.415
2040,-0.910,-0.410
2041,-0.905,-0.410
2042,-0.905,-0.415
2043,-0.890,-0.440
2044,-0.900,-0.415
2045,-0.915,-0.450
2046,-0.905,-0.455
2047,-0.880,-0.435
2048,-0.845,-0.435
2049,-0.820,-0.425
2050,-0.815,-0.410
2051,-0.775,-0.410
2052,-0.765,-0.415
2053,-0.745,-0.415
2054,-0.710,-0.410
2055,-0.725,-0.425
2056,-0.695,-0.415
2057,-0.675,-0.435
2058,-0.640,-0.420
2059,-0.625,-0.430
2060,-0.605,-0.425
2061,-0.570,-0.410
2062,-0.550,-0.400
2063,-0.530,-0.410
2064,-0.510,-0.395
2065,-0.485,-0.410
2066,-0.470,-0.420
2067,-0.470,-0.440
2068,-0.450,-0.440
2069,-0.445,-0.455
2070,-0.420,-0.450
2071,-0.425,-0.450
2072,-0.415,-0.455
2073,-0.410,-0.440
2074,-0.395,-0.445
2075,-0.395,-0.440
2076,-0.370,-0.410
2077,-0.400,-0.430
2078,-0.410,-0.450
2079,-0.450,-0.465
2080,-0.485,-0.450
2081,-0.500,-0.455
2082,-0.530,-0.455
2083,-0.585,-0.450
2084,-0.615,-0.450
2085,-0.620,-0.420
2086,-0.650,-0.425
2087,-0.665,-0.420
2088,-0.705,-0.405
2089,-0.740,-0.420
2090,-0.765,-0.425
2091,-0.800,-0.430
2092,-0.830,-0.440
2093,-0.850,-0.460
2094,-0.860,-0.465
2095,-0.885,-0.470
2096,-0.910,-0.460
2097,-0.905,-0.445
2098,-0.915,-0.450
2099,-0.920,-0.445
2100,-0.930,-0.425
2101,-0.930,-0.440
2102,-0.955,-0.455
2103,-0.960,-0.450
2104,-0.970,-0.445
2105,-0.975,-0.470
2106,-0.985,-0.470
2107,-0.995,-0.485
2108,-1.000,-0.480
2109,-0.980,-0.460
2110,-0.990,-0.465
2111,-0.975,-0.465
2112,-0.960,-0.460
2113,-0.965,-0.480
2114,-0.980,-0.465
2115,-0.985,-0.485
2116,-0.990,-0.480
2117,-0.995,-0.485
2118,-0.980,-0.500
2119,-0.985,-0.490
2120,-0.985,-0.485
2121,-0.965,-0.475
2122,-0.945,-0.460
2123,-0.945,-0.445
2124,-0.925,-0.440
2125,-0.925,-0.445
2126,-0.940,-0.455
2127,-0.950,-0.465
2128,-0.955,-0.470
2129,-0.955,-0.490
2130,-0.935,-0.495
2131,-0.945,-0.490
2132,-0.945,-0.490
2133,-0.930,-0.460
2134,-0.915,-0.475
2135,-0.915,-0.460
2136,-0.910,-0.475
2137,-0.915,-0.475
2138,-0.920,-0.475
2139,-0.930,-0.495
2140,-0.940,-0.505
2141,-0.920,-0.510
2142,-0.925,-0.505
2143,-0.935,-0.505
2144,-0.915,-0.500
2145,-0.905,-0.485
2146,-0.895,-0.475
2147,-0.885,-0.475
2148,-0.890,-0.480
2149,-0.900,-0.455
2150,-0.900,-0.490
2151,-0.905,-0.485
2152,-0.905,-0.485
2153,-0.915,-0.515
2154,-0.930,-0.515
2155,-0.925,-0.500
2156,-0.930,-0.525
2157,-0.915,-0.510
2158,-0.920,-0.490
2159,-0.915,-0.490
2160,-0.920,-0.490
2161,-0.915,-0.485
2162,-0.920,-0.495
2163,-0.925,-0.500
2164,-0.930,-0.505
2165,-0.925,-0.530
2166,-0.945,-0.530
2167,-0.955,-0.510
2168,-0.955,-0.500
2169,-0.955,-0.495
2170,-0.940,-0.485
2171,-0.920,-0.480
2172,-0.920,-0.475
2173,-0.945,-0.495
2174,-0.945,-0.495
2175,-0.935,-0.505
2176,-0.945,-0.515
2177,-0.950,-0.505
2178,-0.965,-0.515
2179,-0.960,-0.515
2180,-0.965,-0.495
2181,-0.945,-0.490
2182,-0.950,-0.495
2183,-0.940,-0.495
2184,-0.925,-0.500
2185,-0.945,-0.490
2186,-0.950,-0.505
2187,-0.970,-0.500
2188,-0.965,-0.515
2189,-0.970,-0.525
2190,-0.970,-0.525
2191,-0.990,-0.515
2192,-0.990,-0.510
2193,-0.960,-0.495
2194,-0.975,-0.495
2195,-0.945,-0.480
2196,-0.950,-0.480
2197,-0.950,-0.480
2198,-0.960,-0.485
2199,-0.955,-0.510
2200,-0.965,-0.520
2201,-0.990,-0.505
2202,-0.975,-0.525
2203,-0.975,-0.520
2204,-0.975,-0.520
2205,-0.960,-0.510
2206,-0.960,-0.505
2207,-0.945,-0.510
2208,-0.940,-0.505
2209,-0.935,-0.510
2210,-0.930,-0.505
2211,-0.945,-0.530
2212,-0.945,-0.535
2213,-0.965,-0.540
2214,-0.950,-0.525
2215,-0.960,-0.530
2216,-0.955,-0.520
2217,-0.920,-0.490
2218,-0.905,-0.490
2219,-0.880,-0.460
2220,-0.860,-0.450
2221,-0.845,-0.455
2222,-0.850,-0.455
2223,-0.835,-0.460
2224,-0.830,-0.450
2225,-0.815,-0.465
2226,-0.820,-0.465
2227,-0.815,-0.460
2228,-0.780,-0.450
2229,-0.745,-0.425
2230,-0.725,-0.410
2231,-0.685,-0.390
2232,-0.630,-0.395
2233,-0.605,-0.395
2234,-0.590,-0.435
2235,-0.590,-0.460
2236,-0.600,-0.490
2237,-0.620,-0.510
2238,-0.635,-0.530
2239,-0.665,-0.540
2240,-0.645,-0.535
2241,-0.640,-0.520
2242,-0.645,-0.505
2243,-0.650,-0.520
2244,-0.710,-0.520
2245,-0.755,-0.535
2246,-0.820,-0.525
2247,-0.875,-0.545
2248,-0.925,-0.530
2249,-0.960,-0.540
2250,-0.995,-0.560
2251,-1.020,-0.555
2252,-1.010,-0.545
2253,-0.990,-0.525
2254,-0.970,-0.520
2255,-0.960,-0.520
2256,-0.970,-0.515
2257,-0.975,-0.515
2258,-0.975,-0.515
2259,-0.990,-0.530
2260,-1.010,-0.530
2261,-1.010,-0.535
2262,-1.015,-0.555
2263,-1.025,-0.535
2264,-1.010,-0.530
2265,-1.005,-0.535
2266,-1.015,-0.525
2267,-0.995,-0.525
2268,-0.990,-0.530
2269,-0.980,-0.525
2270,-0.985,-0.525
2271,-0.990,-0.530
2272,-0.990,-0.530
2273,-0.990,-0.545
2274,-0.990,-0.545
2275,-0.990,-0.565
2276,-0.985,-0.535
2277,-0.995,-0.535
2278,-0.985,-0.535
2279,-0.985,-0.525
2280,-0.990,-0.505
2281,-1.010,-0.490
2282,-1.035,-0.480
2283,-1.050,-0.445
2284,-1.035,-0.400
2285,-0.985,-0.345
2286,-0.880,-0.295
2287,-0.710,-0.265
2288,-0.450,-0.315
2289,-0.145,-0.390
2290,0.225,-0.505
2291,0.600,-0.690
2292,0.920,-0.910
2293,1.130,-1.160
2294,1.205,-1.385
2295,1.200,-1.565
2296,1.085,-1.670
2297,0.845,-1.675
2298,0.450,-1.625
2299,-0.045,-1.550
2300,-0.570,-1.455
2301,-0.935,-1.365
2302,-1.120,-1.245
2303,-1.095,-1.135
2304,-0.995,-1.015
2305,-0.845,-0.930
2306,-0.755,-0.845
2307,-0.745,-0.760
2308,-0.775,-0.720
2309,-0.825,-0.660
2310,-0.910,-0.605
2311,-0.960,-0.575
2312,-0.990,-0.545
2313,-0.990,-0.530
2314,-0.970,-0.505
2315,-0.975,-0.495
2316,-0.950,-0.500
2317,-0.960,-0.490
2318,-0.965,-0.485
2319,-0.955,-0.485
2320,-0.970,-0.485
2321,-1.005,-0.505
2322,-1.005,-0.485
2323,-1.020,-0.495
2324,-1.005,-0.495
2325,-1.000,-0.470
2326,-0.995,-0.460
2327,-1.000,-0.435
2328,-0.990,-0.425
2329,-0.990,-0.430
2330,-1.010,-0.440
2331,-0.995,-0.450
2332,-1.010,-0.445
2333,-1.015,-0.455
2334,-1.015,-0.465
2335,-1.025,-0.455
2336,-1.015,-0.460
2337,-1.000,-0.450
2338,-0.990,-0.440
2339,-0.995,-0.415
2340,-0.990,-0.420
2341,-0.990,-0.415
2342,-1.000,-0.430
2343,-0.995,-0.450
2344,-1.010,-0.450
2345,-1.030,-0.460
2346,-1.030,-0.470
2347,-1.005,-0.455
2348,-1.015,-0.460
2349,-0.995,-0.450
2350,-0.990,-0.435
2351,-0.970,-0.405
2352,-0.955,-0.400
2353,-0.955,-0.395
2354,-0.955,-0.410
2355,-0.955,-0.405
2356,-0.975,-0.420
2357,-0.965,-0.435
2358,-0.970,-0.440
2359,-0.970,-0.440
2360,-0.970,-0.435
2361,-0.935,-0.425
2362,-0.925,-0.400
2363,-0.920,-0.420
2364,-0.925,-0.410
2365,-0.935,-0.405
2366,-0.925,-0.420
2367,-0.915,-0.425
2368,-0.910,-0.435
2369,-0.910,-0.425
2370,-0.905,-0.435
2371,-0.895,-0.430
2372,-0.900,-0.405
2373,-0.875,-0.400
2374,-0.855,-0.380
2375,-0.825,-0.380
2376,-0.810,-0.370
2377,-0.800,-0.370
2378,-0.785,-0.370
2379,-0.775,-0.375
2380,-0.765,-0.390
2381,-0.765,-0.395
2382,-0.765,-0.415
2383,-0.745,-0.395
2384,-0.720,-0.385
2385,-0.695,-0.375
2386,-0.670,-0.365
2387,-0.635,-0.365
2388,-0.600,-0.360
2389,-0.590,-0.365
2390,-0.575,-0.365
2391,-0.560,-0.395
2392,-0.540,-0.390
2393,-0.535,-0.395
2394,-0.515,-0.405
2395,-0.505,-0.405
2396,-0.480,-0.390
2397,-0.460,-0.385
2398,-0.435,-0.385
2399,-0.420,-0.365
2400,-0.400,-0.370
2401,-0.380,-0.370
2402,-0.355,-0.395
2403,-0.370,-0.400
2404,-0.365,-0.425
2405,-0.370,-0.425
2406,-0.375,-0.430
2407,-0.385,-0.425
2408,-0.400,-0.445
2409,-0.420,-0.435
2410,-0.440,-0.420
2411,-0.460,-0.410
2412,-0.470,-0.405
2413,-0.505,-0.410
2414,-0.535,-0.395
2415,-0.575,-0.405
2416,-0.630,-0.415
2417,-0.640,-0.410
2418,-0.690,-0.410
2419,-0.715,-0.415
2420,-0.750,-0.410
2421,-0.755,-0.400
2422,-0.775,-0.410
2423,-0.780,-0.395
2424,-0.790,-0.415
2425,-0.815,-0.415
2426,-0.840,-0.410
2427,-0.850,-0.430
2428,-0.895,-0.430
2429,-0.910,-0.455
2430,-0.925,-0.465
2431,-0.930,-0.465
2432,-0.930,-0.455
2433,-0.940,-0.445
2434,-0.935,-0.450
2435,-0.920,-0.425
2436,-0.915,-0.445
2437,-0.925,-0.435
2438,-0.930,-0.420
2439,-0.935,-0.425
2440,-0.935,-0.450
2441,-0.935,-0.455
2442,-0.950,-0.455
2443,-0.965,-0.450
2444,-0.970,-0.465
2445,-0.965,-0.450
2446,-0.960,-0.430
2447,-0.960,-0.435
2448,-0.930,-0.430
2449,-0.940,-0.440
2450,-0.935,-0.435
2451,-0.935,-0.445
2452,-0.935,-0.455
2453,-0.950,-0.470
2454,-0.945,-0.475
2455,-0.945,-0.475
2456,-0.935,-0.475
2457,-0.940,-0.460
2458,-0.925,-0.455
2459,-0.925,-0.420
2460,-0.915,-0.405
2461,-0.915,-0.415
2462,-0.915,-0.410
2463,-0.910,-0.400
2464,-0.925,-0.410
2465,-0.920,-0.400
2466,-0.945,-0.380
2467,-0.950,-0.355
2468,-0.910,-0.330
2469,-0.865,-0.290
2470,-0.795,-0.205
2471,-0.690,-0.175
2472,-0.555,-0.180
2473,-0.405,-0.260
2474,-0.280,-0.370
2475,-0.135,-0.520
2476,0.005,-0.690
2477,0.175,-0.830
2478,0.360,-0.970
2479,0.555,-1.110
2480,0.780,-1.280
2481,1.000,-1.455
2482,1.215,-1.625
2483,1.395,-1.830
2484,1.570,-2.015
2485,1.715,-2.170
2486,1.830,-2.290
2487,1.900,-2.350
2488,1.935,-2.380
2489,1.940,-2.405
2490,1.945,-2.410
2491,1.915,-2.395
2492,1.880,-2.375
2493,1.815,-2.335
2494,1.735,-2.305
2495,1.675,-2.215
2496,1.630,-2.145
2497,1.600,-2.025
2498,1.605,-1.940
2499,1.610,-1.870
2500,1.570,-1.785
2501,1.530,-1.695
2502,1.440,-1.605
2503,1.300,-1.515
2504,1.150,-1.435
2505,0.985,-1.320
2506,0.780,-1.225
2507,0.530,-1.140
2508,0.180,-1.035
2509,-0.210,-0.960
2510,-0.600,-0.855
2511,-0.880,-0.740
2512,-1.070,-0.650
2513,-1.130,-0.530
2514,-1.145,-0.470
2515,-1.130,-0.420
2516,-1.100,-0.385
2517,-1.120,-0.380
2518,-1.145,-0.355
2519,-1.190,-0.345
2520,-1.225,-0.315
2521,-1.255,-0.305
2522,-1.300,-0.285
2523,-1.325,-0.290
2524,-1.355,-0.290
2525,-1.375,-0.280
2526,-1.395,-0.265
2527,-1.400,-0.255
2528,-1.415,-0.240
2529,-1.425,-0.220
2530,-1.430,-0.200
2531,-1.455,-0.190
2532,-1.455,-0.180
2533,-1.460,-0.170
2534,-1.465,-0.165
2535,-1.475,-0.170
2536,-1.495,-0.165
2537,-1.520,-0.170
2538,-1.535,-0.170
2539,-1.545,-0.165
2540,-1.560,-0.145
2541,-1.560,-0.115
2542,-1.560,-0.095
2543,-1.570,-0.060
2544,-1.565,-0.055
2545,-1.575,-0.030
2546,-1.565,-0.015
2547,-1.575,-0.010
2548,-1.575,-0.005
2549,-1.590,0.005
2550,-1.590,0.035
2551,-1.590,0.050
2552,-1.605,0.080
2553,-1.620,0.115
2554,-1.605,0.150
2555,-1.605,0.165
2556,-1.585,0.190
2557,-1.575,0.210
2558,-1.600,0.205
2559,-1.570,0.210
2560,-1.585,0.180
2561,-1.605,0.175
2562,-1.635,0.160
2563,-1.675,0.155
2564,-1.685,0.175
2565,-1.710,0.180
2566,-1.725,0.215
2567,-1.720,0.245
2568,-1.745,0.270
2569,-1.800,0.285
2570,-1.855,0.315
2571,-1.910,0.320
2572,-1.980,0.335
2573,-2.035,0.340
2574,-2.100,0.355
2575,-2.170,0.390
2576,-2.215,0.410
2577,-2.245,0.445
2578,-2.275,0.475
2579,-2.280,0.475
2580,-2.315,0.495
2581,-2.330,0.510
2582,-2.320,0.490
2583,-2.335,0.480
2584,-2.350,0.480
2585,-2.360,0.455
2586,-2.365,0.435
2587,-2.375,0.430
2588,-2.370,0.410
2589,-2.350,0.415
2590,-2.315,0.400
2591,-2.290,0.390
2592,-2.260,0.365
2593,-2.225,0.340
2594,-2.195,0.310
2595,-2.165,0.265
2596,-2.145,0.235
2597,-2.110,0.195
2598,-2.040,0.145
2599,-1.985,0.110
2600,-1.920,0.075
2601,-1.860,0.035
2602,-1.790,0.010
2603,-1.760,-0.025
2604,-1.670,-0.040
2605,-1.625,-0.110
2606,-1.580,-0.135
2607,-1.540,-0.185
2608,-1.495,-0.210
2609,-1.455,-0.250
2610,-1.415,-0.285
2611,-1.380,-0.305
2612,-1.350,-0.315
2613,-1.330,-0.330
2614,-1.300,-0.320
2615,-1.270,-0.330
2616,-1.270,-0.320
2617,-1.255,-0.350
2618,-1.235,-0.365
2619,-1.230,-0.375
2620,-1.225,-0.400
2621,-1.225,-0.405
2622,-1.220,-0.425
2623,-1.260,-0.430
2624,-1.240,-0.415
2625,-1.215,-0.405
2626,-1.205,-0.405
2627,-1.220,-0.390
2628,-1.205,-0.390
2629,-1.205,-0.405
2630,-1.200,-0.400
2631,-1.210,-0.415
2632,-1.215,-0.440
2633,-1.210,-0.450
2634,-1.215,-0.430
2635,-1.225,-0.435
2636,-1.200,-0.430
2637,-1.205,-0.405
2638,-1.195,-0.410
2639,-1.190,-0.380
2640,-1.170,-0.375
2641,-1.170,-0.385
2642,-1.175,-0.380
2643,-1.170,-0.405
2644,-1.180,-0.410
2645,-1.190,-0.410
2646,-1.185,-0.410
2647,-1.180,-0.420
2648,-1.175,-0.410
2649,-1.175,-0.410
2650,-1.155,-0.395
2651,-1.145,-0.395
2652,-1.130,-0.385
2653,-1.115,-0.395
2654,-1.120,-0.395
2655,-1.135,-0.415
2656,-1.135,-0.425
2657,-1.145,-0.410
2658,-1.140,-0.440
2659,-1.135,-0.445
2660,-1.145,-0.425
2661,-1.130,-0.400
2662,-1.130,-0.415
2663,-1.125,-0.375
2664,-1.115,-0.370
2665,-1.105,-0.390
2666,-1.115,-0.405
2667,-1.095,-0.420
2668,-1.095,-0.425
2669,-1.110,-0.420
2670,-1.115,-0.430
2671,-1.110,-0.440
2672,-1.115,-0.445
2673,-1.100,-0.440
2674,-1.120,-0.430
2675,-1.095,-0.415
2676,-1.080,-0.400
2677,-1.085,-0.405
2678,-1.080,-0.430
2679,-1.080,-0.430
2680,-1.075,-0.450
2681,-1.085,-0.460
2682,-1.100,-0.465
2683,-1.105,-0.470
2684,-1.090,-0.470
2685,-1.100,-0.455
2686,-1.080,-0.455
2687,-1.075,-0.435
2688,-1.060,-0.435
2689,-1.050,-0.445
2690,-1.035,-0.450
2691,-1.045,-0.430
2692,-1.055,-0.450
2693,-1.060,-0.470
2694,-1.070,-0.490
2695,-1.065,-0.475
2696,-1.080,-0.475
2697,-1.080,-0.465
2698,-1.060,-0.465
2699,-1.045,-0.450
2700,-1.035,-0.460
2701,-1.040,-0.450
2702,-1.040,-0.455
2703,-1.040,-0.460
2704,-1.045,-0.470
2705,-1.060,-0.470
2706,-1.050,-0.475
2707,-1.045,-0.485
2708,-1.045,-0.480
2709,-1.050,-0.475
2710,-1.030,-0.480
2711,-1.035,-0.450
2712,-1.015,-0.455
2713,-1.015,-0.450
2714,-1.020,-0.470
2715,-1.025,-0.475
2716,-1.020,-0.490
2717,-1.030,-0.485
2718,-1.030,-0.500
2719,-1.020,-0.515
2720,-1.025,-0.505
2721,-1.035,-0.510
2722,-1.015,-0.490
2723,-1.010,-0.475
2724,-1.005,-0.475
2725,-0.995,-0.470
2726,-1.000,-0.490
2727,-1.010,-0.475
2728,-1.010,-0.480
2729,-1.015,-0.490
2730,-1.025,-0.490
2731,-1.030,-0.500
2732,-1.025,-0.490
2733,-1.015,-0.485
2734,-1.010,-0.475
2735,-0.980,-0.475
2736,-0.975,-0.465
2737,-0.960,-0.465
2738,-0.985,-0.480
2739,-0.985,-0.490
2740,-1.005,-0.500
2741,-0.995,-0.520
2742,-1.010,-0.520
2743,-1.030,-0.520
2744,-1.005,-0.525
2745,-1.010,-0.515
2746,-0.995,-0.495
2747,-0.975,-0.475
2748,-0.965,-0.485
2749,-0.960,-0.475
2750,-0.955,-0.480
2751,-0.970,-0.485
2752,-0.990,-0.495
2753,-0.985,-0.500
2754,-1.005,-0.495
2755,-0.985,-0.520
2756,-0.985,-0.510
2757,-0.970,-0.505
2758,-0.980,-0.490
2759,-0.955,-0.490
2760,-0.950,-0.480
2761,-0.950,-0.495
2762,-0.960,-0.505
2763,-0.955,-0.505
2764,-0.980,-0.515
2765,-0.980,-0.520
2766,-0.985,-0.530
2767,-0.985,-0.540
2768,-0.990,-0.525
2769,-0.970,-0.505
2770,-0.960,-0.500
2771,-0.960,-0.500
2772,-0.945,-0.470
2773,-0.950,-0.480
2774,-0.950,-0.485
2775,-0.950,-0.480
2776,-0.960,-0.510
2777,-0.965,-0.515
2778,-0.990,-0.515
2779,-0.975,-0.520
2780,-0.970,-0.530
2781,-0.960,-0.520
2782,-0.960,-0.515
2783,-0.965,-0.485
2784,-0.930,-0.475
2785,-0.945,-0.495
2786,-0.950,-0.510
2787,-0.955,-0.510
2788,-0.965,-0.515
2789,-0.965,-0.535
2790,-0.975,-0.540
2791,-0.975,-0.525
2792,-0.955,-0.525
2793,-0.955,-0.515
2794,-0.940,-0.510
2795,-0.955,-0.470
2796,-0.950,-0.495
2797,-0.950,-0.480
2798,-0.945,-0.510
2799,-0.950,-0.500
2800,-0.955,-0.515
2801,-0.960,-0.530
2802,-0.965,-0.535
2803,-0.970,-0.535
2804,-0.960,-0.535
2805,-0.960,-0.520
2806,-0.955,-0.520
2807,-0.935,-0.510
2808,-0.945,-0.505
2809,-0.935,-0.515
2810,-0.925,-0.510
2811,-0.930,-0.510
2812,-0.935,-0.510
2813,-0.945,-0.510
2814,-0.950,-0.525
2815,-0.965,-0.530
2816,-0.975,-0.525
2817,-0.950,-0.505
2818,-0.935,-0.505
2819,-0.950,-0.485
2820,-0.925,-0.495
2821,-0.915,-0.485
2822,-0.925,-0.500
2823,-0.925,-0.505
2824,-0.930,-0.500
2825,-0.930,-0.525
2826,-0.935,-0.520
2827,-0.945,-0.550
2828,-0.935,-0.550
2829,-0.935,-0.530
2830,-0.940,-0.520
2831,-0.920,-0.490
2832,-0.905,-0.495
2833,-0.895,-0.505
2834,-0.905,-0.510
2835,-0.905,-0.515
2836,-0.910,-0.515
2837,-0.920,-0.530
2838,-0.935,-0.525
2839,-0.960,-0.540
2840,-0.955,-0.525
2841,-0.925,-0.515
2842,-0.920,-0.520
2843,-0.920,-0.515
2844,-0.915,-0.515
2845,-0.905,-0.510
2846,-0.885,-0.520
2847,-0.900,-0.515
2848,-0.895,-0.530
2849,-0.905,-0.550
2850,-0.920,-0.540
2851,-0.915,-0.565
2852,-0.930,-0.550
2853,-0.920,-0.545
2854,-0.920,-0.525
2855,-0.920,-0.515
2856,-0.915,-0.515
2857,-0.885,-0.515
2858,-0.885,-0.515
2859,-0.885,-0.520
2860,-0.910,-0.515
2861,-0.925,-0.525
2862,-0.935,-0.515
2863,-0.915,-0.520
2864,-0.905,-0.540
2865,-0.905,-0.510
2866,-0.895,-0.515
2867,-0.900,-0.505
2868,-0.880,-0.500
2869,-0.885,-0.505
2870,-0.890,-0.510
2871,-0.870,-0.515
2872,-0.890,-0.530
2873,-0.905,-0.545
2874,-0.910,-0.540
2875,-0.930,-0.565
2876,-0.930,-0.545
2877,-0.925,-0.540
2878,-0.895,-0.535
2879,-0.890,-0.520
2880,-0.870,-0.495
2881,-0.865,-0.510
2882,-0.870,-0.500
2883,-0.875,-0.510
2884,-0.875,-0.520
2885,-0.885,-0.530
2886,-0.890,-0.530
2887,-0.895,-0.545
2888,-0.885,-0.530
2889,-0.875,-0.515
2890,-0.850,-0.500
2891,-0.825,-0.505
2892,-0.810,-0.475
2893,-0.775,-0.475
2894,-0.775,-0.480
2895,-0.765,-0.470
2896,-0.780,-0.460
2897,-0.775,-0.470
2898,-0.745,-0.475
2899,-0.720,-0.465
2900,-0.690,-0.455
2901,-0.655,-0.445
2902,-0.605,-0.425
2903,-0.555,-0.425
2904,-0.520,-0.415
2905,-0.520,-0.435
2906,-0.520,-0.470
2907,-0.545,-0.510
2908,-0.545,-0.525
2909,-0.580,-0.545
2910,-0.575,-0.560
2911,-0.575,-0.560
2912,-0.575,-0.555
2913,-0.585,-0.555
2914,-0.605,-0.560
2915,-0.645,-0.550
2916,-0.685,-0.520
2917,-0.745,-0.535
2918,-0.815,-0.545
2919,-0.840,-0.555
2920,-0.880,-0.550
2921,-0.890,-0.565
2922,-0.910,-0.555
2923,-0.905,-0.570
2924,-0.900,-0.575
2925,-0.895,-0.570
2926,-0.895,-0.565
2927,-0.890,-0.550
2928,-0.880,-0.540
2929,-0.885,-0.540
2930,-0.885,-0.550
2931,-0.890,-0.560
2932,-0.895,-0.560
2933,-0.915,-0.590
2934,-0.910,-0.580
2935,-0.920,-0.580
2936,-0.910,-0.585
2937,-0.905,-0.570
2938,-0.885,-0.550
2939,-0.900,-0.555
2940,-0.905,-0.550
2941,-0.885,-0.555
2942,-0.895,-0.555
2943,-0.935,-0.550
2944,-0.965,-0.550
2945,-0.980,-0.530
2946,-0.950,-0.485
2947,-0.875,-0.420
2948,-0.735,-0.380
2949,-0.525,-0.345
2950,-0.260,-0.370
2951,0.070,-0.425
2952,0.435,-0.520
2953,0.795,-0.680
2954,1.075,-0.885
2955,1.275,-1.105
2956,1.345,-1.300
2957,1.320,-1.445
2958,1.190,-1.525
2959,0.935,-1.540
2960,0.545,-1.510
2961,0.045,-1.450
2962,-0.460,-1.380
2963,-0.840,-1.295
2964,-1.000,-1.200
2965,-0.980,-1.115
2966,-0.860,-1.015
2967,-0.745,-0.925
2968,-0.670,-0.865
2969,-0.665,-0.805
2970,-0.695,-0.740
2971,-0.780,-0.680
2972,-0.830,-0.640
2973,-0.885,-0.600
2974,-0.910,-0.565
2975,-0.930,-0.550
2976,-0.905,-0.535
2977,-0.895,-0.530
2978,-0.890,-0.530
2979,-0.900,-0.530
2980,-0.895,-0.530
2981,-0.910,-0.535
2982,-0.925,-0.530
2983,-0.935,-0.530
2984,-0.950,-0.525
2985,-0.945,-0.500
2986,-0.930,-0.500
2987,-0.935,-0.490
2988,-0.925,-0.485
2989,-0.910,-0.465
2990,-0.915,-0.470
2991,-0.935,-0.480
2992,-0.935,-0.500
2993,-0.935,-0.490
2994,-0.960,-0.490
2995,-0.985,-0.500
2996,-0.960,-0.485
2997,-0.955,-0.485
2998,-0.955,-0.465
2999,-0.935,-0.465
3000,-0.935,-0.460
3001,-0.925,-0.455
3002,-0.925,-0.465
3003,-0.930,-0.450
3004,-0.945,-0.470
3005,-0.955,-0.495
3006,-0.980,-0.495
3007,-0.970,-0.490
3008,-0.955,-0.485
3009,-0.950,-0.475
3010,-0.940,-0.470
3011,-0.935,-0.445
3012,-0.925,-0.425
3013,-0.920,-0.440
3014,-0.930,-0.430
3015,-0.920,-0.435
3016,-0.925,-0.440
3017,-0.945,-0.465
3018,-0.935,-0.460
3019,-0.940,-0.480
3020,-0.935,-0.470
3021,-0.915,-0.465
3022,-0.915,-0.440
3023,-0.895,-0.430
3024,-0.885,-0.425
3025,-0.875,-0.435
3026,-0.870,-0.430
3027,-0.875,-0.415
3028,-0.860,-0.440
3029,-0.865,-0.445
3030,-0.880,-0.445
3031,-0.870,-0.450
3032,-0.850,-0.445
3033,-0.850,-0.415
3034,-0.810,-0.415
3035,-0.810,-0.405
3036,-0.780,-0.385
3037,-0.770,-0.390
3038,-0.770,-0.375
3039,-0.760,-0.375
3040,-0.765,-0.395
3041,-0.750,-0.400
3042,-0.765,-0.415
3043,-0.740,-0.425
3044,-0.730,-0.405
3045,-0.695,-0.395
3046,-0.670,-0.385
3047,-0.650,-0.375
3048,-0.620,-0.360
3049,-0.605,-0.370
3050,-0.595,-0.365
3051,-0.575,-0.395
3052,-0.570,-0.400
3053,-0.565,-0.400
3054,-0.555,-0.405
3055,-0.545,-0.405
3056,-0.535,-0.410
3057,-0.515,-0.395
3058,-0.480,-0.390
3059,-0.475,-0.370
3060,-0.465,-0.360
3061,-0.435,-0.380
3062,-0.425,-0.370
3063,-0.410,-0.385
3064,-0.410,-0.405
3065,-0.420,-0.410
3066,-0.400,-0.415
3067,-0.405,-0.440
3068,-0.380,-0.450
3069,-0.360,-0.425
3070,-0.345,-0.430
3071,-0.340,-0.430
3072,-0.335,-0.420
3073,-0.320,-0.420
3074,-0.330,-0.440
3075,-0.330,-0.450
3076,-0.350,-0.465
3077,-0.370,-0.470
3078,-0.390,-0.475
3079,-0.415,-0.485
3080,-0.445,-0.470
3081,-0.450,-0.460
3082,-0.475,-0.435
3083,-0.485,-0.445
3084,-0.510,-0.430
3085,-0.520,-0.450
3086,-0.545,-0.460
3087,-0.580,-0.470
3088,-0.605,-0.480
3089,-0.630,-0.495
3090,-0.650,-0.510
3091,-0.685,-0.505
3092,-0.710,-0.505
3093,-0.725,-0.490
3094,-0.725,-0.500
3095,-0.730,-0.485
3096,-0.730,-0.460
3097,-0.735,-0.480
3098,-0.755,-0.480
3099,-0.775,-0.485
3100,-0.780,-0.505
3101,-0.795,-0.510
3102,-0.810,-0.515
3103,-0.805,-0.505
3104,-0.800,-0.505
3105,-0.795,-0.485
3106,-0.805,-0.475
3107,-0.800,-0.460
3108,-0.790,-0.455
3109,-0.780,-0.460
3110,-0.795,-0.465
3111,-0.790,-0.455
3112,-0.790,-0.475
3113,-0.800,-0.480
3114,-0.800,-0.500
3115,-0.820,-0.510
3116,-0.815,-0.490
3117,-0.795,-0.485
3118,-0.790,-0.485
3119,-0.780,-0.475
3120,-0.770,-0.480
3121,-0.775,-0.480
3122,-0.775,-0.475
3123,-0.770,-0.485
3124,-0.780,-0.500
3125,-0.790,-0.500
3126,-0.785,-0.500
3127,-0.785,-0.500
3128,-0.790,-0.495
3129,-0.780,-0.490
3130,-0.765,-0.495
3131,-0.770,-0.465
3132,-0.755,-0.470
3133,-0.760,-0.465
3134,-0.775,-0.475
3135,-0.770,-0.485
3136,-0.775,-0.500
3137,-0.785,-0.520
3138,-0.790,-0.530
3139,-0.795,-0.535
3140,-0.805,-0.520
3141,-0.800,-0.515
3142,-0.790,-0.490
3143,-0.780,-0.485
3144,-0.775,-0.460
3145,-0.780,-0.490
3146,-0.785,-0.495
3147,-0.785,-0.495
3148,-0.800,-0.510
3149,-0.810,-0.515
3150,-0.825,-0.495
3151,-0.825,-0.505
3152,-0.840,-0.495
3153,-0.825,-0.495
3154,-0.810,-0.495
3155,-0.800,-0.490
3156,-0.790,-0.485
3157,-0.795,-0.475
3158,-0.800,-0.495
3159,-0.830,-0.485
3160,-0.840,-0.510
3161,-0.850,-0.510
3162,-0.845,-0.520
3163,-0.850,-0.525
3164,-0.845,-0.525
3165,-0.840,-0.525
3166,-0.840,-0.495
3167,-0.825,-0.505
3168,-0.820,-0.495
3169,-0.825,-0.500
3170,-0.830,-0.485
3171,-0.845,-0.495
3172,-0.880,-0.500
3173,-0.880,-0.495
3174,-0.880,-0.515
3175,-0.890,-0.505
3176,-0.890,-0.510
3177,-0.895,-0.495
3178,-0.900,-0.480
3179,-0.890,-0.490
3180,-0.870,-0.475
3181,-0.885,-0.475
3182,-0.870,-0.490
3183,-0.870,-0.485
3184,-0.890,-0.505
3185,-0.895,-0.525
3186,-0.905,-0.530
3187,-0.900,-0.535
3188,-0.910,-0.520
3189,-0.900,-0.540
3190,-0.910,-0.515
3191,-0.890,-0.505
3192,-0.880,-0.480
3193,-0.870,-0.500
3194,-0.880,-0.490
3195,-0.875,-0.500
3196,-0.890,-0.505
3197,-0.885,-0.510
3198,-0.915,-0.510
3199,-0.905,-0.520
3200,-0.925,-0.505
3201,-0.905,-0.505
3202,-0.880,-0.500
3203,-0.880,-0.490
3204,-0.885,-0.485
3205,-0.875,-0.480
3206,-0.880,-0.490
3207,-0.880,-0.490
3208,-0.890,-0.520
3209,-0.900,-0.515
3210,-0.910,-0.530
3211,-0.920,-0.535
3212,-0.920,-0.520
3213,-0.895,-0.510
3214,-0.890,-0.515
3215,-0.885,-0.510
3216,-0.875,-0.500
3217,-0.890,-0.485
3218,-0.890,-0.495
3219,-0.885,-0.505
3220,-0.880,-0.500
3221,-0.895,-0.515
3222,-0.885,-0.515
3223,-0.885,-0.490
3224,-0.895,-0.505
3225,-0.850,-0.495
3226,-0.830,-0.485
3227,-0.805,-0.475
3228,-0.780,-0.460
3229,-0.760,-0.435
3230,-0.750,-0.425
3231,-0.745,-0.430
3232,-0.725,-0.430
3233,-0.720,-0.445
3234,-0.720,-0.430
3235,-0.700,-0.435
3236,-0.690,-0.445
3237,-0.655,-0.400
3238,-0.590,-0.400
3239,-0.560,-0.405
3240,-0.520,-0.390
3241,-0.495,-0.410
3242,-0.515,-0.435
3243,-0.535,-0.455
3244,-0.565,-0.480
3245,-0.570,-0.510
3246,-0.565,-0.525
3247,-0.585,-0.535
3248,-0.575,-0.540
3249,-0.590,-0.530
3250,-0.595,-0.525
3251,-0.605,-0.520
3252,-0.650,-0.520
3253,-0.705,-0.530
3254,-0.755,-0.535
3255,-0.805,-0.525
3256,-0.860,-0.530
3257,-0.895,-0.560
3258,-0.890,-0.550
3259,-0.915,-0.570
3260,-0.900,-0.555
3261,-0.915,-0.575
3262,-0.890,-0.570
3263,-0.905,-0.565
3264,-0.890,-0.540
3265,-0.890,-0.540
3266,-0.910,-0.535
3267,-0.930,-0.560
3268,-0.945,-0.580
3269,-0.940,-0.590
3270,-0.945,-0.595
3271,-0.940,-0.595
3272,-0.945,-0.595
3273,-0.925,-0.585
3274,-0.925,-0.565
3275,-0.915,-0.565
3276,-0.910,-0.555
3277,-0.905,-0.540
3278,-0.910,-0.535
3279,-0.910,-0.555
3280,-0.900,-0.550
3281,-0.930,-0.590
3282,-0.930,-0.565
3283,-0.940,-0.555
3284,-0.970,-0.570
3285,-0.975,-0.525
3286,-0.975,-0.480
3287,-0.930,-0.410
3288,-0.850,-0.355
3289,-0.700,-0.320
3290,-0.500,-0.315
3291,-0.185,-0.365
3292,0.155,-0.495
3293,0.535,-0.670
3294,0.880,-0.885
3295,1.130,-1.125
3296,1.280,-1.350
3297,1.290,-1.530
3298,1.230,-1.625
3299,1.035,-1.640
3300,0.710,-1.595
3301,0.250,-1.545
3302,-0.285,-1.485
3303,-0.715,-1.410
3304,-0.990,-1.335
3305,-1.070,-1.240
3306,-0.975,-1.145
3307,-0.855,-1.050
3308,-0.720,-0.965
3309,-0.665,-0.860
3310,-0.670,-0.780
3311,-0.710,-0.700
3312,-0.770,-0.645
3313,-0.825,-0.605
3314,-0.870,-0.580
3315,-0.890,-0.550
3316,-0.905,-0.555
3317,-0.915,-0.570
3318,-0.920,-0.555
3319,-0.900,-0.555
3320,-0.915,-0.535
3321,-0.920,-0.535
3322,-0.910,-0.525
3323,-0.895,-0.505
3324,-0.895,-0.490
3325,-0.900,-0.505
3326,-0.915,-0.510
3327,-0.920,-0.480
3328,-0.935,-0.505
3329,-0.940,-0.510
3330,-0.935,-0.505
3331,-0.940,-0.510
3332,-0.950,-0.505
3333,-0.950,-0.485
3334,-0.930,-0.490
3335,-0.930,-0.480
3336,-0.905,-0.475
3337,-0.900,-0.460
3338,-0.905,-0.475
3339,-0.925,-0.480
3340,-0.920,-0.490
3341,-0.930,-0.500
3342,-0.945,-0.490
3343,-0.940,-0.505
3344,-0.940,-0.510
3345,-0.935,-0.505
3346,-0.915,-0.480
3347,-0.910,-0.475
3348,-0.910,-0.475
3349,-0.890,-0.475
3350,-0.895,-0.475
3351,-0.900,-0.485
3352,-0.920,-0.475
3353,-0.915,-0.490
3354,-0.925,-0.495
3355,-0.920,-0.495
3356,-0.930,-0.485
3357,-0.940,-0.495
3358,-0.900,-0.465
3359,-0.880,-0.465
3360,-0.865,-0.455
3361,-0.860,-0.465
3362,-0.855,-0.450
3363,-0.855,-0.465
3364,-0.855,-0.485
3365,-0.850,-0.480
3366,-0.860,-0.510
3367,-0.845,-0.495
3368,-0.865,-0.500
3369,-0.840,-0.490
3370,-0.815,-0.490
3371,-0.820,-0.460
3372,-0.800,-0.480
3373,-0.775,-0.455
3374,-0.775,-0.470
3375,-0.755,-0.455
3376,-0.765,-0.470
3377,-0.735,-0.475
3378,-0.740,-0.470
3379,-0.730,-0.475
3380,-0.710,-0.475
3381,-0.705,-0.465
3382,-0.670,-0.450
3383,-0.665,-0.445
3384,-0.620,-0.430
3385,-0.595,-0.435
3386,-0.565,-0.440
3387,-0.560,-0.460
3388,-0.540,-0.455
3389,-0.535,-0.465
3390,-0.535,-0.485
3391,-0.515,-0.490
3392,-0.500,-0.465
3393,-0.475,-0.455
3394,-0.445,-0.445
3395,-0.410,-0.430
3396,-0.380,-0.415
3397,-0.360,-0.425
3398,-0.350,-0.410
3399,-0.330,-0.415
3400,-0.345,-0.430
3401,-0.335,-0.450
3402,-0.320,-0.460
3403,-0.330,-0.470
3404,-0.320,-0.475
3405,-0.325,-0.470
3406,-0.295,-0.480
3407,-0.310,-0.460
3408,-0.300,-0.450
3409,-0.310,-0.470
3410,-0.325,-0.465
3411,-0.345,-0.480
3412,-0.390,-0.495
3413,-0.405,-0.505
3414,-0.435,-0.495
3415,-0.455,-0.505
3416,-0.500,-0.490
3417,-0.515,-0.500
3418,-0.535,-0.475
3419,-0.565,-0.465
3420,-0.595,-0.465
3421,-0.610,-0.450
3422,-0.635,-0.460
3423,-0.670,-0.460
3424,-0.705,-0.490
3425,-0.725,-0.490
3426,-0.750,-0.500
3427,-0.775,-0.510
3428,-0.785,-0.515
3429,-0.795,-0.515
3430,-0.800,-0.485
3431,-0.810,-0.485
3432,-0.800,-0.475
3433,-0.820,-0.495
3434,-0.845,-0.505
3435,-0.840,-0.515
3436,-0.860,-0.515
3437,-0.885,-0.535
3438,-0.870,-0.530
3439,-0.865,-0.535
3440,-0.885,-0.525
3441,-0.880,-0.515
3442,-0.875,-0.505
3443,-0.855,-0.495
3444,-0.860,-0.480
3445,-0.850,-0.490
3446,-0.870,-0.495
3447,-0.860,-0.495
3448,-0.855,-0.515
3449,-0.865,-0.535
3450,-0.865,-0.515
3451,-0.910,-0.520
3452,-0.905,-0.530
3453,-0.895,-0.510
3454,-0.885,-0.510
3455,-0.850,-0.500
3456,-0.855,-0.505
3457,-0.840,-0.515
3458,-0.845,-0.495
3459,-0.830,-0.525
3460,-0.860,-0.510
3461,-0.860,-0.520
3462,-0.875,-0.535
3463,-0.870,-0.520
3464,-0.890,-0.555
3465,-0.875,-0.530
3466,-0.850,-0.510
3467,-0.850,-0.490
3468,-0.835,-0.490
3469,-0.830,-0.510
3470,-0.835,-0.500
3471,-0.840,-0.500
3472,-0.835,-0.525
3473,-0.845,-0.535
3474,-0.860,-0.545
3475,-0.860,-0.550
3476,-0.885,-0.550
3477,-0.865,-0.535
3478,-0.850,-0.530
3479,-0.845,-0.520
3480,-0.845,-0.530
3481,-0.830,-0.530
3482,-0.830,-0.515
3483,-0.840,-0.515
3484,-0.845,-0.545
3485,-0.855,-0.535
3486,-0.865,-0.550
3487,-0.865,-0.550
3488,-0.875,-0.540
3489,-0.870,-0.530
3490,-0.860,-0.540
3491,-0.840,-0.530
3492,-0.840,-0.515
3493,-0.840,-0.515
3494,-0.840,-0.525
3495,-0.860,-0.540
3496,-0.880,-0.535
3497,-0.895,-0.550
3498,-0.895,-0.565
3499,-0.890,-0.570
3500,-0.895,-0.575
3501,-0.900,-0.570
3502,-0.890,-0.555
3503,-0.875,-0.540
3504,-0.865,-0.550
3505,-0.865,-0.530
3506,-0.870,-0.540
3507,-0.895,-0.535
3508,-0.890,-0.555
3509,-0.905,-0.570
3510,-0.905,-0.570
3511,-0.910,-0.550
3512,-0.915,-0.550
3513,-0.905,-0.555
3514,-0.890,-0.545
3515,-0.885,-0.540
3516,-0.875,-0.515
3517,-0.875,-0.510
3518,-0.875,-0.530
3519,-0.905,-0.550
3520,-0.885,-0.555
3521,-0.895,-0.565
3522,-0.910,-0.565
3523,-0.905,-0.570
3524,-0.910,-0.580
3525,-0.910,-0.580
3526,-0.880,-0.555
3527,-0.875,-0.545
3528,-0.880,-0.545
3529,-0.890,-0.520
3530,-0.890,-0.535
3531,-0.910,-0.535
3532,-0.910,-0.545
3533,-0.920,-0.550
3534,-0.905,-0.565
3535,-0.920,-0.560
3536,-0.915,-0.580
3537,-0.915,-0.555
3538,-0.905,-0.550
3539,-0.890,-0.540
3540,-0.875,-0.535
3541,-0.855,-0.525
3542,-0.845,-0.525
3543,-0.835,-0.525
3544,-0.825,-0.520
3545,-0.820,-0.515
3546,-0.815,-0.510
3547,-0.800,-0.520
3548,-0.795,-0.505
3549,-0.770,-0.475
3550,-0.755,-0.465
3551,-0.725,-0.440
3552,-0.715,-0.430
3553,-0.665,-0.410
3554,-0.630,-0.410
3555,-0.585,-0.425
3556,-0.585,-0.445
3557,-0.560,-0.470
3558,-0.570,-0.495
3559,-0.585,-0.530
3560,-0.590,-0.545
3561,-0.590,-0.560
3562,-0.580,-0.550
3563,-0.565,-0.565
3564,-0.575,-0.565
3565,-0.590,-0.550
3566,-0.630,-0.585
3567,-0.695,-0.600
3568,-0.755,-0.590
3569,-0.815,-0.600
3570,-0.875,-0.585
3571,-0.905,-0.585
3572,-0.940,-0.590
3573,-0.950,-0.595
3574,-0.935,-0.575
3575,-0.920,-0.555
3576,-0.930,-0.560
3577,-0.910,-0.565
3578,-0.920,-0.580
3579,-0.930,-0.585
3580,-0.930,-0.595
3581,-0.960,-0.605
3582,-0.955,-0.620
3583,-0.975,-0.630
3584,-0.980,-0.615
3585,-0.960,-0.605
3586,-0.950,-0.595
3587,-0.945,-0.580
3588,-0.945,-0.590
3589,-0.935,-0.585
3590,-0.935,-0.600
3591,-0.940,-0.605
3592,-0.960,-0.585
3593,-0.970,-0.620
3594,-0.960,-0.615
3595,-0.970,-0.600
3596,-0.970,-0.625
3597,-0.985,-0.610
3598,-0.975,-0.580
3599,-0.970,-0.595
3600,-0.980,-0.575
3601,-1.005,-0.570
3602,-1.010,-0.530
3603,-1.000,-0.490
3604,-0.935,-0.465
3605,-0.840,-0.395
3606,-0.685,-0.385
3607,-0.475,-0.400
3608,-0.170,-0.455
3609,0.195,-0.575
3610,0.575,-0.730
3611,0.895,-0.930
3612,1.135,-1.145
3613,1.265,-1.345
3614,1.285,-1.490
3615,1.200,-1.565
3616,0.985,-1.580
3617,0.670,-1.530
3618,0.235,-1.530
3619,-0.310,-1.470
3620,-0.760,-1.390
3621,-1.060,-1.295
3622,-1.140,-1.205
3623,-1.055,-1.120
3624,-0.915,-1.020
3625,-0.775,-0.925
3626,-0.700,-0.870
3627,-0.705,-0.800
3628,-0.770,-0.760
3629,-0.835,-0.710
3630,-0.905,-0.680
3631,-0.940,-0.650
3632,-0.985,-0.620
3633,-0.985,-0.605
3634,-0.965,-0.590
3635,-0.950,-0.595
3636,-0.950,-0.555
3637,-0.940,-0.555
3638,-0.955,-0.550
3639,-0.965,-0.535
3640,-0.970,-0.535
3641,-0.975,-0.535
3642,-0.990,-0.540
3643,-1.010,-0.555
3644,-1.005,-0.545
3645,-1.015,-0.550
3646,-0.990,-0.540
3647,-0.980,-0.525
3648,-0.975,-0.520
3649,-0.960,-0.510
3650,-0.975,-0.505
3651,-0.980,-0.525
3652,-0.980,-0.515
3653,-0.995,-0.540
3654,-1.005,-0.550
3655,-1.010,-0.550
3656,-1.015,-0.535
3657,-1.030,-0.540
3658,-1.005,-0.540
3659,-0.995,-0.520
3660,-0.980,-0.500
3661,-0.975,-0.480
3662,-0.990,-0.495
3663,-0.990,-0.480
3664,-0.990,-0.495
3665,-0.990,-0.510
3666,-1.000,-0.525
3667,-0.995,-0.515
3668,-1.000,-0.510
3669,-1.010,-0.500
3670,-0.995,-0.510
3671,-0.985,-0.495
3672,-0.965,-0.485
3673,-0.970,-0.485
3674,-0.985,-0.475
3675,-0.975,-0.485
3676,-0.970,-0.505
3677,-0.975,-0.505
3678,-0.975,-0.515
3679,-0.970,-0.510
3680,-0.970,-0.510
3681,-0.970,-0.505
3682,-0.960,-0.485
3683,-0.920,-0.485
3684,-0.895,-0.475
3685,-0.880,-0.475
3686,-0.870,-0.475
3687,-0.865,-0.470
3688,-0.865,-0.480
3689,-0.880,-0.490
3690,-0.880,-0.495
3691,-0.865,-0.505
3692,-0.865,-0.500
3693,-0.860,-0.480
3694,-0.830,-0.480
3695,-0.810,-0.455
3696,-0.795,-0.470
3697,-0.755,-0.460
3698,-0.760,-0.455
3699,-0.750,-0.475
3700,-0.740,-0.505
3701,-0.715,-0.500
3702,-0.705,-0.500
3703,-0.680,-0.505
3704,-0.660,-0.505
3705,-0.635,-0.495
3706,-0.610,-0.495
3707,-0.565,-0.470
3708,-0.550,-0.450
3709,-0.530,-0.465
3710,-0.525,-0.470
3711,-0.510,-0.485
3712,-0.485,-0.495
3713,-0.475,-0.515
3714,-0.475,-0.525
3715,-0.460,-0.530
3716,-0.455,-0.525
3717,-0.430,-0.530
3718,-0.410,-0.520
3719,-0.395,-0.520
3720,-0.390,-0.525
3721,-0.360,-0.500
3722,-0.370,-0.520
3723,-0.375,-0.530
3724,-0.380,-0.525
3725,-0.410,-0.530
3726,-0.425,-0.540
3727,-0.460,-0.530
3728,-0.470,-0.535
3729,-0.490,-0.525
3730,-0.495,-0.500
3731,-0.535,-0.495
3732,-0.555,-0.470
3733,-0.570,-0.475
3734,-0.600,-0.485
3735,-0.635,-0.465
3736,-0.680,-0.485
3737,-0.710,-0.485
3738,-0.745,-0.495
3739,-0.780,-0.505
3740,-0.795,-0.490
3741,-0.820,-0.505
3742,-0.835,-0.495
3743,-0.840,-0.485
3744,-0.845,-0.475
3745,-0.870,-0.470
3746,-0.870,-0.485
3747,-0.905,-0.480
3748,-0.920,-0.480
3749,-0.945,-0.500
3750,-0.950,-0.520
3751,-0.955,-0.505
3752,-0.960,-0.495
3753,-0.975,-0.500
3754,-0.970,-0.510
3755,-0.960,-0.490
3756,-0.950,-0.465
3757,-0.955,-0.470
3758,-0.955,-0.475
3759,-0.955,-0.485
3760,-0.965,-0.495
3761,-0.970,-0.505
3762,-0.995,-0.520
3763,-1.005,-0.525
3764,-1.000,-0.520
3765,-0.985,-0.510
3766,-1.000,-0.495
3767,-0.980,-0.495
3768,-0.965,-0.490
3769,-0.955,-0.470
3770,-0.970,-0.475
3771,-0.970,-0.470
3772,-0.960,-0.485
3773,-0.980,-0.495
3774,-0.975,-0.505
3775,-0.980,-0.515
3776,-0.980,-0.500
3777,-0.985,-0.505
3778,-0.965,-0.490
3779,-0.940,-0.490
3780,-0.930,-0.475
3781,-0.915,-0.475
3782,-0.930,-0.485
3783,-0.915,-0.485
3784,-0.930,-0.505
3785,-0.940,-0.510
3786,-0.950,-0.535
3787,-0.945,-0.525
3788,-0.940,-0.520
3789,-0.945,-0.520
3790,-0.940,-0.510
3791,-0.935,-0.495
3792,-0.935,-0.480
3793,-0.910,-0.455
3794,-0.925,-0.475
3795,-0.920,-0.465
3796,-0.935,-0.475
3797,-0.930,-0.490
3798,-0.945,-0.500
3799,-0.940,-0.520
3800,-0.960,-0.510
3801,-0.950,-0.515
3802,-0.950,-0.505
3803,-0.930,-0.480
3804,-0.940,-0.480
3805,-0.935,-0.475
3806,-0.920,-0.485
3807,-0.935,-0.490
3808,-0.945,-0.505
3809,-0.955,-0.515
3810,-0.950,-0.520
3811,-0.965,-0.520
3812,-0.965,-0.520
3813,-0.970,-0.505
3814,-0.960,-0.490
3815,-0.975,-0.500
3816,-0.965,-0.455
3817,-0.960,-0.460
3818,-0.950,-0.480
3819,-0.960,-0.475
3820,-0.970,-0.495
3821,-0.975,-0.505
3822,-0.990,-0.515
3823,-0.995,-0.520
3824,-0.990,-0.515
3825,-0.990,-0.500
3826,-0.980,-0.505
3827,-0.975,-0.490
3828,-0.975,-0.485
3829,-0.955,-0.490
3830,-0.975,-0.490
3831,-0.980,-0.490
3832,-0.985,-0.500
3833,-0.995,-0.510
3834,-0.990,-0.520
3835,-0.985,-0.530
3836,-1.000,-0.510
3837,-0.995,-0.505
3838,-0.990,-0.490
3839,-0.990,-0.475
3840,-0.990,-0.475
3841,-0.990,-0.475
3842,-0.985,-0.480
3843,-0.985,-0.480
3844,-0.995,-0.500
3845,-1.010,-0.515
3846,-1.010,-0.515
3847,-1.005,-0.515
3848,-0.990,-0.515
3849,-0.990,-0.515
3850,-0.970,-0.495
3851,-0.935,-0.470
3852,-0.910,-0.460
3853,-0.885,-0.440
3854,-0.860,-0.415
3855,-0.850,-0.445
3856,-0.850,-0.430
3857,-0.840,-0.435
3858,-0.830,-0.435
3859,-0.810,-0.440
3860,-0.800,-0.430
3861,-0.750,-0.425
3862,-0.710,-0.415
3863,-0.670,-0.410
3864,-0.650,-0.415
3865,-0.640,-0.425
3866,-0.640,-0.460
3867,-0.665,-0.495
3868,-0.680,-0.515
3869,-0.690,-0.535
3870,-0.685,-0.540
3871,-0.710,-0.550
3872,-0.730,-0.555
3873,-0.775,-0.540
3874,-0.815,-0.525
3875,-0.865,-0.520
3876,-0.905,-0.520
3877,-0.935,-0.490
3878,-0.965,-0.480
3879,-0.995,-0.480
3880,-1.005,-0.505
3881,-1.025,-0.520
3882,-1.035,-0.535
3883,-1.045,-0.545
3884,-1.040,-0.545
3885,-1.025,-0.545
3886,-1.035,-0.540
3887,-1.035,-0.530
3888,-1.035,-0.505
3889,-1.020,-0.510
3890,-1.020,-0.510
3891,-1.035,-0.525
3892,-1.050,-0.550
3893,-1.050,-0.565
3894,-1.055,-0.580
3895,-1.075,-0.580
3896,-1.065,-0.580
3897,-1.060,-0.565
3898,-1.060,-0.545
3899,-1.065,-0.535
3900,-1.035,-0.525
3901,-1.045,-0.510
3902,-1.025,-0.515
3903,-1.040,-0.500
3904,-1.045,-0.520
3905,-1.055,-0.530
3906,-1.055,-0.545
3907,-1.055,-0.560
3908,-1.055,-0.540
3909,-1.060,-0.550
3910,-1.070,-0.530
3911,-1.075,-0.510
3912,-1.085,-0.475
3913,-1.060,-0.445
3914,-1.025,-0.385
3915,-0.940,-0.340
3916,-0.780,-0.310
3917,-0.575,-0.330
3918,-0.290,-0.400
3919,0.050,-0.530
3920,0.410,-0.670
3921,0.740,-0.855
3922,0.995,-1.050
3923,1.145,-1.255
3924,1.190,-1.395
3925,1.130,-1.505
3926,0.955,-1.535
3927,0.630,-1.515
3928,0.190,-1.485
3929,-0.340,-1.420
3930,-0.805,-1.370
3931,-1.110,-1.300
3932,-1.200,-1.200
3933,-1.125,-1.105
3934,-0.985,-1.000
3935,-0.830,-0.925
3936,-0.755,-0.845
3937,-0.750,-0.775
3938,-0.805,-0.730
3939,-0.880,-0.685
3940,-0.930,-0.635
3941,-0.985,-0.605
3942,-1.010,-0.595
3943,-1.030,-0.575
3944,-1.020,-0.575
3945,-1.020,-0.555
3946,-1.010,-0.520
3947,-1.005,-0.500
3948,-0.995,-0.475
3949,-1.000,-0.475
3950,-1.000,-0.465
3951,-1.015,-0.470
3952,-1.025,-0.485
3953,-1.040,-0.485
3954,-1.035,-0.500
3955,-1.040,-0.485
3956,-1.030,-0.490
3957,-1.040,-0.480
3958,-1.020,-0.470
3959,-1.020,-0.460
3960,-1.020,-0.450
3961,-1.015,-0.445
3962,-1.010,-0.455
3963,-1.025,-0.460
3964,-1.015,-0.460
3965,-1.035,-0.490
3966,-1.045,-0.490
3967,-1.040,-0.485
3968,-1.055,-0.480
3969,-1.045,-0.480
3970,-1.025,-0.460
3971,-1.025,-0.460
3972,-1.005,-0.445
3973,-0.995,-0.425
3974,-0.985,-0.440
3975,-0.990,-0.440
3976,-1.000,-0.450
3977,-1.010,-0.450
3978,-1.025,-0.470
3979,-1.030,-0.490
3980,-1.030,-0.490
3981,-1.025,-0.470
3982,-1.010,-0.460
3983,-0.980,-0.455
3984,-0.980,-0.440
3985,-0.985,-0.430
3986,-0.970,-0.435
3987,-0.985,-0.445
3988,-0.975,-0.455
3989,-0.980,-0.470
3990,-0.980,-0.475
3991,-0.970,-0.465
3992,-0.970,-0.470
3993,-0.965,-0.450
3994,-0.970,-0.435
3995,-0.945,-0.435
3996,-0.925,-0.425
3997,-0.920,-0.420
3998,-0.915,-0.430
3999,-0.910,-0.420
4000,-0.905,-0.440
4001,-0.920,-0.435
4002,-0.905,-0.440
4003,-0.895,-0.455
4004,-0.880,-0.450
4005,-0.865,-0.445
4006,-0.845,-0.435
4007,-0.830,-0.435
4008,-0.810,-0.420
4009,-0.775,-0.420
4010,-0.765,-0.415
4011,-0.755,-0.410
4012,-0.755,-0.425
4013,-0.745,-0.420
4014,-0.730,-0.455
4015,-0.705,-0.445
4016,-0.700,-0.435
4017,-0.665,-0.410
4018,-0.650,-0.415
4019,-0.620,-0.410
4020,-0.595,-0.405
4021,-0.555,-0.380
4022,-0.535,-0.395
4023,-0.510,-0.410
4024,-0.520,-0.430
4025,-0.485,-0.425
4026,-0.495,-0.440
4027,-0.485,-0.450
4028,-0.465,-0.455
4029,-0.440,-0.435
4030,-0.425,-0.445
4031,-0.400,-0.440
4032,-0.375,-0.430
4033,-0.360,-0.435
4034,-0.340,-0.445
4035,-0.330,-0.445
4036,-0.345,-0.450
4037,-0.345,-0.480
4038,-0.350,-0.485
4039,-0.360,-0.470
4040,-0.360,-0.480
4041,-0.370,-0.470
4042,-0.385,-0.455
4043,-0.400,-0.450
4044,-0.395,-0.445
4045,-0.410,-0.425
4046,-0.450,-0.440
4047,-0.475,-0.440
4048,-0.510,-0.440
4049,-0.535,-0.475
4050,-0.585,-0.460
4051,-0.615,-0.470
4052,-0.645,-0.465
4053,-0.670,-0.455
4054,-0.695,-0.440
4055,-0.715,-0.465
4056,-0.730,-0.450
4057,-0.745,-0.445
4058,-0.770,-0.450
4059,-0.780,-0.460
4060,-0.790,-0.455
4061,-0.825,-0.470
4062,-0.855,-0.490
4063,-0.880,-0.495
4064,-0.895,-0.500
4065,-0.905,-0.470
4066,-0.885,-0.475
4067,-0.885,-0.465
4068,-0.890,-0.470
4069,-0.895,-0.470
4070,-0.905,-0.485
4071,-0.900,-0.470
4072,-0.920,-0.490
4073,-0.925,-0.490
4074,-0.935,-0.510
4075,-0.940,-0.500
4076,-0.935,-0.510
4077,-0.935,-0.510
4078,-0.940,-0.485
4079,-0.950,-0.505
4080,-0.950,-0.500
4081,-0.925,-0.480
4082,-0.930,-0.490
4083,-0.930,-0.500
4084,-0.930,-0.500
4085,-0.935,-0.495
4086,-0.950,-0.500
4087,-0.950,-0.500
4088,-0.940,-0.495
4089,-0.935,-0.500
4090,-0.915,-0.490
4091,-0.910,-0.495
4092,-0.905,-0.470
4093,-0.890,-0.475
4094,-0.885,-0.475
4095,-0.890,-0.485
4096,-0.885,-0.490
4097,-0.900,-0.505
4098,-0.895,-0.510
4099,-0.900,-0.495
4100,-0.905,-0.510
4101,-0.885,-0.505
4102,-0.890,-0.500
4103,-0.880,-0.495
4104,-0.865,-0.490
4105,-0.865,-0.480
4106,-0.865,-0.495
4107,-0.855,-0.495
4108,-0.860,-0.505
4109,-0.865,-0.495
4110,-0.880,-0.500
4111,-0.890,-0.500
4112,-0.885,-0.505
4113,-0.885,-0.505
4114,-0.890,-0.480
4115,-0.860,-0.490
4116,-0.865,-0.480
4117,-0.840,-0.485
4118,-0.840,-0.485
4119,-0.850,-0.495
4120,-0.845,-0.510
4121,-0.860,-0.510
4122,-0.865,-0.530
4123,-0.880,-0.530
4124,-0.885,-0.535
4125,-0.875,-0.520
4126,-0.880,-0.530
4127,-0.875,-0.515
4128,-0.880,-0.510
4129,-0.870,-0.490
4130,-0.860,-0.520
4131,-0.890,-0.510
4132,-0.890,-0.505
4133,-0.895,-0.530
4134,-0.895,-0.520
4135,-0.890,-0.525
4136,-0.905,-0.510
4137,-0.905,-0.525
4138,-0.890,-0.515
4139,-0.890,-0.500
4140,-0.900,-0.500
4141,-0.880,-0.495
4142,-0.890,-0.500
4143,-0.895,-0.500
4144,-0.895,-0.510
4145,-0.895,-0.525
4146,-0.890,-0.520
4147,-0.905,-0.540
4148,-0.920,-0.540
4149,-0.925,-0.540
4150,-0.915,-0.535
4151,-0.900,-0.520
4152,-0.895,-0.505
4153,-0.885,-0.495
4154,-0.885,-0.505
4155,-0.900,-0.505
4156,-0.900,-0.500
4157,-0.920,-0.510
4158,-0.900,-0.525
4159,-0.915,-0.535
4160,-0.940,-0.530
4161,-0.915,-0.535
4162,-0.920,-0.525
4163,-0.905,-0.530
4164,-0.900,-0.505
4165,-0.885,-0.515
4166,-0.890,-0.495
4167,-0.900,-0.525
4168,-0.910,-0.530
4169,-0.900,-0.540
4170,-0.920,-0.540
4171,-0.925,-0.545
4172,-0.925,-0.565
4173,-0.915,-0.550
4174,-0.925,-0.545
4175,-0.905,-0.525
4176,-0.895,-0.495
4177,-0.890,-0.510
4178,-0.885,-0.505
4179,-0.885,-0.505
4180,-0.895,-0.500
4181,-0.895,-0.520
4182,-0.915,-0.505
4183,-0.900,-0.520
4184,-0.890,-0.535
4185,-0.875,-0.510
4186,-0.835,-0.485
4187,-0.810,-0.475
4188,-0.790,-0.460
4189,-0.775,-0.435
4190,-0.765,-0.445
4191,-0.760,-0.435
4192,-0.745,-0.455
4193,-0.735,-0.450
4194,-0.730,-0.465
4195,-0.710,-0.455
4196,-0.680,-0.450
4197,-0.635,-0.430
4198,-0.595,-0.410
4199,-0.565,-0.425
4200,-0.540,-0.445
4201,-0.550,-0.450
4202,-0.545,-0.475
4203,-0.575,-0.510
4204,-0.585,-0.535
4205,-0.595,-0.540
4206,-0.590,-0.555
4207,-0.615,-0.555
4208,-0.635,-0.580
4209,-0.655,-0.560
4210,-0.700,-0.565
4211,-0.750,-0.555
4212,-0.795,-0.555
4213,-0.840,-0.535
4214,-0.890,-0.530
4215,-0.910,-0.560
4216,-0.950,-0.570
4217,-0.955,-0.565
4218,-0.950,-0.595
4219,-0.960,-0.580
4220,-0.965,-0.595
4221,-0.955,-0.570
4222,-0.945,-0.585
4223,-0.945,-0.565
4224,-0.950,-0.540
4225,-0.940,-0.550
4226,-0.935,-0.555
4227,-0.940,-0.570
4228,-0.955,-0.560
4229,-0.970,-0.585
4230,-0.975,-0.585
4231,-0.975,-0.580
4232,-0.975,-0.600
4233,-0.970,-0.605
4234,-0.960,-0.575
4235,-0.960,-0.580
4236,-0.960,-0.560
4237,-0.960,-0.560
4238,-0.940,-0.565
4239,-0.945,-0.580
4240,-0.930,-0.575
4241,-0.965,-0.575
4242,-0.960,-0.585
4243,-0.955,-0.585
4244,-0.970,-0.570
4245,-0.995,-0.550
4246,-1.015,-0.525
4247,-0.990,-0.495
4248,-0.955,-0.430
4249,-0.870,-0.345
4250,-0.725,-0.325
4251,-0.495,-0.350
4252,-0.215,-0.400
4253,0.145,-0.540
4254,0.525,-0.700
4255,0.840,-0.935
4256,1.095,-1.185
4257,1.205,-1.395
4258,1.235,-1.550
4259,1.145,-1.650
4260,0.945,-1.670
4261,0.645,-1.615
4262,0.150,-1.565
4263,-0.365,-1.485
4264,-0.795,-1.400
4265,-1.040,-1.300
4266,-1.070,-1.185
4267,-0.980,-1.085
4268,-0.850,-1.005
4269,-0.760,-0.905
4270,-0.695,-0.815
4271,-0.715,-0.750
4272,-0.770,-0.670
4273,-0.830,-0.630
4274,-0.875,-0.585
4275,-0.925,-0.560
4276,-0.940,-0.575
4277,-0.940,-0.570
4278,-0.950,-0.565
4279,-0.955,-0.555
4280,-0.955,-0.560
4281,-0.955,-0.530
4282,-0.965,-0.515
4283,-0.955,-0.515
4284,-0.955,-0.485
4285,-0.965,-0.490
4286,-0.970,-0.465
4287,-0.985,-0.470
4288,-0.980,-0.470
4289,-0.990,-0.475
4290,-0.975,-0.490
4291,-0.980,-0.505
4292,-0.980,-0.500
4293,-0.985,-0.505
4294,-0.975,-0.480
4295,-0.985,-0.470
4296,-0.960,-0.465
4297,-0.945,-0.445
4298,-0.950,-0.450
4299,-0.975,-0.460
4300,-0.980,-0.465
4301,-0.975,-0.480
4302,-0.980,-0.490
4303,-0.985,-0.495
4304,-0.995,-0.485
4305,-0.975,-0.490
4306,-0.990,-0.475
4307,-0.965,-0.465
4308,-0.960,-0.450
4309,-0.945,-0.435
4310,-0.945,-0.430
4311,-0.960,-0.430
4312,-0.950,-0.435
4313,-0.955,-0.445
4314,-0.960,-0.445
4315,-0.965,-0.460
4316,-0.970,-0.470
4317,-0.950,-0.445
4318,-0.955,-0.455
4319,-0.935,-0.430
4320,-0.930,-0.425
4321,-0.910,-0.430
4322,-0.895,-0.420
4323,-0.905,-0.445
4324,-0.925,-0.435
4325,-0.910,-0.445
4326,-0.920,-0.465
4327,-0.910,-0.445
4328,-0.900,-0.455
4329,-0.910,-0.455
4330,-0.875,-0.450
4331,-0.855,-0.410
4332,-0.830,-0.395
4333,-0.810,-0.385
4334,-0.790,-0.405
4335,-0.780,-0.395
4336,-0.775,-0.420
4337,-0.795,-0.420
4338,-0.790,-0.430
4339,-0.760,-0.430
4340,-0.740,-0.450
4341,-0.735,-0.435
4342,-0.720,-0.425
4343,-0.690,-0.420
4344,-0.665,-0.400
4345,-0.615,-0.390
4346,-0.605,-0.390
4347,-0.605,-0.415
4348,-0.580,-0.415
4349,-0.570,-0.430
4350,-0.545,-0.430
4351,-0.540,-0.445
4352,-0.510,-0.445
4353,-0.505,-0.440
4354,-0.470,-0.420
4355,-0.425,-0.410
4356,-0.405,-0.420
4357,-0.365,-0.405
4358,-0.365,-0.430
4359,-0.355,-0.415
4360,-0.345,-0.445
4361,-0.350,-0.435
4362,-0.340,-0.475
4363,-0.325,-0.465
4364,-0.340,-0.470
4365,-0.335,-0.480
4366,-0.315,-0.475
4367,-0.295,-0.480
4368,-0.305,-0.465
4369,-0.310,-0.460
4370,-0.330,-0.450
4371,-0.355,-0.460
4372,-0.390,-0.460
4373,-0.425,-0.465
4374,-0.465,-0.465
4375,-0.480,-0.470
4376,-0.515,-0.470
4377,-0.560,-0.455
4378,-0.590,-0.445
4379,-0.620,-0.420
4380,-0.635,-0.410
4381,-0.645,-0.415
4382,-0.680,-0.415
4383,-0.705,-0.425
4384,-0.725,-0.460
4385,-0.750,-0.435
4386,-0.790,-0.465
4387,-0.810,-0.455
4388,-0.825,-0.465
4389,-0.840,-0.470
4390,-0.845,-0.470
4391,-0.845,-0.465
4392,-0.840,-0.460
4393,-0.855,-0.450
4394,-0.860,-0.455
4395,-0.880,-0.465
4396,-0.900,-0.465
4397,-0.900,-0.475
4398,-0.910,-0.470
4399,-0.925,-0.475
4400,-0.930,-0.495
4401,-0.940,-0.485
4402,-0.925,-0.470
4403,-0.925,-0.465
4404,-0.905,-0.460
4405,-0.895,-0.435
4406,-0.895,-0.450
4407,-0.905,-0.455
4408,-0.900,-0.455
4409,-0.910,-0.475
4410,-0.925,-0.470
4411,-0.930,-0.485
4412,-0.930,-0.500
4413,-0.930,-0.485
4414,-0.915,-0.490
4415,-0.900,-0.460
4416,-0.890,-0.465
4417,-0.915,-0.460
4418,-0.905,-0.465
4419,-0.875,-0.450
4420,-0.870,-0.465
4421,-0.875,-0.455
4422,-0.885,-0.450
4423,-0.890,-0.455
4424,-0.915,-0.450
4425,-0.905,-0.435
4426,-0.905,-0.415
4427,-0.890,-0.390
4428,-0.880,-0.365
4429,-0.840,-0.330
4430,-0.785,-0.295
4431,-0.700,-0.260
4432,-0.600,-0.240
4433,-0.460,-0.275
4434,-0.310,-0.350
4435,-0.155,-0.495
4436,0.010,-0.655
4437,0.205,-0.835
4438,0.380,-0.975
4439,0.590,-1.125
4440,0.820,-1.275
4441,1.040,-1.445
4442,1.260,-1.650
4443,1.475,-1.855
4444,1.635,-2.030
4445,1.760,-2.185
4446,1.865,-2.280
4447,1.910,-2.330
4448,1.945,-2.330
4449,1.955,-2.325
4450,1.945,-2.305
4451,1.945,-2.290
4452,1.905,-2.250
4453,1.845,-2.210
4454,1.760,-2.195
4455,1.675,-2.120
4456,1.625,-2.040
4457,1.590,-1.950
4458,1.600,-1.865
4459,1.590,-1.780
4460,1.550,-1.680
4461,1.475,-1.590
4462,1.380,-1.495
4463,1.235,-1.390
4464,1.075,-1.300
4465,0.880,-1.215
4466,0.660,-1.140
4467,0.350,-1.065
4468,-0.030,-0.985
4469,-0.405,-0.905
4470,-0.735,-0.805
4471,-0.965,-0.695
4472,-1.080,-0.585
4473,-1.095,-0.485
4474,-1.115,-0.435
4475,-1.075,-0.390
4476,-1.065,-0.370
4477,-1.080,-0.355
4478,-1.095,-0.350
4479,-1.155,-0.360
4480,-1.210,-0.335
4481,-1.250,-0.325
4482,-1.295,-0.335
4483,-1.315,-0.310
4484,-1.330,-0.305
4485,-1.335,-0.290
4486,-1.340,-0.270
4487,-1.345,-0.250
4488,-1.375,-0.230
4489,-1.380,-0.215
4490,-1.375,-0.200
4491,-1.380,-0.195
4492,-1.390,-0.205
4493,-1.410,-0.200
4494,-1.435,-0.200
4495,-1.450,-0.220
4496,-1.465,-0.190
4497,-1.455,-0.180
4498,-1.450,-0.165
4499,-1.440,-0.130
4500,-1.435,-0.115
4501,-1.420,-0.080
4502,-1.415,-0.070
4503,-1.410,-0.070
4504,-1.425,-0.055
4505,-1.420,-0.050
4506,-1.435,-0.055
4507,-1.450,-0.045
4508,-1.435,-0.035
4509,-1.420,-0.015
4510,-1.425,0.020
4511,-1.405,0.035
4512,-1.385,0.035
4513,-1.380,0.020
4514,-1.390,0.015
4515,-1.415,-0.005
4516,-1.445,-0.020
4517,-1.475,0.005
4518,-1.510,-0.005
4519,-1.520,0.005
4520,-1.540,0.035
4521,-1.575,0.050
4522,-1.625,0.070
4523,-1.675,0.110
4524,-1.730,0.130
4525,-1.795,0.150
4526,-1.865,0.180
4527,-1.930,0.200
4528,-1.995,0.195
4529,-2.070,0.215
4530,-2.120,0.250
4531,-2.135,0.265
4532,-2.155,0.270
4533,-2.175,0.290
4534,-2.180,0.335
4535,-2.205,0.375
4536,-2.230,0.390
4537,-2.235,0.395
4538,-2.240,0.420
4539,-2.265,0.425
4540,-2.295,0.430
4541,-2.325,0.435
4542,-2.345,0.410
4543,-2.365,0.400
4544,-2.355,0.395
4545,-2.365,0.395
4546,-2.350,0.395
4547,-2.350,0.390
4548,-2.345,0.395
4549,-2.330,0.385
4550,-2.310,0.370
4551,-2.305,0.335
4552,-2.285,0.325
4553,-2.255,0.285
4554,-2.225,0.265
4555,-2.200,0.215
4556,-2.175,0.180
4557,-2.130,0.175
4558,-2.080,0.160
4559,-2.030,0.115
4560,-1.985,0.105
4561,-1.940,0.075
4562,-1.880,0.045
4563,-1.835,0.015
4564,-1.775,-0.040
4565,-1.725,-0.060
4566,-1.670,-0.120
4567,-1.630,-0.150
4568,-1.600,-0.200
4569,-1.520,-0.225
4570,-1.465,-0.255
4571,-1.425,-0.270
4572,-1.375,-0.290
4573,-1.350,-0.290
4574,-1.310,-0.310
4575,-1.290,-0.320
4576,-1.250,-0.335
4577,-1.250,-0.350
4578,-1.245,-0.360
4579,-1.240,-0.385
4580,-1.225,-0.395
4581,-1.225,-0.410
4582,-1.210,-0.390
4583,-1.195,-0.385
4584,-1.190,-0.385
4585,-1.185,-0.380
4586,-1.180,-0.390
4587,-1.195,-0.385
4588,-1.190,-0.410
4589,-1.205,-0.400
4590,-1.200,-0.425
4591,-1.210,-0.425
4592,-1.220,-0.425
4593,-1.205,-0.430
4594,-1.205,-0.425
4595,-1.210,-0.400
4596,-1.210,-0.390
4597,-1.175,-0.370
4598,-1.175,-0.365
4599,-1.175,-0.380
4600,-1.190,-0.380
4601,-1.200,-0.395
4602,-1.205,-0.400
4603,-1.215,-0.415
4604,-1.210,-0.420
4605,-1.180,-0.410
4606,-1.185,-0.400
4607,-1.170,-0.405
4608,-1.160,-0.385
4609,-1.140,-0.390
4610,-1.135,-0.395
4611,-1.140,-0.390
4612,-1.160,-0.400
4613,-1.160,-0.420
4614,-1.160,-0.415
4615,-1.160,-0.440
4616,-1.165,-0.440
4617,-1.140,-0.435
4618,-1.135,-0.415
4619,-1.135,-0.410
4620,-1.115,-0.400
4621,-1.120,-0.385
4622,-1.100,-0.415
4623,-1.090,-0.410
4624,-1.105,-0.415
4625,-1.105,-0.435
4626,-1.110,-0.440
4627,-1.115,-0.440
4628,-1.120,-0.450
4629,-1.120,-0.440
4630,-1.115,-0.435
4631,-1.085,-0.435
4632,-1.090,-0.425
4633,-1.075,-0.435
4634,-1.085,-0.430
4635,-1.080,-0.430
4636,-1.090,-0.445
4637,-1.085,-0.455
4638,-1.100,-0.470
4639,-1.100,-0.455
4640,-1.110,-0.455
4641,-1.100,-0.465
4642,-1.080,-0.440
4643,-1.070,-0.435
4644,-1.060,-0.420
4645,-1.060,-0.415
4646,-1.065,-0.405
4647,-1.065,-0.435
4648,-1.070,-0.435
4649,-1.085,-0.450
4650,-1.095,-0.455
4651,-1.090,-0.465
4652,-1.085,-0.465
4653,-1.080,-0.470
4654,-1.075,-0.465
4655,-1.055,-0.450
4656,-1.060,-0.425
4657,-1.050,-0.440
4658,-1.045,-0.450
4659,-1.045,-0.450
4660,-1.060,-0.450
4661,-1.055,-0.475
4662,-1.065,-0.480
4663,-1.075,-0.490
4664,-1.075,-0.480
4665,-1.055,-0.495
4666,-1.045,-0.475
4667,-1.045,-0.475
4668,-1.050,-0.460
4669,-1.040,-0.450
4670,-1.035,-0.465
4671,-1.020,-0.450
4672,-1.030,-0.460
4673,-1.030,-0.490
4674,-1.040,-0.490
4675,-1.050,-0.495
4676,-1.045,-0.500
4677,-1.045,-0.490
4678,-1.030,-0.500
4679,-1.025,-0.485
4680,-1.030,-0.475
4681,-1.020,-0.460
4682,-1.000,-0.440
4683,-1.020,-0.445
4684,-1.025,-0.475
4685,-1.035,-0.470
4686,-1.035,-0.485
4687,-1.050,-0.495
4688,-1.040,-0.495
4689,-1.040,-0.500
4690,-1.040,-0.495
4691,-1.015,-0.480
4692,-1.010,-0.480
4693,-0.995,-0.475
4694,-0.980,-0.465
4695,-0.995,-0.480
4696,-1.005,-0.490
4697,-1.010,-0.505
4698,-1.030,-0.520
4699,-1.035,-0.510
4700,-1.030,-0.515
4701,-1.030,-0.510
4702,-1.020,-0.495
4703,-1.025,-0.495
4704,-0.995,-0.465
4705,-0.995,-0.465
4706,-0.990,-0.475
4707,-0.980,-0.460
4708,-0.980,-0.475
4709,-1.000,-0.500
4710,-1.015,-0.495
4711,-1.025,-0.500
4712,-1.040,-0.525
4713,-1.025,-0.500
4714,-1.010,-0.500
4715,-1.005,-0.480
4716,-1.000,-0.485
4717,-0.965,-0.480
4718,-0.970,-0.485
4719,-0.965,-0.485
4720,-0.985,-0.495
4721,-1.000,-0.500
4722,-1.000,-0.500
4723,-0.985,-0.525
4724,-0.990,-0.520
4725,-0.990,-0.510
4726,-0.980,-0.490
4727,-0.965,-0.500
4728,-0.960,-0.470
4729,-0.960,-0.480
4730,-0.950,-0.495
4731,-0.965,-0.470
4732,-0.960,-0.475
4733,-0.960,-0.500
4734,-0.970,-0.495
4735,-0.980,-0.505
4736,-0.980,-0.500
4737,-0.975,-0.525
4738,-0.980,-0.510
4739,-0.975,-0.510
4740,-0.950,-0.490
4741,-0.950,-0.490
4742,-0.940,-0.480
4743,-0.945,-0.470
4744,-0.955,-0.490
4745,-0.955,-0.485
4746,-0.965,-0.485
4747,-0.970,-0.485
4748,-0.965,-0.510
4749,-0.970,-0.505
4750,-0.950,-0.480
4751,-0.925,-0.485
4752,-0.940,-0.485
4753,-0.935,-0.475
4754,-0.930,-0.470
4755,-0.935,-0.460
4756,-0.945,-0.485
4757,-0.960,-0.500
4758,-0.945,-0.510
4759,-0.960,-0.525
4760,-0.970,-0.520
4761,-0.965,-0.510
4762,-0.950,-0.510
4763,-0.940,-0.500
4764,-0.935,-0.465
4765,-0.915,-0.485
4766,-0.910,-0.470
4767,-0.925,-0.480
4768,-0.925,-0.475
4769,-0.920,-0.490
4770,-0.920,-0.490
4771,-0.940,-0.500
4772,-0.935,-0.500
4773,-0.940,-0.495
4774,-0.925,-0.485
4775,-0.920,-0.485
4776,-0.935,-0.495
4777,-0.920,-0.475
4778,-0.900,-0.485
4779,-0.905,-0.495
4780,-0.910,-0.485
4781,-0.915,-0.510
4782,-0.920,-0.505
4783,-0.925,-0.530
4784,-0.920,-0.525
4785,-0.920,-0.515
4786,-0.930,-0.505
4787,-0.915,-0.490
4788,-0.905,-0.485
4789,-0.900,-0.475
4790,-0.890,-0.475
4791,-0.905,-0.460
4792,-0.880,-0.475
4793,-0.880,-0.490
4794,-0.900,-0.495
4795,-0.905,-0.525
4796,-0.910,-0.515
4797,-0.920,-0.520
4798,-0.910,-0.525
4799,-0.900,-0.500
4800,-0.890,-0.495
4801,-0.890,-0.485
4802,-0.890,-0.500
4803,-0.870,-0.495
4804,-0.895,-0.490
4805,-0.900,-0.505
4806,-0.895,-0.525
4807,-0.905,-0.530
4808,-0.910,-0.525
4809,-0.905,-0.515
4810,-0.910,-0.510
4811,-0.900,-0.480
4812,-0.895,-0.485
4813,-0.890,-0.465
4814,-0.860,-0.465
4815,-0.875,-0.465
4816,-0.875,-0.475
4817,-0.890,-0.485
4818,-0.905,-0.505
4819,-0.890,-0.520
4820,-0.900,-0.495
4821,-0.900,-0.515
4822,-0.895,-0.495
4823,-0.880,-0.485
4824,-0.890,-0.490
4825,-0.870,-0.485
4826,-0.870,-0.465
4827,-0.875,-0.485
4828,-0.875,-0.490
4829,-0.885,-0.500
4830,-0.895,-0.500
4831,-0.895,-0.500
4832,-0.875,-0.515
4833,-0.885,-0.495
4834,-0.885,-0.480
4835,-0.855,-0.465
4836,-0.840,-0.445
4837,-0.840,-0.450
4838,-0.820,-0.445
4839,-0.810,-0.440
4840,-0.805,-0.455
4841,-0.785,-0.450
4842,-0.770,-0.450
4843,-0.755,-0.460
4844,-0.735,-0.440
4845,-0.735,-0.425
4846,-0.730,-0.430
4847,-0.705,-0.405
4848,-0.680,-0.400
4849,-0.640,-0.390
4850,-0.580,-0.385
4851,-0.545,-0.385
4852,-0.510,-0.385
4853,-0.505,-0.420
4854,-0.535,-0.450
4855,-0.555,-0.470
4856,-0.575,-0.490
4857,-0.565,-0.510
4858,-0.555,-0.505
4859,-0.545,-0.490
4860,-0.535,-0.490
4861,-0.530,-0.500
4862,-0.545,-0.490
4863,-0.595,-0.490
4864,-0.660,-0.520
4865,-0.720,-0.520
4866,-0.780,-0.520
4867,-0.820,-0.515
4868,-0.865,-0.530
4869,-0.895,-0.530
4870,-0.885,-0.530
4871,-0.880,-0.530
4872,-0.875,-0.525
4873,-0.855,-0.520
4874,-0.860,-0.530
4875,-0.850,-0.535
4876,-0.865,-0.530
4877,-0.880,-0.540
4878,-0.900,-0.535
4879,-0.895,-0.540
4880,-0.910,-0.550
4881,-0.920,-0.550
4882,-0.890,-0.530
4883,-0.890,-0.540
4884,-0.885,-0.530
4885,-0.870,-0.510
4886,-0.865,-0.520
4887,-0.880,-0.520
4888,-0.890,-0.515
4889,-0.900,-0.540
4890,-0.905,-0.535
4891,-0.900,-0.565
4892,-0.920,-0.545
4893,-0.935,-0.535
4894,-0.960,-0.510
4895,-0.935,-0.475
4896,-0.875,-0.410
4897,-0.785,-0.360
4898,-0.625,-0.315
4899,-0.410,-0.325
4900,-0.125,-0.365
4901,0.200,-0.460
4902,0.560,-0.600
4903,0.880,-0.770
4904,1.165,-0.990
4905,1.315,-1.195
4906,1.370,-1.375
4907,1.330,-1.490
4908,1.210,-1.525
4909,0.960,-1.515
4910,0.605,-1.465
4911,0.125,-1.435
4912,-0.385,-1.385
4913,-0.785,-1.325
4914,-0.980,-1.245
4915,-1.015,-1.155
4916,-0.890,-1.075
4917,-0.765,-0.980
4918,-0.650,-0.900
4919,-0.605,-0.820
4920,-0.645,-0.750
4921,-0.695,-0.685
4922,-0.740,-0.615
4923,-0.825,-0.575
4924,-0.855,-0.545
4925,-0.895,-0.535
4926,-0.905,-0.535
4927,-0.895,-0.545
4928,-0.890,-0.535
4929,-0.895,-0.520
4930,-0.920,-0.515
4931,-0.905,-0.500
4932,-0.895,-0.475
4933,-0.890,-0.470
4934,-0.900,-0.470
4935,-0.900,-0.460
4936,-0.910,-0.460
4937,-0.915,-0.470
4938,-0.920,-0.480
4939,-0.925,-0.485
4940,-0.945,-0.485
4941,-0.940,-0.480
4942,-0.960,-0.470
4943,-0.955,-0.450
4944,-0.935,-0.460
4945,-0.935,-0.445
4946,-0.925,-0.445
4947,-0.925,-0.450
4948,-0.915,-0.445
4949,-0.925,-0.450
4950,-0.945,-0.460
4951,-0.945,-0.480
4952,-0.945,-0.470
4953,-0.940,-0.460
4954,-0.935,-0.450
4955,-0.925,-0.450
4956,-0.920,-0.430
4957,-0.910,-0.420
4958,-0.920,-0.430
4959,-0.905,-0.420
4960,-0.905,-0.420
4961,-0.915,-0.440
4962,-0.935,-0.445
4963,-0.945,-0.460
4964,-0.930,-0.465
4965,-0.940,-0.445
4966,-0.930,-0.425
4967,-0.910,-0.420
4968,-0.900,-0.405
4969,-0.895,-0.400
4970,-0.865,-0.395
4971,-0.870,-0.390
4972,-0.880,-0.380
4973,-0.875,-0.390
4974,-0.890,-0.410
4975,-0.885,-0.410
4976,-0.890,-0.435
4977,-0.880,-0.405
4978,-0.885,-0.395
4979,-0.870,-0.390
4980,-0.845,-0.390
4981,-0.830,-0.370
4982,-0.830,-0.375
4983,-0.835,-0.390
4984,-0.845,-0.390
4985,-0.845,-0.400
4986,-0.820,-0.390
4987,-0.810,-0.410
4988,-0.820,-0.395
4989,-0.825,-0.405
4990,-0.800,-0.375
4991,-0.755,-0.370
4992,-0.740,-0.350
4993,-0.710,-0.335
4994,-0.690,-0.335
4995,-0.680,-0.345
4996,-0.665,-0.340
4997,-0.640,-0.340
4998,-0.650,-0.355
4999,-0.635,-0.370
5000,-0.615,-0.365
5001,-0.615,-0.345
5002,-0.590,-0.345
5003,-0.560,-0.345
5004,-0.535,-0.350
5005,-0.520,-0.340
5006,-0.495,-0.340
5007,-0.485,-0.345
5008,-0.455,-0.355
5009,-0.445,-0.380
5010,-0.445,-0.385
5011,-0.435,-0.395
5012,-0.415,-0.395
5013,-0.410,-0.390
5014,-0.390,-0.375
5015,-0.360,-0.365
5016,-0.345,-0.380
5017,-0.335,-0.370
5018,-0.300,-0.370
5019,-0.295,-0.385
5020,-0.280,-0.375
5021,-0.295,-0.400
5022,-0.300,-0.415
5023,-0.300,-0.415
5024,-0.305,-0.440
5025,-0.325,-0.445
5026,-0.325,-0.430
5027,-0.350,-0.420
5028,-0.350,-0.415
5029,-0.380,-0.415
5030,-0.390,-0.415
5031,-0.410,-0.410
5032,-0.455,-0.425
5033,-0.485,-0.425
5034,-0.510,-0.430
5035,-0.540,-0.435
5036,-0.570,-0.445
5037,-0.605,-0.450
5038,-0.615,-0.425
5039,-0.640,-0.430
5040,-0.640,-0.430
5041,-0.675,-0.420
5042,-0.660,-0.415
5043,-0.680,-0.425
5044,-0.715,-0.430
5045,-0.720,-0.440
5046,-0.745,-0.450
5047,-0.755,-0.480
5048,-0.765,-0.485
5049,-0.785,-0.485
5050,-0.775,-0.485
5051,-0.785,-0.465
5052,-0.795,-0.445
5053,-0.785,-0.445
5054,-0.780,-0.435
5055,-0.785,-0.440
5056,-0.790,-0.455
5057,-0.790,-0.455
5058,-0.790,-0.460
5059,-0.780,-0.455
5060,-0.795,-0.465
5061,-0.805,-0.475
5062,-0.795,-0.450
5063,-0.790,-0.460
5064,-0.785,-0.455
5065,-0.770,-0.450
5066,-0.765,-0.445
5067,-0.775,-0.440
5068,-0.770,-0.440
5069,-0.780,-0.465
5070,-0.785,-0.480
5071,-0.780,-0.485
5072,-0.785,-0.505
5073,-0.780,-0.500
5074,-0.785,-0.495
5075,-0.775,-0.470
5076,-0.755,-0.465
5077,-0.740,-0.460
5078,-0.745,-0.450
5079,-0.740,-0.445
5080,-0.750,-0.440
5081,-0.750,-0.470
5082,-0.760,-0.470
5083,-0.770,-0.480
5084,-0.785,-0.495
5085,-0.775,-0.490
5086,-0.775,-0.480
5087,-0.745,-0.485
5088,-0.740,-0.450
5089,-0.730,-0.455
5090,-0.725,-0.455
5091,-0.720,-0.460
5092,-0.720,-0.475
5093,-0.740,-0.470
5094,-0.775,-0.490
5095,-0.770,-0.495
5096,-0.765,-0.505
5097,-0.780,-0.485
5098,-0.790,-0.505
5099,-0.775,-0.490
5100,-0.765,-0.480
5101,-0.760,-0.465
5102,-0.755,-0.455
5103,-0.760,-0.470
5104,-0.775,-0.490
5105,-0.775,-0.480
5106,-0.800,-0.500
5107,-0.800,-0.495
5108,-0.785,-0.490
5109,-0.810,-0.485
5110,-0.805,-0.490
5111,-0.800,-0.475
5112,-0.800,-0.470
5113,-0.790,-0.455
5114,-0.785,-0.465
5115,-0.785,-0.465
5116,-0.795,-0.470
5117,-0.810,-0.485
5118,-0.820,-0.480
5119,-0.825,-0.485
5120,-0.835,-0.500
5121,-0.850,-0.495
5122,-0.860,-0.500
5123,-0.835,-0.475
5124,-0.825,-0.470
5125,-0.810,-0.450
5126,-0.810,-0.440
5127,-0.805,-0.450
5128,-0.830,-0.455
5129,-0.840,-0.470
5130,-0.845,-0.485
5131,-0.845,-0.500
5132,-0.855,-0.505
5133,-0.865,-0.500
5134,-0.855,-0.500
5135,-0.845,-0.480
5136,-0.840,-0.485
5137,-0.835,-0.480
5138,-0.825,-0.475
5139,-0.830,-0.475
5140,-0.830,-0.480
5141,-0.835,-0.500
5142,-0.840,-0.520
5143,-0.840,-0.505
5144,-0.850,-0.515
5145,-0.850,-0.510
5146,-0.860,-0.495
5147,-0.840,-0.480
5148,-0.850,-0.495
5149,-0.830,-0.455
5150,-0.825,-0.470
5151,-0.840,-0.480
5152,-0.835,-0.475
5153,-0.850,-0.495
5154,-0.855,-0.510
5155,-0.865,-0.510
5156,-0.865,-0.515
5157,-0.860,-0.510
5158,-0.860,-0.510
5159,-0.845,-0.500
5160,-0.835,-0.500
5161,-0.840,-0.490
5162,-0.840,-0.490
5163,-0.835,-0.490
5164,-0.835,-0.500
5165,-0.840,-0.505
5166,-0.850,-0.505
5167,-0.845,-0.515
5168,-0.840,-0.505
5169,-0.830,-0.490
5170,-0.790,-0.475
5171,-0.775,-0.440
5172,-0.745,-0.435
5173,-0.725,-0.415
5174,-0.710,-0.405
5175,-0.690,-0.410
5176,-0.680,-0.400
5177,-0.675,-0.405
5178,-0.670,-0.410
5179,-0.635,-0.415
5180,-0.585,-0.420
5181,-0.555,-0.415
5182,-0.520,-0.445
5183,-0.500,-0.445
5184,-0.490,-0.450
5185,-0.510,-0.465
5186,-0.510,-0.480
5187,-0.515,-0.495
5188,-0.520,-0.500
5189,-0.530,-0.505
5190,-0.560,-0.520
5191,-0.590,-0.540
5192,-0.635,-0.550
5193,-0.685,-0.550
5194,-0.735,-0.555
5195,-0.780,-0.540
5196,-0.825,-0.515
5197,-0.850,-0.495
5198,-0.845,-0.520
5199,-0.860,-0.510
5200,-0.885,-0.525
5201,-0.900,-0.540
5202,-0.915,-0.565
5203,-0.905,-0.575
5204,-0.890,-0.580
5205,-0.905,-0.580
5206,-0.895,-0.570
5207,-0.900,-0.560
5208,-0.900,-0.555
5209,-0.895,-0.535
5210,-0.900,-0.525
5211,-0.905,-0.530
5212,-0.905,-0.520
5213,-0.915,-0.535
5214,-0.920,-0.545
5215,-0.920,-0.565
5216,-0.935,-0.565
5217,-0.935,-0.565
5218,-0.925,-0.555
5219,-0.920,-0.530
5220,-0.900,-0.530
5221,-0.890,-0.530
5222,-0.885,-0.525
5223,-0.875,-0.545
5224,-0.875,-0.530
5225,-0.880,-0.550
5226,-0.910,-0.545
5227,-0.930,-0.560
5228,-0.970,-0.540
5229,-0.990,-0.490
5230,-0.950,-0.460
5231,-0.860,-0.375
5232,-0.695,-0.320
5233,-0.465,-0.310
5234,-0.160,-0.350
5235,0.205,-0.455
5236,0.590,-0.610
5237,0.945,-0.830
5238,1.175,-1.075
5239,1.310,-1.305
5240,1.315,-1.470
5241,1.195,-1.560
5242,0.965,-1.590
5243,0.585,-1.525
5244,0.075,-1.450
5245,-0.435,-1.375
5246,-0.825,-1.300
5247,-1.025,-1.210
5248,-1.040,-1.115
5249,-0.920,-1.030
5250,-0.790,-0.950
5251,-0.700,-0.900
5252,-0.660,-0.840
5253,-0.680,-0.785
5254,-0.740,-0.710
5255,-0.810,-0.630
5256,-0.850,-0.585
5257,-0.890,-0.535
5258,-0.890,-0.510
5259,-0.895,-0.510
5260,-0.885,-0.505
5261,-0.890,-0.515
5262,-0.900,-0.505
5263,-0.905,-0.520
5264,-0.920,-0.510
5265,-0.950,-0.500
5266,-0.925,-0.490
5267,-0.915,-0.470
5268,-0.905,-0.470
5269,-0.915,-0.450
5270,-0.915,-0.460
5271,-0.905,-0.460
5272,-0.900,-0.460
5273,-0.925,-0.465
5274,-0.935,-0.450
5275,-0.935,-0.480
5276,-0.935,-0.465
5277,-0.940,-0.470
5278,-0.945,-0.445
5279,-0.920,-0.445
5280,-0.915,-0.435
5281,-0.920,-0.425
5282,-0.930,-0.415
5283,-0.920,-0.425
5284,-0.940,-0.420
5285,-0.935,-0.435
5286,-0.950,-0.445
5287,-0.960,-0.460
5288,-0.970,-0.465
5289,-0.955,-0.450
5290,-0.950,-0.455
5291,-0.935,-0.445
5292,-0.935,-0.440
5293,-0.925,-0.420
5294,-0.900,-0.420
5295,-0.905,-0.420
5296,-0.895,-0.415
5297,-0.920,-0.440
5298,-0.925,-0.430
5299,-0.930,-0.435
5300,-0.930,-0.425
5301,-0.930,-0.430
5302,-0.915,-0.425
5303,-0.910,-0.415
5304,-0.900,-0.410
5305,-0.890,-0.405
5306,-0.860,-0.405
5307,-0.855,-0.405
5308,-0.855,-0.400
5309,-0.845,-0.420
5310,-0.855,-0.425
5311,-0.860,-0.425
5312,-0.840,-0.440
5313,-0.855,-0.430
5314,-0.830,-0.430
5315,-0.815,-0.420
5316,-0.785,-0.415
5317,-0.780,-0.405
5318,-0.755,-0.395
5319,-0.750,-0.395
5320,-0.745,-0.395
5321,-0.710,-0.400
5322,-0.715,-0.405
5323,-0.700,-0.420
5324,-0.685,-0.435
5325,-0.655,-0.425
5326,-0.655,-0.425
5327,-0.635,-0.420
5328,-0.605,-0.400
5329,-0.575,-0.410
5330,-0.535,-0.390
5331,-0.495,-0.400
5332,-0.495,-0.415
5333,-0.485,-0.430
5334,-0.465,-0.440
5335,-0.450,-0.455
5336,-0.450,-0.455
5337,-0.450,-0.455
5338,-0.435,-0.465
5339,-0.395,-0.450
5340,-0.375,-0.440
5341,-0.345,-0.425
5342,-0.350,-0.425
5343,-0.350,-0.435
5344,-0.335,-0.435
5345,-0.345,-0.450
5346,-0.330,-0.455
5347,-0.325,-0.485
5348,-0.330,-0.495
5349,-0.335,-0.490
5350,-0.355,-0.485
5351,-0.345,-0.480
5352,-0.350,-0.460
5353,-0.360,-0.455
5354,-0.380,-0.455
5355,-0.395,-0.440
5356,-0.425,-0.445
5357,-0.455,-0.460
5358,-0.495,-0.470
5359,-0.550,-0.480
5360,-0.585,-0.455
5361,-0.620,-0.455
5362,-0.645,-0.445
5363,-0.665,-0.425
5364,-0.710,-0.425
5365,-0.710,-0.415
5366,-0.715,-0.415
5367,-0.730,-0.405
5368,-0.770,-0.410
5369,-0.790,-0.440
5370,-0.815,-0.440
5371,-0.845,-0.455
5372,-0.865,-0.440
5373,-0.885,-0.455
5374,-0.885,-0.455
5375,-0.895,-0.460
5376,-0.890,-0.440
5377,-0.890,-0.445
5378,-0.880,-0.435
5379,-0.895,-0.430
5380,-0.905,-0.445
5381,-0.905,-0.445
5382,-0.915,-0.470
5383,-0.920,-0.470
5384,-0.930,-0.470
5385,-0.935,-0.465
5386,-0.945,-0.465
5387,-0.940,-0.450
5388,-0.925,-0.440
5389,-0.925,-0.445
5390,-0.900,-0.435
5391,-0.925,-0.430
5392,-0.930,-0.435
5393,-0.910,-0.440
5394,-0.910,-0.455
5395,-0.915,-0.460
5396,-0.920,-0.475
5397,-0.915,-0.465
5398,-0.915,-0.470
5399,-0.935,-0.470
5400,-0.900,-0.465
5401,-0.895,-0.445
5402,-0.885,-0.440
5403,-0.885,-0.445
5404,-0.880,-0.445
5405,-0.905,-0.440
5406,-0.905,-0.450
5407,-0.895,-0.455
5408,-0.905,-0.455
5409,-0.905,-0.450
5410,-0.885,-0.455
5411,-0.865,-0.450
5412,-0.865,-0.440
5413,-0.860,-0.430
5414,-0.835,-0.430
5415,-0.845,-0.425
5416,-0.840,-0.445
5417,-0.855,-0.445
5418,-0.875,-0.455
5419,-0.895,-0.460
5420,-0.880,-0.475
5421,-0.895,-0.475
5422,-0.905,-0.465
5423,-0.885,-0.455
5424,-0.870,-0.455
5425,-0.870,-0.445
5426,-0.880,-0.430
5427,-0.860,-0.440
5428,-0.875,-0.440
5429,-0.880,-0.460
5430,-0.870,-0.455
5431,-0.885,-0.455
5432,-0.890,-0.465
5433,-0.890,-0.470
5434,-0.905,-0.455
5435,-0.885,-0.450
5436,-0.875,-0.450
5437,-0.895,-0.455
5438,-0.875,-0.435
5439,-0.870,-0.445
5440,-0.875,-0.445
5441,-0.885,-0.450
5442,-0.905,-0.460
5443,-0.920,-0.475
5444,-0.940,-0.475
5445,-0.925,-0.480
5446,-0.920,-0.470
5447,-0.920,-0.460
5448,-0.905,-0.460
5449,-0.900,-0.440
5450,-0.880,-0.430
5451,-0.885,-0.435
5452,-0.895,-0.440
5453,-0.900,-0.450
5454,-0.905,-0.445
5455,-0.915,-0.460
5456,-0.925,-0.485
5457,-0.930,-0.495
5458,-0.930,-0.475
5459,-0.935,-0.480
5460,-0.925,-0.455
5461,-0.915,-0.470
5462,-0.905,-0.450
5463,-0.900,-0.445
5464,-0.895,-0.465
5465,-0.915,-0.475
5466,-0.925,-0.475
5467,-0.920,-0.505
5468,-0.935,-0.495
5469,-0.950,-0.495
5470,-0.955,-0.485
5471,-0.935,-0.465
5472,-0.920,-0.455
5473,-0.910,-0.445
5474,-0.895,-0.440
5475,-0.890,-0.435
5476,-0.890,-0.430
5477,-0.885,-0.445
5478,-0.880,-0.455
5479,-0.870,-0.460
5480,-0.865,-0.475
5481,-0.860,-0.460
5482,-0.830,-0.430
5483,-0.825,-0.415
5484,-0.805,-0.420
5485,-0.780,-0.385
5486,-0.760,-0.385
5487,-0.760,-0.385
5488,-0.740,-0.410
5489,-0.730,-0.395
5490,-0.705,-0.405
5491,-0.690,-0.395
5492,-0.645,-0.405
5493,-0.620,-0.395
5494,-0.585,-0.395
5495,-0.580,-0.400
5496,-0.575,-0.395
5497,-0.580,-0.420
5498,-0.585,-0.425
5499,-0.580,-0.445
5500,-0.600,-0.465
5501,-0.585,-0.495
5502,-0.605,-0.500
5503,-0.620,-0.510
5504,-0.655,-0.525
5505,-0.705,-0.535
5506,-0.740,-0.520
5507,-0.790,-0.515
5508,-0.830,-0.515
5509,-0.880,-0.490
5510,-0.900,-0.475
5511,-0.915,-0.480
5512,-0.935,-0.495
5513,-0.935,-0.495
5514,-0.940,-0.515
5515,-0.960,-0.525
5516,-0.960,-0.515
5517,-0.955,-0.530
5518,-0.960,-0.525
5519,-0.955,-0.515
5520,-0.955,-0.505
5521,-0.970,-0.495
5522,-0.950,-0.495
5523,-0.965,-0.495
5524,-0.965,-0.500
5525,-0.970,-0.515
5526,-0.980,-0.505
5527,-0.970,-0.520
5528,-0.975,-0.535
5529,-0.965,-0.550
5530,-0.970,-0.535
5531,-0.955,-0.530
5532,-0.935,-0.520
5533,-0.920,-0.505
5534,-0.915,-0.505
5535,-0.935,-0.515
5536,-0.945,-0.510
5537,-0.950,-0.505
5538,-0.985,-0.500
5539,-1.000,-0.515
5540,-1.030,-0.505
5541,-1.015,-0.470
5542,-1.000,-0.435
5543,-0.930,-0.385
5544,-0.805,-0.325
5545,-0.630,-0.290
5546,-0.385,-0.315
5547,-0.080,-0.375
5548,0.270,-0.480
5549,0.635,-0.630
5550,0.935,-0.840
5551,1.155,-1.060
5552,1.235,-1.255
5553,1.230,-1.410
5554,1.110,-1.480
5555,0.850,-1.480
5556,0.440,-1.455
5557,-0.090,-1.395
5558,-0.585,-1.300
5559,-0.930,-1.225
5560,-1.100,-1.135
5561,-1.070,-1.055
5562,-0.950,-0.990
5563,-0.820,-0.920
5564,-0.745,-0.865
5565,-0.735,-0.785
5566,-0.775,-0.720
5567,-0.830,-0.670
5568,-0.870,-0.610
5569,-0.915,-0.555
5570,-0.925,-0.515
5571,-0.930,-0.510
5572,-0.945,-0.520
5573,-0.945,-0.520
5574,-0.955,-0.525
5575,-0.960,-0.525
5576,-0.960,-0.530
5577,-0.965,-0.525
5578,-0.970,-0.515
5579,-0.965,-0.495
5580,-0.945,-0.480
5581,-0.940,-0.455
5582,-0.935,-0.455
5583,-0.935,-0.445
5584,-0.950,-0.455
5585,-0.955,-0.455
5586,-0.965,-0.470
5587,-0.965,-0.465
5588,-0.980,-0.480
5589,-1.000,-0.470
5590,-0.990,-0.485
5591,-0.985,-0.480
5592,-0.965,-0.455
5593,-0.980,-0.455
5594,-0.975,-0.435
5595,-0.985,-0.435
5596,-0.955,-0.435
5597,-0.955,-0.455
5598,-0.960,-0.460
5599,-0.960,-0.465
5600,-0.975,-0.470
5601,-0.960,-0.475
5602,-0.960,-0.465
5603,-0.970,-0.445
5604,-0.935,-0.420
5605,-0.945,-0.410
5606,-0.925,-0.395
5607,-0.920,-0.410
5608,-0.925,-0.415
5609,-0.915,-0.430
5610,-0.920,-0.445
5611,-0.930,-0.430
5612,-0.940,-0.450
5613,-0.955,-0.445
5614,-0.935,-0.440
5615,-0.945,-0.430
5616,-0.905,-0.410
5617,-0.890,-0.410
5618,-0.865,-0.405
5619,-0.855,-0.415
5620,-0.885,-0.415
5621,-0.885,-0.415
5622,-0.895,-0.425
5623,-0.865,-0.430
5624,-0.870,-0.440
5625,-0.860,-0.445
5626,-0.850,-0.430
5627,-0.830,-0.415
5628,-0.820,-0.400
5629,-0.790,-0.380
5630,-0.780,-0.380
5631,-0.765,-0.390
5632,-0.760,-0.395
5633,-0.755,-0.415
5634,-0.745,-0.400
5635,-0.755,-0.410
5636,-0.745,-0.410
5637,-0.725,-0.420
5638,-0.715,-0.405
5639,-0.690,-0.410
5640,-0.655,-0.400
5641,-0.640,-0.395
5642,-0.620,-0.395
5643,-0.585,-0.405
5644,-0.575,-0.415
5645,-0.565,-0.395
5646,-0.540,-0.425
5647,-0.535,-0.435
5648,-0.510,-0.430
5649,-0.505,-0.430
5650,-0.490,-0.430
5651,-0.470,-0.425
5652,-0.425,-0.405
5653,-0.420,-0.395
5654,-0.395,-0.390
5655,-0.380,-0.405
5656,-0.375,-0.420
5657,-0.370,-0.420
5658,-0.380,-0.435
5659,-0.360,-0.425
5660,-0.355,-0.450
5661,-0.345,-0.455
5662,-0.345,-0.460
5663,-0.330,-0.455
5664,-0.315,-0.450
5665,-0.315,-0.440
5666,-0.315,-0.435
5667,-0.325,-0.435
5668,-0.355,-0.445
5669,-0.400,-0.440
5670,-0.425,-0.465
5671,-0.475,-0.445
5672,-0.480,-0.440
5673,-0.520,-0.450
5674,-0.550,-0.435
5675,-0.580,-0.420
5676,-0.610,-0.400
5677,-0.625,-0.405
5678,-0.655,-0.375
5679,-0.675,-0.390
5680,-0.695,-0.410
5681,-0.745,-0.405
5682,-0.765,-0.430
5683,-0.785,-0.450
5684,-0.800,-0.445
5685,-0.825,-0.445
5686,-0.835,-0.445
5687,-0.840,-0.450
5688,-0.860,-0.440
5689,-0.860,-0.430
5690,-0.840,-0.420
5691,-0.845,-0.420
5692,-0.855,-0.450
5693,-0.880,-0.435
5694,-0.890,-0.460
5695,-0.900,-0.465
5696,-0.905,-0.455
5697,-0.895,-0.485
5698,-0.910,-0.445
5699,-0.925,-0.470
5700,-0.905,-0.450
5701,-0.905,-0.445
5702,-0.895,-0.435
5703,-0.895,-0.430
5704,-0.900,-0.440
5705,-0.905,-0.445
5706,-0.905,-0.450
5707,-0.935,-0.470
5708,-0.950,-0.465
5709,-0.940,-0.470
5710,-0.935,-0.475
5711,-0.940,-0.465
5712,-0.920,-0.465
5713,-0.895,-0.450
5714,-0.895,-0.440
5715,-0.885,-0.425
5716,-0.880,-0.435
5717,-0.885,-0.440
5718,-0.895,-0.450
5719,-0.900,-0.465
5720,-0.900,-0.470
5721,-0.890,-0.465
5722,-0.895,-0.475
5723,-0.895,-0.470
5724,-0.880,-0.445
5725,-0.875,-0.445
5726,-0.865,-0.435
5727,-0.850,-0.450
5728,-0.845,-0.455
5729,-0.840,-0.460
5730,-0.855,-0.485
5731,-0.865,-0.485
5732,-0.860,-0.495
5733,-0.855,-0.495
5734,-0.855,-0.490
5735,-0.855,-0.480
5736,-0.840,-0.475
5737,-0.835,-0.455
5738,-0.820,-0.455
5739,-0.825,-0.455
5740,-0.830,-0.450
5741,-0.830,-0.470
5742,-0.845,-0.485
5743,-0.845,-0.485
5744,-0.865,-0.490
5745,-0.860,-0.490
5746,-0.855,-0.475
5747,-0.865,-0.480
5748,-0.845,-0.475
5749,-0.845,-0.475
5750,-0.840,-0.455
5751,-0.845,-0.460
5752,-0.850,-0.475
5753,-0.865,-0.480
5754,-0.875,-0.505
5755,-0.880,-0.510
5756,-0.890,-0.530
5757,-0.910,-0.525
5758,-0.900,-0.535
5759,-0.880,-0.515
5760,-0.880,-0.500
5761,-0.890,-0.485
5762,-0.880,-0.470
5763,-0.860,-0.480
5764,-0.870,-0.470
5765,-0.880,-0.475
5766,-0.885,-0.485
5767,-0.900,-0.485
5768,-0.905,-0.505
5769,-0.915,-0.500
5770,-0.915,-0.490
5771,-0.920,-0.485
5772,-0.905,-0.485
5773,-0.890,-0.475
5774,-0.900,-0.465
5775,-0.900,-0.485
5776,-0.895,-0.475
5777,-0.905,-0.505
5778,-0.900,-0.495
5779,-0.915,-0.510
5780,-0.925,-0.515
5781,-0.935,-0.530
5782,-0.920,-0.520
5783,-0.915,-0.510
5784,-0.910,-0.490
5785,-0.910,-0.480
5786,-0.895,-0.470
5787,-0.895,-0.485
5788,-0.900,-0.470
5789,-0.905,-0.485
5790,-0.905,-0.495
5791,-0.930,-0.510
5792,-0.950,-0.515
5793,-0.960,-0.515
5794,-0.945,-0.510
5795,-0.925,-0.510
5796,-0.920,-0.495
5797,-0.915,-0.495
5798,-0.900,-0.490
5799,-0.895,-0.480
5800,-0.900,-0.490
5801,-0.900,-0.490
5802,-0.915,-0.515
5803,-0.930,-0.515
5804,-0.930,-0.515
5805,-0.900,-0.520
5806,-0.915,-0.500
5807,-0.900,-0.475
5808,-0.865,-0.460
5809,-0.815,-0.435
5810,-0.785,-0.425
5811,-0.780,-0.425
5812,-0.755,-0.425
5813,-0.745,-0.425
5814,-0.745,-0.410
5815,-0.740,-0.430
5816,-0.730,-0.425
5817,-0.715,-0.415
5818,-0.685,-0.410
5819,-0.655,-0.405
5820,-0.600,-0.400
5821,-0.555,-0.395
5822,-0.525,-0.415
5823,-0.535,-0.450
5824,-0.555,-0.480
5825,-0.575,-0.505
5826,-0.585,-0.525
5827,-0.600,-0.535
5828,-0.605,-0.540
5829,-0.605,-0.520
5830,-0.620,-0.535
5831,-0.620,-0.530
5832,-0.645,-0.530
5833,-0.680,-0.520
5834,-0.725,-0.515
5835,-0.795,-0.530
5836,-0.855,-0.520
5837,-0.915,-0.530
5838,-0.910,-0.525
5839,-0.920,-0.540
5840,-0.935,-0.535
5841,-0.955,-0.555
5842,-0.950,-0.555
5843,-0.950,-0.545
5844,-0.935,-0.535
5845,-0.950,-0.540
5846,-0.945,-0.520
5847,-0.940,-0.535
5848,-0.945,-0.540
5849,-0.955,-0.555
5850,-0.970,-0.555
5851,-0.975,-0.565
5852,-0.970,-0.555
5853,-0.985,-0.550
5854,-0.975,-0.560
5855,-0.980,-0.540
5856,-0.965,-0.540
5857,-0.955,-0.535
5858,-0.965,-0.535
5859,-0.970,-0.525
5860,-0.970,-0.525
5861,-0.965,-0.550
5862,-0.970,-0.550
5863,-0.975,-0.555
5864,-0.965,-0.545
5865,-0.960,-0.560
5866,-0.970,-0.550
5867,-0.965,-0.560
5868,-0.950,-0.550
5869,-0.985,-0.530
5870,-1.000,-0.505
5871,-1.005,-0.470
5872,-0.995,-0.440
5873,-0.930,-0.380
5874,-0.795,-0.335
5875,-0.615,-0.325
5876,-0.370,-0.345
5877,-0.030,-0.445
5878,0.340,-0.575
5879,0.725,-0.755
5880,1.050,-0.970
5881,1.265,-1.210
5882,1.350,-1.395
5883,1.340,-1.550
5884,1.190,-1.620
5885,0.920,-1.640
5886,0.480,-1.615
5887,-0.030,-1.560
5888,-0.555,-1.485
5889,-0.930,-1.390
5890,-1.085,-1.285
5891,-1.060,-1.160
5892,-0.925,-1.040
5893,-0.775,-0.935
5894,-0.705,-0.860
5895,-0.680,-0.775
5896,-0.710,-0.710
5897,-0.775,-0.665
5898,-0.855,-0.615
5899,-0.920,-0.580
5900,-0.950,-0.565
5901,-0.960,-0.550
5902,-0.970,-0.550
5903,-0.965,-0.535
5904,-0.950,-0.510
5905,-0.945,-0.505
5906,-0.930,-0.485
5907,-0.945,-0.485
5908,-0.950,-0.495
5909,-0.950,-0.500
5910,-0.955,-0.485
5911,-0.965,-0.500
5912,-0.985,-0.500
5913,-0.985,-0.510
5914,-0.985,-0.510
5915,-0.975,-0.485
5916,-0.965,-0.490
5917,-0.955,-0.475
5918,-0.955,-0.465
5919,-0.940,-0.465
5920,-0.945,-0.465
5921,-0.950,-0.470
5922,-0.970,-0.480
5923,-0.965,-0.490
5924,-0.975,-0.495
5925,-0.990,-0.485
5926,-0.985,-0.475
5927,-0.965,-0.470
5928,-0.965,-0.460
5929,-0.960,-0.455
5930,-0.955,-0.435
5931,-0.940,-0.450
5932,-0.940,-0.460
5933,-0.950,-0.445
5934,-0.955,-0.460
5935,-0.955,-0.460
5936,-0.960,-0.485
5937,-0.960,-0.480
5938,-0.950,-0.495
5939,-0.955,-0.460
5940,-0.945,-0.475
5941,-0.940,-0.445
5942,-0.930,-0.420
5943,-0.935,-0.435
5944,-0.930,-0.440
5945,-0.925,-0.430
5946,-0.920,-0.435
5947,-0.920,-0.440
5948,-0.925,-0.465
5949,-0.915,-0.460
5950,-0.900,-0.455
5951,-0.890,-0.455
5952,-0.885,-0.440
5953,-0.855,-0.430
5954,-0.840,-0.425
5955,-0.845,-0.420
5956,-0.825,-0.415
5957,-0.815,-0.435
5958,-0.840,-0.435
5959,-0.835,-0.450
5960,-0.835,-0.445
5961,-0.830,-0.455
5962,-0.785,-0.435
5963,-0.775,-0.425
5964,-0.750,-0.420
5965,-0.730,-0.395
5966,-0.710,-0.370
5967,-0.680,-0.380
5968,-0.660,-0.375
5969,-0.635,-0.400
5970,-0.625,-0.400
5971,-0.620,-0.410
5972,-0.615,-0.425
5973,-0.590,-0.415
5974,-0.560,-0.415
5975,-0.550,-0.400
5976,-0.505,-0.380
5977,-0.495,-0.395
5978,-0.465,-0.380
5979,-0.420,-0.395
5980,-0.410,-0.405
5981,-0.395,-0.415
5982,-0.385,-0.430
5983,-0.375,-0.425
5984,-0.360,-0.435
5985,-0.360,-0.440
5986,-0.335,-0.440
5987,-0.320,-0.405
5988,-0.295,-0.410
5989,-0.280,-0.410
5990,-0.270,-0.400
5991,-0.270,-0.400
5992,-0.275,-0.430
5993,-0.260,-0.445
5994,-0.280,-0.450
5995,-0.310,-0.475
5996,-0.330,-0.485
5997,-0.350,-0.495
5998,-0.370,-0.475
5999,-0.380,-0.460
6000,-0.410,-0.445
6001,-0.435,-0.440
6002,-0.470,-0.420
6003,-0.485,-0.415
6004,-0.525,-0.420
6005,-0.550,-0.440
6006,-0.590,-0.445
6007,-0.625,-0.440
6008,-0.655,-0.450
6009,-0.695,-0.465
6010,-0.720,-0.450
6011,-0.730,-0.450
6012,-0.745,-0.430
6013,-0.755,-0.435
6014,-0.775,-0.415
6015,-0.775,-0.450
6016,-0.795,-0.460
6017,-0.805,-0.460
6018,-0.820,-0.480
6019,-0.835,-0.485
6020,-0.855,-0.490
6021,-0.870,-0.495
6022,-0.880,-0.485
6023,-0.875,-0.490
6024,-0.865,-0.485
6025,-0.860,-0.470
6026,-0.865,-0.465
6027,-0.860,-0.485
6028,-0.865,-0.475
6029,-0.875,-0.480
6030,-0.875,-0.490
6031,-0.890,-0.505
6032,-0.895,-0.485
6033,-0.890,-0.480
6034,-0.895,-0.490
6035,-0.910,-0.485
6036,-0.880,-0.465
6037,-0.880,-0.475
6038,-0.855,-0.475
6039,-0.860,-0.460
6040,-0.855,-0.465
6041,-0.855,-0.475
6042,-0.870,-0.495
6043,-0.880,-0.500
6044,-0.895,-0.510
6045,-0.890,-0.515
6046,-0.880,-0.525
6047,-0.875,-0.500
6048,-0.865,-0.485
6049,-0.845,-0.500
6050,-0.835,-0.480
6051,-0.830,-0.465
6052,-0.835,-0.475
6053,-0.835,-0.470
6054,-0.835,-0.470
6055,-0.835,-0.490
6056,-0.855,-0.500
6057,-0.880,-0.505
6058,-0.875,-0.500
6059,-0.860,-0.500
6060,-0.850,-0.495
6061,-0.835,-0.495
6062,-0.835,-0.490
6063,-0.820,-0.485
6064,-0.825,-0.490
6065,-0.825,-0.495
6066,-0.840,-0.505
6067,-0.845,-0.515
6068,-0.840,-0.530
6069,-0.855,-0.535
6070,-0.875,-0.525
6071,-0.880,-0.520
6072,-0.865,-0.505
6073,-0.870,-0.505
6074,-0.845,-0.500
6075,-0.840,-0.485
6076,-0.860,-0.480
6077,-0.840,-0.485
6078,-0.855,-0.510
6079,-0.865,-0.520
6080,-0.865,-0.535
6081,-0.875,-0.530
6082,-0.885,-0.520
6083,-0.875,-0.515
6084,-0.870,-0.510
6085,-0.890,-0.500
6086,-0.840,-0.490
6087,-0.855,-0.490
6088,-0.870,-0.500
6089,-0.855,-0.505
6090,-0.870,-0.510
6091,-0.880,-0.525
6092,-0.885,-0.550
6093,-0.885,-0.545
6094,-0.885,-0.540
6095,-0.880,-0.535
6096,-0.875,-0.520
6097,-0.875,-0.500
6098,-0.875,-0.500
6099,-0.870,-0.505
6100,-0.880,-0.495
6101,-0.900,-0.510
6102,-0.895,-0.515
6103,-0.890,-0.530
6104,-0.910,-0.535
6105,-0.905,-0.555
6106,-0.915,-0.525
6107,-0.900,-0.520
6108,-0.895,-0.510
6109,-0.890,-0.525
6110,-0.870,-0.515
6111,-0.875,-0.515
6112,-0.875,-0.520
6113,-0.890,-0.525
6114,-0.885,-0.550
6115,-0.900,-0.555
6116,-0.905,-0.565
6117,-0.920,-0.560
6118,-0.925,-0.545
6119,-0.925,-0.550
6120,-0.900,-0.555
6121,-0.885,-0.520
6122,-0.895,-0.510
6123,-0.875,-0.510
6124,-0.880,-0.525
6125,-0.880,-0.520
6126,-0.885,-0.535
6127,-0.895,-0.545
6128,-0.905,-0.550
6129,-0.905,-0.550
6130,-0.900,-0.550
6131,-0.895,-0.530
6132,-0.880,-0.525
6133,-0.850,-0.525
6134,-0.860,-0.525
6135,-0.845,-0.515
6136,-0.850,-0.520
6137,-0.825,-0.505
6138,-0.820,-0.505
6139,-0.815,-0.495
6140,-0.810,-0.505
6141,-0.780,-0.495
6142,-0.785,-0.465
6143,-0.760,-0.455
6144,-0.735,-0.435
6145,-0.710,-0.410
6146,-0.690,-0.395
6147,-0.660,-0.405
6148,-0.635,-0.405
6149,-0.595,-0.415
6150,-0.575,-0.440
6151,-0.575,-0.465
6152,-0.545,-0.495
6153,-0.560,-0.520
6154,-0.570,-0.535
6155,-0.580,-0.535
6156,-0.575,-0.560
6157,-0.560,-0.570
6158,-0.560,-0.545
6159,-0.565,-0.545
6160,-0.600,-0.560
6161,-0.640,-0.555
6162,-0.690,-0.570
6163,-0.765,-0.585
6164,-0.835,-0.575
6165,-0.875,-0.585
6166,-0.910,-0.560
6167,-0.925,-0.555
6168,-0.925,-0.540
6169,-0.910,-0.555
6170,-0.905,-0.535
6171,-0.895,-0.555
6172,-0.915,-0.575
6173,-0.925,-0.570
6174,-0.930,-0.595
6175,-0.930,-0.595
6176,-0.950,-0.615
6177,-0.950,-0.615
6178,-0.960,-0.610
6179,-0.955,-0.595
6180,-0.950,-0.590
6181,-0.945,-0.580
6182,-0.945,-0.565
6183,-0.925,-0.555
6184,-0.925,-0.550
6185,-0.950,-0.555
6186,-0.955,-0.565
6187,-0.960,-0.590
6188,-0.965,-0.590
6189,-0.970,-0.585
6190,-0.975,-0.570
6191,-0.970,-0.575
6192,-0.940,-0.575
6193,-0.930,-0.565
6194,-0.915,-0.545
6195,-0.925,-0.555
6196,-0.930,-0.545
6197,-0.965,-0.550
6198,-0.990,-0.535
6199,-1.020,-0.515
6200,-1.020,-0.485
6201,-0.940,-0.430
6202,-0.835,-0.385
6203,-0.645,-0.355
6204,-0.380,-0.385
6205,-0.045,-0.440
6206,0.330,-0.560
6207,0.690,-0.755
6208,0.985,-0.970
6209,1.190,-1.210
6210,1.270,-1.425
6211,1.225,-1.565
6212,1.070,-1.635
6213,0.790,-1.615
6214,0.335,-1.555
6215,-0.190,-1.475
6216,-0.700,-1.395
6217,-1.030,-1.300
6218,-1.130,-1.200
6219,-1.085,-1.095
6220,-0.940,-1.030
6221,-0.800,-0.955
6222,-0.725,-0.915
6223,-0.710,-0.860
6224,-0.755,-0.785
6225,-0.845,-0.730
6226,-0.890,-0.675
6227,-0.925,-0.635
6228,-0.950,-0.590
6229,-0.945,-0.555
6230,-0.930,-0.540
6231,-0.925,-0.525
6232,-0.925,-0.520
6233,-0.950,-0.535
6234,-0.940,-0.515
6235,-0.970,-0.525
6236,-0.980,-0.530
6237,-0.990,-0.525
6238,-0.990,-0.510
6239,-0.995,-0.520
6240,-0.975,-0.505
6241,-0.970,-0.490
6242,-0.965,-0.480
6243,-0.955,-0.480
6244,-0.980,-0.480
6245,-0.990,-0.495
6246,-0.990,-0.510
6247,-1.010,-0.510
6248,-1.010,-0.520
6249,-1.005,-0.520
6250,-1.000,-0.510
6251,-0.990,-0.485
6252,-0.985,-0.485
6253,-0.985,-0.455
6254,-0.975,-0.455
6255,-0.950,-0.460
6256,-0.970,-0.460
6257,-0.970,-0.470
6258,-0.980,-0.485
6259,-0.990,-0.490
6260,-1.020,-0.525
6261,-1.000,-0.505
6262,-0.995,-0.515
6263,-0.985,-0.510
6264,-0.985,-0.500
6265,-0.960,-0.505
6266,-0.950,-0.490
6267,-0.935,-0.465
6268,-0.940,-0.475
6269,-0.950,-0.480
6270,-0.940,-0.490
6271,-0.965,-0.480
6272,-0.965,-0.485
6273,-0.960,-0.490
6274,-0.950,-0.470
6275,-0.945,-0.485
6276,-0.915,-0.470
6277,-0.915,-0.450
6278,-0.880,-0.445
6279,-0.865,-0.440
6280,-0.860,-0.450
6281,-0.845,-0.460
6282,-0.865,-0.470
6283,-0.875,-0.470
6284,-0.875,-0.475
6285,-0.855,-0.495
6286,-0.845,-0.490
6287,-0.830,-0.480
6288,-0.820,-0.460
6289,-0.790,-0.460
6290,-0.785,-0.450
6291,-0.750,-0.455
6292,-0.730,-0.435
6293,-0.715,-0.455
6294,-0.710,-0.460
6295,-0.680,-0.455
6296,-0.680,-0.475
6297,-0.660,-0.485
6298,-0.655,-0.475
6299,-0.610,-0.475
6300,-0.575,-0.450
6301,-0.555,-0.470
6302,-0.510,-0.465
6303,-0.490,-0.465
6304,-0.470,-0.485
6305,-0.465,-0.480
6306,-0.465,-0.495
6307,-0.445,-0.495
6308,-0.440,-0.510
6309,-0.415,-0.535
6310,-0.405,-0.525
6311,-0.405,-0.525
6312,-0.375,-0.530
6313,-0.355,-0.515
6314,-0.335,-0.500
6315,-0.315,-0.490
6316,-0.310,-0.495
6317,-0.320,-0.495
6318,-0.325,-0.510
6319,-0.330,-0.520
6320,-0.355,-0.520
6321,-0.355,-0.535
6322,-0.385,-0.515
6323,-0.405,-0.530
6324,-0.420,-0.505
6325,-0.435,-0.480
6326,-0.470,-0.495
6327,-0.490,-0.475
6328,-0.535,-0.465
6329,-0.570,-0.475
6330,-0.620,-0.485
6331,-0.645,-0.470
6332,-0.675,-0.490
6333,-0.725,-0.490
6334,-0.750,-0.485
6335,-0.775,-0.480
6336,-0.775,-0.460
6337,-0.810,-0.455
6338,-0.820,-0.435
6339,-0.830,-0.425
6340,-0.850,-0.435
6341,-0.865,-0.430
6342,-0.880,-0.450
6343,-0.900,-0.470
6344,-0.910,-0.485
6345,-0.930,-0.500
6346,-0.925,-0.490
6347,-0.925,-0.480
6348,-0.930,-0.480
6349,-0.920,-0.470
6350,-0.910,-0.460
6351,-0.910,-0.465
6352,-0.925,-0.480
6353,-0.935,-0.470
6354,-0.940,-0.480
6355,-0.955,-0.505
6356,-0.955,-0.515
6357,-0.970,-0.520
6358,-0.975,-0.515
6359,-0.970,-0.490
6360,-0.955,-0.470
6361,-0.945,-0.450
6362,-0.945,-0.455
6363,-0.940,-0.455
6364,-0.935,-0.470
6365,-0.935,-0.470
6366,-0.945,-0.470
6367,-0.975,-0.495
6368,-0.975,-0.510
6369,-0.965,-0.505
6370,-0.960,-0.505
6371,-0.955,-0.495
6372,-0.935,-0.500
6373,-0.935,-0.480
6374,-0.945,-0.495
6375,-0.945,-0.480
6376,-0.935,-0.485
6377,-0.945,-0.480
6378,-0.945,-0.505
6379,-0.950,-0.515
6380,-0.940,-0.520
6381,-0.910,-0.510
6382,-0.915,-0.515
6383,-0.925,-0.500
6384,-0.920,-0.510
6385,-0.895,-0.490
6386,-0.900,-0.490
6387,-0.895,-0.490
6388,-0.890,-0.490
6389,-0.885,-0.500
6390,-0.890,-0.490
6391,-0.920,-0.505
6392,-0.910,-0.520
