'sample interval','MLII','V1'
'0.00277778 sec','mV','mV'
0,-0.065,0.135
1,-0.065,0.135
2,-0.065,0.135
3,-0.065,0.135
4,-0.065,0.135
5,-0.065,0.135
6,-0.065,0.135
7,-0.065,0.135
8,-0.045,0.135
9,-0.035,0.130
10,-0.040,0.120
11,-0.060,0.115
12,-0.075,0.105
13,-0.055,0.120
14,-0.040,0.130
15,-0.040,0.120
16,-0.050,0.115
17,-0.065,0.115
18,-0.070,0.105
19,-0.065,0.100
20,-0.060,0.115
21,-0.060,0.115
22,-0.060,0.105
23,-0.070,0.085
24,-0.075,0.065
25,-0.075,0.080
26,-0.065,0.095
27,-0.070,0.080
28,-0.075,0.060
29,-0.080,0.050
30,-0.085,0.060
31,-0.075,0.060
32,-0.070,0.060
33,-0.075,0.060
34,-0.080,0.040
35,-0.085,0.040
36,-0.090,0.025
37,-0.090,0.045
38,-0.080,0.060
39,-0.070,0.065
40,-0.075,0.055
41,-0.085,0.060
42,-0.090,0.065
43,-0.070,0.090
44,-0.055,0.100
45,-0.040,0.090
46,-0.020,0.060
47,0.025,0.035
48,0.105,0.020
49,0.235,0.000
50,0.350,-0.015
51,0.475,-0.050
52,0.585,-0.090
53,0.685,-0.125
54,0.805,-0.130
55,0.915,-0.165
56,1.035,-0.220
57,1.080,-0.275
58,1.080,-0.300
59,1.025,-0.305
60,0.960,-0.285
61,0.860,-0.210
62,0.715,-0.140
63,0.510,-0.090
64,0.305,-0.060
65,0.145,-0.030
66,0.080,-0.020
67,0.030,0.025
68,-0.015,0.055
69,-0.055,0.070
70,-0.095,0.065
71,-0.110,0.070
72,-0.120,0.075
73,-0.135,0.100
74,-0.140,0.105
75,-0.150,0.090
76,-0.165,0.085
77,-0.185,0.070
78,-0.200,0.055
79,-0.195,0.070
80,-0.195,0.070
81,-0.195,0.060
82,-0.215,0.035
83,-0.225,0.015
84,-0.235,0.010
85,-0.250,0.005
86,-0.230,0.030
87,-0.235,0.040
88,-0.250,0.040
89,-0.240,0.040
90,-0.260,0.030
91,-0.255,0.050
92,-0.245,0.070
93,-0.240,0.075
94,-0.260,0.070
95,-0.275,0.070
96,-0.280,0.085
97,-0.280,0.120
98,-0.255,0.135
99,-0.255,0.130
100,-0.250,0.130
101,-0.270,0.120
102,-0.275,0.115
103,-0.275,0.125
104,-0.255,0.140
105,-0.245,0.140
106,-0.240,0.120
107,-0.270,0.110
108,-0.265,0.110
109,-0.255,0.125
110,-0.245,0.135
111,-0.240,0.135
112,-0.240,0.130
113,-0.225,0.140
114,-0.245,0.120
115,-0.235,0.130
116,-0.230,0.145
117,-0.210,0.135
118,-0.225,0.135
119,-0.225,0.125
120,-0.240,0.105
121,-0.240,0.095
122,-0.225,0.090
123,-0.215,0.060
124,-0.235,0.015
125,-0.230,-0.005
126,-0.235,-0.035
127,-0.245,-0.020
128,-0.215,-0.005
129,-0.195,-0.015
130,-0.190,-0.025
131,-0.200,-0.030
132,-0.215,-0.035
133,-0.180,-0.020
134,-0.165,0.010
135,-0.160,0.025
136,-0.140,0.015
137,-0.145,0.005
138,-0.145,0.015
139,-0.130,0.045
140,-0.120,0.055
141,-0.125,0.065
142,-0.125,0.055
143,-0.135,0.060
144,-0.125,0.050
145,-0.105,0.080
146,-0.080,0.100
147,-0.085,0.105
148,-0.090,0.095
149,-0.090,0.085
150,-0.095,0.085
151,-0.095,0.090
152,-0.075,0.115
153,-0.075,0.095
154,-0.070,0.085
155,-0.075,0.070
156,-0.095,0.075
157,-0.095,0.095
158,-0.080,0.110
159,-0.065,0.105
160,-0.080,0.100
161,-0.100,0.080
162,-0.085,0.095
163,-0.100,0.100
164,-0.085,0.125
165,-0.065,0.120
166,-0.080,0.100
167,-0.100,0.075
168,-0.115,0.045
169,-0.100,0.055
170,-0.095,0.055
171,-0.090,0.035
172,-0.085,0.030
173,-0.105,0.025
174,-0.115,0.015
175,-0.110,0.030
176,-0.110,0.050
177,-0.105,0.040
178,-0.105,0.035
179,-0.110,0.020
180,-0.110,0.020
181,-0.100,0.045
182,-0.110,0.050
183,-0.105,0.050
184,-0.105,0.040
185,-0.120,0.025
186,-0.125,0.035
187,-0.120,0.045
188,-0.110,0.075
189,-0.110,0.070
190,-0.115,0.065
191,-0.125,0.060
192,-0.125,0.075
193,-0.125,0.090
194,-0.100,0.110
195,-0.100,0.120
196,-0.105,0.105
197,-0.100,0.105
198,-0.100,0.095
199,-0.105,0.110
200,-0.100,0.120
201,-0.085,0.105
202,-0.095,0.095
203,-0.110,0.085
204,-0.110,0.070
205,-0.095,0.085
206,-0.085,0.100
207,-0.085,0.090
208,-0.100,0.060
209,-0.110,0.045
210,-0.100,0.020
211,-0.085,0.025
212,-0.090,0.035
213,-0.080,0.030
214,-0.085,0.015
215,-0.095,0.000
216,-0.115,0.005
217,-0.090,0.010
218,-0.080,0.020
219,-0.080,0.020
220,-0.095,0.010
221,-0.105,-0.005
222,-0.110,-0.010
223,-0.120,0.000
224,-0.110,0.015
225,-0.100,0.005
226,-0.120,0.005
227,-0.120,-0.005
228,-0.135,-0.010
229,-0.130,0.005
230,-0.110,0.025
231,-0.105,0.020
232,-0.105,0.015
233,-0.125,0.005
234,-0.140,0.015
235,-0.125,0.030
236,-0.105,0.060
237,-0.110,0.050
238,-0.105,0.045
239,-0.065,0.015
240,-0.005,-0.010
241,0.095,-0.010
242,0.215,-0.040
243,0.335,-0.075
244,0.440,-0.105
245,0.560,-0.155
246,0.685,-0.160
247,0.805,-0.150
248,0.910,-0.185
249,1.000,-0.235
250,1.035,-0.275
251,1.015,-0.295
252,0.955,-0.290
253,0.870,-0.260
254,0.735,-0.195
255,0.570,-0.150
256,0.335,-0.135
257,0.130,-0.115
258,-0.005,-0.095
259,-0.060,-0.075
260,-0.085,-0.040
261,-0.110,-0.020
262,-0.145,-0.030
263,-0.190,-0.025
264,-0.190,-0.020
265,-0.200,0.000
266,-0.190,0.015
267,-0.200,0.010
268,-0.225,0.005
269,-0.245,0.010
270,-0.260,0.005
271,-0.270,0.005
272,-0.255,0.015
273,-0.250,0.015
274,-0.260,0.005
275,-0.295,-0.010
276,-0.310,0.000
277,-0.300,0.000
278,-0.290,0.015
279,-0.285,0.000
280,-0.300,0.010
281,-0.320,0.000
282,-0.340,0.000
283,-0.335,0.025
284,-0.320,0.030
285,-0.325,0.035
286,-0.330,0.035
287,-0.340,0.025
288,-0.350,0.035
289,-0.345,0.050
290,-0.350,0.065
291,-0.355,0.070
292,-0.360,0.065
293,-0.365,0.060
294,-0.370,0.070
295,-0.375,0.080
296,-0.365,0.095
297,-0.360,0.085
298,-0.360,0.090
299,-0.375,0.085
300,-0.375,0.085
301,-0.360,0.080
302,-0.345,0.110
303,-0.330,0.105
304,-0.345,0.085
305,-0.350,0.075
306,-0.345,0.045
307,-0.345,0.050
308,-0.345,0.070
309,-0.325,0.040
310,-0.335,0.035
311,-0.345,0.030
312,-0.340,0.030
313,-0.330,0.040
314,-0.315,0.055
315,-0.305,0.055
316,-0.295,0.035
317,-0.300,0.020
318,-0.315,0.025
319,-0.305,0.035
320,-0.290,0.035
321,-0.285,0.030
322,-0.295,0.030
323,-0.305,0.030
324,-0.305,0.025
325,-0.280,0.030
326,-0.260,0.040
327,-0.255,0.030
328,-0.260,0.025
329,-0.265,0.010
330,-0.270,0.015
331,-0.260,0.030
332,-0.240,0.035
333,-0.225,0.035
334,-0.220,0.020
335,-0.220,0.020
336,-0.230,0.010
337,-0.205,0.025
338,-0.190,0.035
339,-0.175,0.030
340,-0.175,0.025
341,-0.195,0.010
342,-0.180,0.000
343,-0.180,0.000
344,-0.175,0.015
345,-0.170,0.015
346,-0.165,0.010
347,-0.175,0.005
348,-0.170,0.000
349,-0.180,0.035
350,-0.175,0.040
351,-0.180,0.045
352,-0.175,0.050
353,-0.185,0.030
354,-0.180,0.040
355,-0.185,0.055
356,-0.170,0.070
357,-0.165,0.070
358,-0.190,0.050
359,-0.190,0.040
360,-0.190,0.035
361,-0.175,0.050
362,-0.165,0.075
363,-0.165,0.075
364,-0.160,0.060
365,-0.165,0.060
366,-0.185,0.050
367,-0.180,0.065
368,-0.170,0.085
369,-0.175,0.090
370,-0.175,0.085
371,-0.180,0.080
372,-0.190,0.080
373,-0.180,0.095
374,-0.160,0.100
375,-0.140,0.095
376,-0.160,0.090
377,-0.150,0.075
378,-0.165,0.075
379,-0.155,0.090
380,-0.145,0.100
381,-0.145,0.085
382,-0.150,0.080
383,-0.165,0.075
384,-0.145,0.070
385,-0.145,0.070
386,-0.125,0.075
387,-0.130,0.070
388,-0.145,0.045
389,-0.155,0.035
390,-0.160,0.015
391,-0.160,0.020
392,-0.135,0.035
393,-0.140,0.035
394,-0.140,0.025
395,-0.155,0.010
396,-0.180,0.000
397,-0.160,0.005
398,-0.145,0.030
399,-0.135,0.025
400,-0.145,0.020
401,-0.165,0.020
402,-0.170,0.015
403,-0.165,0.035
404,-0.165,0.040
405,-0.155,0.035
406,-0.170,0.045
407,-0.170,0.025
408,-0.180,0.035
409,-0.175,0.050
410,-0.155,0.055
411,-0.160,0.050
412,-0.170,0.035
413,-0.170,0.030
414,-0.185,0.030
415,-0.175,0.050
416,-0.165,0.060
417,-0.170,0.065
418,-0.180,0.050
419,-0.195,0.040
420,-0.205,0.045
421,-0.205,0.045
422,-0.180,0.070
423,-0.170,0.070
424,-0.170,0.070
425,-0.190,0.055
426,-0.190,0.065
427,-0.180,0.075
428,-0.160,0.095
429,-0.145,0.095
430,-0.145,0.080
431,-0.165,0.055
432,-0.160,0.050
433,-0.150,0.060
434,-0.140,0.055
435,-0.125,0.060
436,-0.145,0.035
437,-0.145,0.030
438,-0.155,0.030
439,-0.155,0.030
440,-0.140,0.035
441,-0.145,0.025
442,-0.145,0.005
443,-0.160,0.000
444,-0.160,0.005
445,-0.175,0.005
446,-0.160,0.015
447,-0.145,0.025
448,-0.155,0.015
449,-0.155,0.000
450,-0.160,0.005
451,-0.150,0.010
452,-0.140,0.040
453,-0.130,0.035
454,-0.135,0.025
455,-0.160,0.025
456,-0.170,0.035
457,-0.150,0.060
458,-0.145,0.070
459,-0.115,0.040
460,-0.085,0.025
461,-0.035,0.000
462,0.070,-0.040
463,0.180,-0.040
464,0.300,-0.065
465,0.415,-0.090
466,0.510,-0.120
467,0.625,-0.145
468,0.745,-0.150
469,0.855,-0.170
470,0.940,-0.220
471,0.960,-0.265
472,0.965,-0.310
473,0.910,-0.340
474,0.850,-0.335
475,0.765,-0.300
476,0.640,-0.250
477,0.460,-0.195
478,0.235,-0.155
479,0.035,-0.115
480,-0.070,-0.075
481,-0.110,-0.050
482,-0.145,0.005
483,-0.170,0.020
484,-0.205,0.015
485,-0.235,0.015
486,-0.250,0.025
487,-0.250,0.045
488,-0.255,0.050
489,-0.260,0.050
490,-0.265,0.040
491,-0.290,0.035
492,-0.305,0.035
493,-0.315,0.045
494,-0.300,0.060
495,-0.295,0.040
496,-0.305,0.030
497,-0.330,0.020
498,-0.360,0.030
499,-0.370,0.030
500,-0.370,0.045
501,-0.340,0.045
502,-0.350,0.025
503,-0.370,0.030
504,-0.370,0.020
505,-0.380,0.035
506,-0.365,0.045
507,-0.360,0.040
508,-0.375,0.050
509,-0.380,0.035
510,-0.385,0.035
511,-0.390,0.055
512,-0.380,0.070
513,-0.375,0.070
514,-0.395,0.070
515,-0.410,0.070
516,-0.420,0.065
517,-0.405,0.075
518,-0.395,0.095
519,-0.385,0.090
520,-0.395,0.070
521,-0.400,0.050
522,-0.395,0.065
523,-0.390,0.075
524,-0.390,0.080
525,-0.370,0.085
526,-0.375,0.070
527,-0.405,0.065
528,-0.410,0.065
529,-0.405,0.075
530,-0.375,0.080
531,-0.360,0.085
532,-0.385,0.065
533,-0.390,0.060
534,-0.390,0.070
535,-0.390,0.070
536,-0.360,0.075
537,-0.345,0.085
538,-0.355,0.075
539,-0.360,0.075
540,-0.370,0.075
541,-0.345,0.080
542,-0.335,0.105
543,-0.330,0.090
544,-0.335,0.080
545,-0.360,0.075
546,-0.335,0.075
547,-0.330,0.075
548,-0.330,0.080
549,-0.320,0.080
550,-0.315,0.065
551,-0.325,0.055
552,-0.335,0.050
553,-0.325,0.050
554,-0.300,0.055
555,-0.295,0.055
556,-0.290,0.035
557,-0.290,0.020
558,-0.305,0.015
559,-0.295,0.020
560,-0.275,0.035
561,-0.240,0.035
562,-0.245,0.025
563,-0.260,0.015
564,-0.255,0.020
565,-0.260,0.020
566,-0.240,0.040
567,-0.235,0.035
568,-0.230,0.040
569,-0.235,0.025
570,-0.235,0.015
571,-0.235,0.030
572,-0.230,0.050
573,-0.225,0.050
574,-0.230,0.050
575,-0.245,0.045
576,-0.250,0.050
577,-0.245,0.065
578,-0.230,0.085
579,-0.235,0.090
580,-0.240,0.085
581,-0.240,0.080
582,-0.245,0.085
583,-0.260,0.100
584,-0.245,0.120
585,-0.235,0.115
586,-0.250,0.105
587,-0.255,0.100
588,-0.255,0.095
589,-0.250,0.095
590,-0.245,0.115
591,-0.235,0.105
592,-0.260,0.105
593,-0.260,0.095
594,-0.255,0.095
595,-0.250,0.095
596,-0.230,0.120
597,-0.230,0.115
598,-0.235,0.120
599,-0.240,0.095
600,-0.235,0.090
601,-0.245,0.100
602,-0.225,0.095
603,-0.230,0.085
604,-0.230,0.070
605,-0.250,0.055
606,-0.245,0.045
607,-0.250,0.020
608,-0.245,0.025
609,-0.230,0.015
610,-0.230,-0.015
611,-0.235,-0.040
612,-0.230,-0.060
613,-0.190,-0.060
614,-0.145,-0.045
615,-0.145,-0.030
616,-0.240,-0.005
617,-0.425,0.025
618,-0.625,0.060
619,-0.760,0.115
620,-0.830,0.160
621,-0.880,0.210
622,-0.905,0.245
623,-0.935,0.295
624,-0.930,0.365
625,-0.935,0.440
626,-0.935,0.520
627,-0.955,0.575
628,-0.945,0.600
629,-0.925,0.625
630,-0.905,0.645
631,-0.875,0.660
632,-0.835,0.615
633,-0.795,0.560
634,-0.755,0.510
635,-0.725,0.510
636,-0.695,0.530
637,-0.660,0.560
638,-0.630,0.610
639,-0.620,0.635
640,-0.620,0.630
641,-0.635,0.665
642,-0.610,0.675
643,-0.575,0.700
644,-0.530,0.725
645,-0.525,0.715
646,-0.475,0.675
647,-0.460,0.600
648,-0.420,0.510
649,-0.360,0.420
650,-0.305,0.360
651,-0.280,0.295
652,-0.275,0.200
653,-0.255,0.125
654,-0.240,0.070
655,-0.215,0.035
656,-0.195,0.010
657,-0.180,-0.005
658,-0.175,-0.020
659,-0.190,-0.035
660,-0.185,-0.035
661,-0.175,-0.045
662,-0.145,-0.030
663,-0.140,-0.050
664,-0.140,-0.060
665,-0.155,-0.090
666,-0.150,-0.080
667,-0.150,-0.095
668,-0.145,-0.090
669,-0.125,-0.100
670,-0.130,-0.100
671,-0.140,-0.110
672,-0.150,-0.125
673,-0.135,-0.115
674,-0.105,-0.115
675,-0.105,-0.120
676,-0.090,-0.130
677,-0.090,-0.145
678,-0.070,-0.140
679,-0.060,-0.135
680,-0.055,-0.130
681,-0.040,-0.155
682,-0.035,-0.160
683,-0.025,-0.180
684,-0.035,-0.190
685,-0.010,-0.180
686,0.005,-0.170
687,0.015,-0.165
688,0.015,-0.185
689,0.000,-0.205
690,0.025,-0.205
691,0.045,-0.210
692,0.060,-0.205
693,0.085,-0.200
694,0.080,-0.220
695,0.085,-0.220
696,0.080,-0.225
697,0.095,-0.215
698,0.110,-0.215
699,0.130,-0.225
700,0.140,-0.240
701,0.145,-0.255
702,0.140,-0.270
703,0.150,-0.270
704,0.160,-0.270
705,0.165,-0.270
706,0.165,-0.285
707,0.165,-0.295
708,0.155,-0.295
709,0.155,-0.280
710,0.180,-0.265
711,0.180,-0.260
712,0.170,-0.270
713,0.160,-0.290
714,0.140,-0.290
715,0.140,-0.270
716,0.150,-0.255
717,0.140,-0.245
718,0.125,-0.255
719,0.095,-0.260
720,0.080,-0.255
721,0.085,-0.240
722,0.065,-0.220
723,0.065,-0.220
724,0.040,-0.235
725,0.015,-0.220
726,-0.015,-0.225
727,-0.035,-0.210
728,-0.050,-0.195
729,-0.050,-0.195
730,-0.055,-0.185
731,-0.080,-0.190
732,-0.090,-0.185
733,-0.100,-0.170
734,-0.110,-0.155
735,-0.105,-0.135
736,-0.125,-0.145
737,-0.150,-0.145
738,-0.160,-0.135
739,-0.165,-0.115
740,-0.155,-0.085
741,-0.160,-0.075
742,-0.160,-0.080
743,-0.195,-0.080
744,-0.205,-0.070
745,-0.210,-0.040
746,-0.190,-0.020
747,-0.190,-0.010
748,-0.205,-0.005
749,-0.215,-0.010
750,-0.215,0.015
751,-0.220,0.030
752,-0.200,0.050
753,-0.205,0.060
754,-0.200,0.060
755,-0.215,0.040
756,-0.215,0.050
757,-0.235,0.055
758,-0.215,0.085
759,-0.205,0.065
760,-0.215,0.065
761,-0.225,0.045
762,-0.230,0.045
763,-0.235,0.065
764,-0.215,0.080
765,-0.205,0.080
766,-0.210,0.080
767,-0.215,0.075
768,-0.210,0.070
769,-0.210,0.085
770,-0.195,0.075
771,-0.195,0.080
772,-0.200,0.070
773,-0.220,0.035
774,-0.215,0.030
775,-0.210,0.035
776,-0.200,0.045
777,-0.195,0.050
778,-0.205,0.025
779,-0.220,0.025
780,-0.230,0.010
781,-0.240,0.010
782,-0.240,0.020
783,-0.230,0.000
784,-0.235,-0.010
785,-0.255,-0.015
786,-0.260,-0.030
787,-0.260,-0.005
788,-0.255,0.005
789,-0.240,0.005
790,-0.245,-0.010
791,-0.280,-0.010
792,-0.280,-0.005
793,-0.275,0.010
794,-0.270,0.020
795,-0.265,0.035
796,-0.270,0.040
797,-0.275,0.030
798,-0.290,0.045
799,-0.280,0.055
800,-0.265,0.065
801,-0.265,0.075
802,-0.265,0.080
803,-0.265,0.070
804,-0.275,0.075
805,-0.270,0.090
806,-0.260,0.115
807,-0.250,0.105
808,-0.260,0.100
809,-0.275,0.080
810,-0.280,0.070
811,-0.255,0.090
812,-0.250,0.095
813,-0.245,0.090
814,-0.265,0.070
815,-0.270,0.075
816,-0.265,0.070
817,-0.255,0.075
818,-0.230,0.090
819,-0.235,0.090
820,-0.245,0.070
821,-0.245,0.070
822,-0.250,0.080
823,-0.255,0.090
824,-0.245,0.090
825,-0.230,0.085
826,-0.230,0.080
827,-0.235,0.050
828,-0.245,0.055
829,-0.235,0.070
830,-0.235,0.070
831,-0.235,0.070
832,-0.235,0.055
833,-0.240,0.020
834,-0.255,-0.005
835,-0.250,-0.005
836,-0.265,-0.020
837,-0.260,-0.025
838,-0.265,-0.045
839,-0.265,-0.060
840,-0.260,-0.085
841,-0.245,-0.065
842,-0.245,-0.060
843,-0.235,-0.060
844,-0.245,-0.060
845,-0.245,-0.055
846,-0.230,-0.055
847,-0.220,-0.040
848,-0.215,-0.020
849,-0.205,-0.010
850,-0.210,-0.025
851,-0.210,-0.025
852,-0.220,-0.020
853,-0.205,0.000
854,-0.190,0.000
855,-0.150,0.000
856,-0.075,-0.035
857,0.010,-0.045
858,0.100,-0.065
859,0.210,-0.080
860,0.315,-0.105
861,0.425,-0.110
862,0.540,-0.125
863,0.645,-0.155
864,0.715,-0.210
865,0.805,-0.260
866,0.850,-0.295
867,0.850,-0.330
868,0.790,-0.345
869,0.680,-0.300
870,0.550,-0.235
871,0.375,-0.170
872,0.180,-0.125
873,0.025,-0.085
874,-0.065,-0.060
875,-0.110,-0.045
876,-0.160,-0.025
877,-0.200,-0.010
878,-0.225,0.010
879,-0.230,0.020
880,-0.245,0.010
881,-0.280,0.000
882,-0.295,0.015
883,-0.295,0.020
884,-0.320,0.020
885,-0.305,0.010
886,-0.315,-0.005
887,-0.335,-0.035
888,-0.350,-0.045
889,-0.350,-0.045
890,-0.350,-0.035
891,-0.360,-0.040
892,-0.365,-0.045
893,-0.375,-0.060
894,-0.375,-0.070
895,-0.385,-0.040
896,-0.365,-0.025
897,-0.365,-0.025
898,-0.370,-0.025
899,-0.380,-0.040
900,-0.385,-0.030
901,-0.375,-0.005
902,-0.355,0.010
903,-0.345,0.020
904,-0.360,0.020
905,-0.370,0.015
906,-0.380,0.030
907,-0.380,0.035
908,-0.375,0.060
909,-0.370,0.060
910,-0.385,0.065
911,-0.390,0.055
912,-0.380,0.055
913,-0.390,0.090
914,-0.365,0.085
915,-0.355,0.085
916,-0.365,0.085
917,-0.375,0.070
918,-0.375,0.075
919,-0.375,0.070
920,-0.360,0.090
921,-0.365,0.080
922,-0.355,0.065
923,-0.375,0.040
924,-0.380,0.035
925,-0.370,0.045
926,-0.355,0.060
927,-0.350,0.055
928,-0.355,0.050
929,-0.370,0.030
930,-0.375,0.020
931,-0.355,0.010
932,-0.340,0.020
933,-0.340,0.005
934,-0.345,-0.010
935,-0.380,-0.030
936,-0.360,-0.030
937,-0.350,-0.025
938,-0.345,-0.025
939,-0.335,-0.025
940,-0.335,-0.025
941,-0.345,-0.035
942,-0.355,-0.035
943,-0.345,-0.040
944,-0.340,-0.025
945,-0.325,-0.020
946,-0.335,-0.030
947,-0.320,-0.030
948,-0.320,-0.040
949,-0.315,-0.020
950,-0.280,-0.010
951,-0.270,-0.015
952,-0.270,-0.010
953,-0.270,-0.025
954,-0.265,-0.005
955,-0.245,-0.005
956,-0.230,0.030
957,-0.220,0.035
958,-0.215,0.035
959,-0.215,0.015
960,-0.215,0.020
961,-0.200,0.025
962,-0.190,0.045
963,-0.170,0.045
964,-0.175,0.055
965,-0.185,0.040
966,-0.190,0.045
967,-0.180,0.065
968,-0.170,0.070
969,-0.160,0.070
970,-0.180,0.060
971,-0.165,0.050
972,-0.160,0.040
973,-0.160,0.040
974,-0.140,0.055
975,-0.150,0.040
976,-0.155,0.025
977,-0.155,-0.005
978,-0.160,-0.020
979,-0.160,-0.015
980,-0.155,-0.010
981,-0.155,-0.010
982,-0.125,-0.020
983,-0.150,-0.035
984,-0.160,-0.045
985,-0.145,-0.040
986,-0.115,-0.015
987,-0.105,-0.015
988,-0.115,-0.030
989,-0.120,-0.025
990,-0.140,-0.015
991,-0.115,-0.005
992,-0.105,0.010
993,-0.100,0.020
994,-0.110,0.000
995,-0.125,-0.005
996,-0.130,-0.005
997,-0.130,0.010
998,-0.115,0.010
999,-0.115,0.005
1000,-0.135,0.000
1001,-0.135,0.000
1002,-0.130,0.010
1003,-0.120,0.000
1004,-0.115,0.020
1005,-0.120,0.010
1006,-0.135,0.010
1007,-0.130,0.015
1008,-0.125,0.010
1009,-0.125,0.035
1010,-0.105,0.025
1011,-0.115,0.030
1012,-0.120,0.025
1013,-0.130,0.025
1014,-0.135,0.040
1015,-0.120,0.065
1016,-0.125,0.055
1017,-0.130,0.055
1018,-0.130,0.065
1019,-0.145,0.060
1020,-0.130,0.070
1021,-0.135,0.065
1022,-0.115,0.065
1023,-0.120,0.035
1024,-0.120,0.020
1025,-0.135,0.010
1026,-0.125,0.010
1027,-0.115,0.020
1028,-0.090,0.005
1029,-0.110,-0.010
1030,-0.110,-0.025
1031,-0.125,-0.020
1032,-0.105,-0.025
1033,-0.090,0.000
1034,-0.085,-0.005
1035,-0.085,-0.010
1036,-0.100,-0.015
1037,-0.095,-0.015
1038,-0.090,0.010
1039,-0.075,0.015
1040,-0.060,0.015
1041,-0.080,0.005
1042,-0.080,0.005
1043,-0.090,0.010
1044,-0.090,0.010
1045,-0.075,0.045
1046,-0.070,0.030
1047,-0.080,0.025
1048,-0.085,0.015
1049,-0.090,0.010
1050,-0.090,0.020
1051,-0.065,0.025
1052,-0.060,0.030
1053,-0.065,0.010
1054,-0.085,0.000
1055,-0.095,0.000
1056,-0.090,0.005
1057,-0.075,0.010
1058,-0.055,0.005
1059,-0.065,0.005
1060,-0.095,-0.020
1061,-0.095,-0.005
1062,-0.095,-0.010
1063,-0.075,0.000
1064,-0.065,-0.015
1065,-0.075,-0.040
1066,-0.075,-0.045
1067,-0.085,-0.050
1068,-0.075,-0.045
1069,-0.050,-0.040
1070,0.000,-0.055
1071,0.075,-0.080
1072,0.150,-0.125
1073,0.240,-0.150
1074,0.355,-0.170
1075,0.465,-0.190
1076,0.585,-0.210
1077,0.685,-0.210
1078,0.780,-0.245
1079,0.875,-0.275
1080,0.945,-0.335
1081,1.005,-0.370
1082,0.995,-0.375
1083,0.920,-0.380
1084,0.840,-0.375
1085,0.735,-0.335
1086,0.575,-0.270
1087,0.410,-0.205
1088,0.255,-0.165
1089,0.135,-0.140
1090,0.055,-0.115
1091,-0.010,-0.100
1092,-0.045,-0.060
1093,-0.080,-0.030
1094,-0.085,-0.025
1095,-0.110,-0.020
1096,-0.125,-0.015
1097,-0.140,-0.005
1098,-0.140,-0.005
1099,-0.145,0.020
1100,-0.150,0.025
1101,-0.155,0.035
1102,-0.180,0.020
1103,-0.205,0.025
1104,-0.210,0.040
1105,-0.200,0.050
1106,-0.215,0.050
1107,-0.235,0.030
1108,-0.240,0.020
1109,-0.250,0.015
1110,-0.260,0.020
1111,-0.275,0.025
1112,-0.270,0.010
1113,-0.275,-0.010
1114,-0.285,-0.020
1115,-0.315,-0.020
1116,-0.315,-0.030
1117,-0.315,-0.020
1118,-0.300,-0.045
1119,-0.305,-0.030
1120,-0.325,-0.035
1121,-0.325,-0.030
1122,-0.325,-0.020
1123,-0.325,-0.020
1124,-0.325,-0.015
1125,-0.320,-0.015
1126,-0.335,-0.005
1127,-0.340,0.005
1128,-0.335,0.015
1129,-0.320,0.035
1130,-0.315,0.050
1131,-0.315,0.035
1132,-0.320,0.045
1133,-0.335,0.040
1134,-0.315,0.060
1135,-0.300,0.065
1136,-0.295,0.065
1137,-0.300,0.050
1138,-0.305,0.040
1139,-0.320,0.035
1140,-0.320,0.045
1141,-0.290,0.045
1142,-0.280,0.050
1143,-0.280,0.060
1144,-0.305,0.030
1145,-0.295,0.025
1146,-0.285,0.035
1147,-0.260,0.045
1148,-0.260,0.055
1149,-0.245,0.035
1150,-0.255,0.040
1151,-0.255,0.040
1152,-0.245,0.055
1153,-0.235,0.060
1154,-0.220,0.055
1155,-0.220,0.050
1156,-0.235,0.030
1157,-0.225,0.045
1158,-0.220,0.050
1159,-0.205,0.050
1160,-0.190,0.050
1161,-0.185,0.010
1162,-0.190,-0.020
1163,-0.190,-0.060
1164,-0.170,-0.065
1165,-0.155,-0.050
1166,-0.140,-0.060
1167,-0.140,-0.070
1168,-0.145,-0.075
1169,-0.150,-0.075
1170,-0.130,-0.055
1171,-0.120,-0.040
1172,-0.105,-0.035
1173,-0.120,-0.045
1174,-0.115,-0.060
1175,-0.125,-0.035
1176,-0.120,-0.025
1177,-0.110,0.000
1178,-0.105,0.000
1179,-0.115,0.005
1180,-0.120,0.000
1181,-0.125,0.010
1182,-0.130,0.030
1183,-0.110,0.050
1184,-0.085,0.045
1185,-0.085,0.050
1186,-0.100,0.050
1187,-0.110,0.045
1188,-0.110,0.055
1189,-0.090,0.070
1190,-0.075,0.070
1191,-0.075,0.050
1192,-0.095,0.040
1193,-0.110,0.045
1194,-0.100,0.060
1195,-0.090,0.085
1196,-0.080,0.075
1197,-0.080,0.075
1198,-0.085,0.060
1199,-0.085,0.065
1200,-0.085,0.085
1201,-0.075,0.080
1202,-0.065,0.080
1203,-0.075,0.050
1204,-0.085,0.050
1205,-0.100,0.055
1206,-0.090,0.050
1207,-0.080,0.065
1208,-0.075,0.065
1209,-0.080,0.035
1210,-0.090,0.015
1211,-0.110,0.015
1212,-0.105,0.010
1213,-0.100,0.005
1214,-0.085,0.010
1215,-0.085,0.000
1216,-0.095,-0.005
1217,-0.105,-0.010
1218,-0.090,-0.005
1219,-0.110,0.025
1220,-0.090,0.015
1221,-0.080,0.030
1222,-0.080,0.025
1223,-0.105,0.015
1224,-0.105,0.030
1225,-0.085,0.045
1226,-0.075,0.060
1227,-0.085,0.055
1228,-0.105,0.045
1229,-0.105,0.050
1230,-0.100,0.065
1231,-0.080,0.090
1232,-0.075,0.095
1233,-0.065,0.080
1234,-0.075,0.080
1235,-0.085,0.080
1236,-0.085,0.095
1237,-0.085,0.100
1238,-0.070,0.100
1239,-0.055,0.090
1240,-0.070,0.075
1241,-0.090,0.075
1242,-0.090,0.080
1243,-0.070,0.080
1244,-0.060,0.075
1245,-0.055,0.050
1246,-0.070,0.030
1247,-0.080,0.030
1248,-0.075,0.025
1249,-0.075,0.025
1250,-0.045,0.015
1251,-0.045,0.010
1252,-0.050,-0.010
1253,-0.060,-0.005
1254,-0.060,-0.005
1255,-0.055,0.005
1256,-0.045,0.010
1257,-0.055,-0.005
1258,-0.055,-0.010
1259,-0.055,-0.010
1260,-0.065,-0.010
1261,-0.065,0.005
1262,-0.055,0.005
1263,-0.070,-0.010
1264,-0.080,-0.005
1265,-0.105,-0.005
1266,-0.080,-0.010
1267,-0.070,-0.005
1268,-0.070,-0.005
1269,-0.075,-0.015
1270,-0.085,-0.015
1271,-0.100,-0.015
1272,-0.090,0.015
1273,-0.080,0.020
1274,-0.050,0.035
1275,-0.075,0.025
1276,-0.085,0.020
1277,-0.100,0.030
1278,-0.080,0.045
1279,-0.050,0.055
1280,-0.045,0.075
1281,-0.070,0.075
1282,-0.055,0.070
1283,-0.060,0.095
1284,-0.055,0.105
1285,-0.035,0.120
1286,0.000,0.105
1287,0.040,0.080
1288,0.110,0.035
1289,0.210,0.005
1290,0.305,-0.015
1291,0.430,-0.035
1292,0.535,-0.060
1293,0.650,-0.115
1294,0.755,-0.125
1295,0.865,-0.145
1296,0.960,-0.210
1297,1.020,-0.270
1298,1.040,-0.295
1299,1.000,-0.325
1300,0.935,-0.340
1301,0.835,-0.305
1302,0.705,-0.255
1303,0.515,-0.195
1304,0.330,-0.160
1305,0.170,-0.135
1306,0.090,-0.110
1307,0.025,-0.085
1308,-0.010,-0.055
1309,-0.050,-0.030
1310,-0.060,-0.020
1311,-0.090,-0.025
1312,-0.110,-0.020
1313,-0.140,-0.030
1314,-0.145,-0.030
1315,-0.145,0.000
1316,-0.145,0.010
1317,-0.160,-0.005
1318,-0.175,-0.005
1319,-0.200,-0.010
1320,-0.200,0.010
1321,-0.195,0.030
1322,-0.185,0.030
1323,-0.200,0.020
1324,-0.220,0.010
1325,-0.230,0.030
1326,-0.230,0.055
1327,-0.225,0.070
1328,-0.230,0.075
1329,-0.240,0.070
1330,-0.250,0.075
1331,-0.260,0.075
1332,-0.270,0.105
1333,-0.265,0.120
1334,-0.265,0.125
1335,-0.280,0.120
1336,-0.275,0.120
1337,-0.285,0.125
1338,-0.275,0.125
1339,-0.260,0.155
1340,-0.260,0.150
1341,-0.260,0.135
1342,-0.260,0.125
1343,-0.255,0.115
1344,-0.240,0.125
1345,-0.240,0.125
1346,-0.240,0.105
1347,-0.235,0.085
1348,-0.250,0.065
1349,-0.260,0.055
1350,-0.250,0.055
1351,-0.240,0.065
1352,-0.235,0.065
1353,-0.230,0.075
1354,-0.245,0.045
1355,-0.250,0.060
1356,-0.245,0.060
1357,-0.225,0.085
1358,-0.210,0.075
1359,-0.205,0.070
1360,-0.225,0.065
1361,-0.225,0.055
1362,-0.220,0.055
1363,-0.205,0.080
1364,-0.190,0.075
1365,-0.195,0.080
1366,-0.205,0.065
1367,-0.215,0.065
1368,-0.210,0.090
1369,-0.195,0.080
1370,-0.205,0.085
1371,-0.205,0.080
1372,-0.215,0.075
1373,-0.215,0.070
1374,-0.200,0.085
1375,-0.180,0.100
1376,-0.175,0.110
1377,-0.180,0.095
1378,-0.180,0.090
1379,-0.185,0.090
1380,-0.170,0.095
1381,-0.140,0.120
1382,-0.135,0.125
1383,-0.135,0.130
1384,-0.140,0.110
1385,-0.135,0.115
1386,-0.130,0.135
1387,-0.120,0.140
1388,-0.115,0.130
1389,-0.110,0.115
1390,-0.110,0.085
1391,-0.120,0.060
1392,-0.110,0.070
1393,-0.095,0.080
1394,-0.090,0.075
1395,-0.075,0.065
1396,-0.085,0.045
1397,-0.085,0.040
1398,-0.080,0.045
1399,-0.070,0.045
1400,-0.070,0.045
1401,-0.050,0.060
1402,-0.060,0.045
1403,-0.060,0.040
1404,-0.050,0.050
1405,-0.050,0.060
1406,-0.045,0.065
1407,-0.055,0.065
1408,-0.045,0.070
1409,-0.060,0.075
1410,-0.055,0.090
1411,-0.030,0.120
1412,-0.025,0.105
1413,-0.025,0.105
1414,-0.035,0.105
1415,-0.040,0.105
1416,-0.030,0.130
1417,-0.025,0.130
1418,-0.015,0.120
1419,-0.030,0.125
1420,-0.030,0.125
1421,-0.055,0.115
1422,-0.040,0.120
1423,-0.035,0.140
1424,-0.030,0.135
1425,-0.045,0.135
1426,-0.065,0.110
1427,-0.055,0.120
1428,-0.050,0.120
1429,-0.025,0.140
1430,-0.025,0.130
1431,-0.025,0.130
1432,-0.040,0.120
1433,-0.050,0.120
1434,-0.060,0.140
1435,-0.050,0.155
1436,-0.050,0.155
1437,-0.055,0.140
1438,-0.065,0.120
1439,-0.060,0.120
1440,-0.075,0.130
1441,-0.065,0.130
1442,-0.060,0.120
1443,-0.065,0.120
1444,-0.080,0.105
1445,-0.070,0.115
1446,-0.070,0.125
1447,-0.065,0.135
1448,-0.065,0.145
1449,-0.055,0.135
1450,-0.065,0.115
1451,-0.070,0.115
1452,-0.070,0.130
1453,-0.050,0.125
1454,-0.050,0.125
1455,-0.040,0.120
1456,-0.050,0.105
1457,-0.055,0.105
1458,-0.050,0.125
1459,-0.040,0.135
1460,-0.025,0.135
1461,-0.030,0.140
1462,-0.035,0.130
1463,-0.040,0.135
1464,-0.030,0.145
1465,-0.020,0.160
1466,-0.010,0.175
1467,-0.010,0.160
1468,-0.010,0.155
1469,-0.020,0.155
1470,-0.015,0.160
1471,-0.015,0.175
1472,0.005,0.150
1473,-0.005,0.140
1474,-0.010,0.135
1475,-0.025,0.115
1476,-0.010,0.120
1477,-0.015,0.105
1478,0.000,0.095
1479,-0.005,0.080
1480,-0.020,0.060
1481,-0.025,0.050
1482,-0.030,0.055
1483,-0.020,0.060
1484,-0.005,0.065
1485,-0.020,0.050
1486,-0.035,0.050
1487,-0.045,0.060
1488,-0.035,0.070
1489,-0.020,0.085
1490,-0.015,0.095
1491,-0.015,0.100
1492,-0.040,0.095
1493,-0.065,0.090
1494,-0.075,0.105
1495,-0.055,0.110
1496,-0.050,0.100
1497,-0.055,0.090
1498,-0.075,0.075
1499,-0.085,0.100
1500,-0.080,0.115
1501,-0.075,0.135
1502,-0.050,0.120
1503,-0.075,0.115
1504,-0.060,0.110
1505,-0.075,0.115
1506,-0.075,0.125
1507,-0.075,0.145
1508,-0.065,0.135
1509,-0.065,0.140
1510,-0.090,0.110
1511,-0.090,0.115
1512,-0.075,0.125
1513,-0.070,0.135
1514,-0.050,0.140
1515,-0.055,0.145
1516,-0.065,0.135
1517,-0.075,0.135
1518,-0.060,0.155
1519,-0.040,0.170
1520,-0.025,0.170
1521,-0.025,0.165
1522,-0.040,0.155
1523,-0.050,0.165
1524,-0.030,0.180
1525,-0.020,0.195
1526,-0.005,0.185
1527,-0.015,0.185
1528,-0.035,0.175
1529,-0.040,0.180
1530,-0.040,0.180
1531,-0.035,0.180
1532,-0.020,0.180
1533,-0.045,0.150
1534,-0.065,0.125
1535,-0.065,0.115
1536,-0.060,0.110
1537,-0.055,0.100
1538,-0.050,0.085
1539,-0.040,0.065
1540,-0.055,0.055
1541,-0.065,0.055
1542,-0.060,0.055
1543,-0.055,0.065
1544,-0.055,0.065
1545,-0.060,0.055
1546,-0.085,0.040
1547,-0.085,0.055
1548,-0.095,0.065
1549,-0.070,0.070
1550,-0.065,0.075
1551,-0.075,0.065
1552,-0.085,0.075
1553,-0.100,0.065
1554,-0.110,0.085
1555,-0.105,0.105
1556,-0.065,0.115
1557,-0.075,0.110
1558,-0.085,0.105
1559,-0.095,0.110
1560,-0.085,0.130
1561,-0.075,0.145
1562,-0.060,0.145
1563,-0.055,0.135
1564,-0.070,0.120
1565,-0.070,0.125
1566,-0.070,0.130
1567,-0.055,0.135
1568,-0.045,0.135
1569,-0.050,0.135
1570,-0.055,0.140
1571,-0.050,0.145
1572,-0.050,0.155
1573,-0.030,0.200
1574,-0.035,0.190
1575,-0.010,0.185
1576,0.035,0.155
1577,0.105,0.145
1578,0.205,0.145
1579,0.320,0.135
1580,0.445,0.105
1581,0.540,0.050
1582,0.640,0.015
1583,0.755,0.000
1584,0.880,-0.030
1585,0.965,-0.080
1586,1.005,-0.160
1587,0.985,-0.205
1588,0.920,-0.230
1589,0.845,-0.225
1590,0.750,-0.200
1591,0.635,-0.150
1592,0.465,-0.105
1593,0.260,-0.075
1594,0.105,-0.045
1595,0.020,-0.045
1596,-0.015,-0.010
1597,-0.055,0.025
1598,-0.095,0.045
1599,-0.140,0.060
1600,-0.180,0.060
1601,-0.180,0.055
1602,-0.180,0.085
1603,-0.190,0.095
1604,-0.195,0.110
1605,-0.205,0.095
1606,-0.235,0.090
1607,-0.240,0.100
1608,-0.235,0.125
1609,-0.240,0.140
1610,-0.225,0.145
1611,-0.230,0.160
1612,-0.250,0.150
1613,-0.255,0.170
1614,-0.265,0.175
1615,-0.260,0.200
1616,-0.250,0.205
1617,-0.260,0.210
1618,-0.265,0.200
1619,-0.290,0.210
1620,-0.275,0.235
1621,-0.275,0.240
1622,-0.260,0.245
1623,-0.265,0.235
1624,-0.275,0.225
1625,-0.280,0.225
1626,-0.295,0.235
1627,-0.285,0.255
1628,-0.275,0.260
1629,-0.280,0.255
1630,-0.295,0.240
1631,-0.290,0.245
1632,-0.290,0.275
1633,-0.275,0.285
1634,-0.260,0.285
1635,-0.265,0.260
1636,-0.270,0.225
1637,-0.275,0.195
1638,-0.280,0.190
1639,-0.260,0.175
1640,-0.255,0.165
1641,-0.260,0.145
1642,-0.275,0.125
1643,-0.280,0.115
1644,-0.280,0.115
1645,-0.260,0.135
1646,-0.270,0.130
1647,-0.270,0.125
1648,-0.295,0.095
1649,-0.300,0.100
1650,-0.295,0.115
1651,-0.280,0.125
1652,-0.275,0.125
1653,-0.275,0.115
1654,-0.290,0.095
1655,-0.285,0.105
1656,-0.290,0.110
1657,-0.275,0.145
1658,-0.260,0.140
1659,-0.265,0.140
1660,-0.270,0.130
1661,-0.280,0.130
1662,-0.280,0.135
1663,-0.280,0.160
1664,-0.270,0.155
1665,-0.280,0.180
1666,-0.285,0.185
1667,-0.275,0.195
1668,-0.260,0.200
1669,-0.245,0.225
1670,-0.245,0.215
1671,-0.250,0.225
1672,-0.245,0.215
1673,-0.240,0.215
1674,-0.245,0.225
1675,-0.210,0.230
1676,-0.205,0.235
1677,-0.200,0.225
1678,-0.190,0.205
1679,-0.180,0.195
1680,-0.165,0.210
1681,-0.165,0.210
1682,-0.155,0.200
1683,-0.150,0.180
1684,-0.150,0.170
1685,-0.155,0.155
1686,-0.150,0.175
1687,-0.120,0.175
1688,-0.105,0.180
1689,-0.100,0.160
1690,-0.115,0.145
1691,-0.115,0.145
1692,-0.110,0.145
1693,-0.095,0.150
1694,-0.080,0.165
1695,-0.105,0.165
1696,-0.095,0.140
1697,-0.120,0.150
1698,-0.110,0.165
1699,-0.100,0.175
1700,-0.100,0.180
1701,-0.100,0.165
1702,-0.105,0.165
1703,-0.110,0.170
1704,-0.125,0.175
1705,-0.110,0.190
1706,-0.100,0.205
1707,-0.110,0.195
1708,-0.120,0.205
1709,-0.140,0.205
1710,-0.135,0.225
1711,-0.120,0.235
1712,-0.105,0.235
1713,-0.130,0.240
1714,-0.135,0.225
1715,-0.135,0.235
1716,-0.130,0.235
1717,-0.135,0.250
1718,-0.115,0.240
1719,-0.125,0.245
1720,-0.140,0.220
1721,-0.140,0.235
1722,-0.125,0.240
1723,-0.115,0.245
1724,-0.115,0.245
1725,-0.120,0.230
1726,-0.120,0.210
1727,-0.130,0.215
1728,-0.120,0.215
1729,-0.110,0.210
1730,-0.100,0.200
1731,-0.095,0.190
1732,-0.095,0.150
1733,-0.110,0.150
1734,-0.115,0.165
1735,-0.110,0.175
1736,-0.100,0.175
1737,-0.095,0.170
1738,-0.090,0.160
1739,-0.090,0.155
1740,-0.115,0.175
1741,-0.090,0.195
1742,-0.085,0.200
1743,-0.080,0.185
1744,-0.085,0.175
1745,-0.080,0.170
1746,-0.085,0.180
1747,-0.080,0.175
1748,-0.090,0.190
1749,-0.090,0.195
1750,-0.105,0.170
1751,-0.100,0.165
1752,-0.120,0.165
1753,-0.095,0.180
1754,-0.105,0.175
1755,-0.095,0.175
1756,-0.100,0.170
1757,-0.105,0.155
1758,-0.110,0.185
1759,-0.100,0.195
1760,-0.100,0.190
1761,-0.115,0.185
1762,-0.125,0.190
1763,-0.135,0.185
1764,-0.135,0.185
1765,-0.120,0.195
1766,-0.115,0.180
1767,-0.105,0.155
1768,-0.125,0.135
1769,-0.125,0.135
1770,-0.120,0.150
1771,-0.110,0.160
1772,-0.080,0.150
1773,-0.095,0.145
1774,-0.095,0.140
1775,-0.115,0.135
1776,-0.120,0.135
1777,-0.085,0.145
1778,-0.070,0.155
1779,-0.070,0.140
1780,-0.090,0.130
1781,-0.100,0.125
1782,-0.100,0.125
1783,-0.095,0.135
1784,-0.060,0.145
1785,-0.060,0.140
1786,-0.080,0.130
1787,-0.105,0.140
1788,-0.085,0.140
1789,-0.070,0.150
1790,-0.065,0.160
1791,-0.060,0.155
1792,-0.065,0.155
1793,-0.070,0.150
1794,-0.090,0.170
1795,-0.070,0.170
1796,-0.080,0.180
1797,-0.065,0.180
1798,-0.065,0.165
1799,-0.075,0.165
1800,-0.070,0.175
1801,-0.060,0.185
1802,-0.050,0.175
1803,-0.070,0.170
1804,-0.070,0.170
1805,-0.095,0.155
1806,-0.075,0.170
1807,-0.045,0.165
1808,0.010,0.145
1809,0.090,0.120
1810,0.175,0.075
1811,0.280,0.040
1812,0.390,0.010
1813,0.535,-0.025
1814,0.675,-0.065
1815,0.790,-0.110
1816,0.890,-0.150
1817,0.940,-0.205
1818,0.950,-0.245
1819,0.915,-0.230
1820,0.865,-0.215
1821,0.755,-0.185
1822,0.610,-0.145
1823,0.405,-0.075
1824,0.210,-0.015
1825,0.075,0.030
1826,0.020,0.065
1827,-0.040,0.080
1828,-0.090,0.105
1829,-0.145,0.110
1830,-0.150,0.130
1831,-0.140,0.145
1832,-0.135,0.135
1833,-0.145,0.145
1834,-0.175,0.115
1835,-0.185,0.125
1836,-0.185,0.145
1837,-0.195,0.170
1838,-0.180,0.170
1839,-0.180,0.180
1840,-0.190,0.165
1841,-0.195,0.155
1842,-0.200,0.175
1843,-0.190,0.195
1844,-0.195,0.205
1845,-0.210,0.195
1846,-0.220,0.185
1847,-0.215,0.185
1848,-0.215,0.200
1849,-0.230,0.220
1850,-0.220,0.210
1851,-0.220,0.220
1852,-0.230,0.195
1853,-0.240,0.165
1854,-0.260,0.170
1855,-0.260,0.155
1856,-0.250,0.135
1857,-0.255,0.125
1858,-0.260,0.110
1859,-0.270,0.120
1860,-0.260,0.125
1861,-0.260,0.135
1862,-0.260,0.140
1863,-0.240,0.130
1864,-0.270,0.125
1865,-0.275,0.110
1866,-0.255,0.120
1867,-0.245,0.145
1868,-0.245,0.145
1869,-0.255,0.135
1870,-0.260,0.115
1871,-0.270,0.105
1872,-0.285,0.130
1873,-0.270,0.150
1874,-0.270,0.155
1875,-0.265,0.150
1876,-0.275,0.145
1877,-0.280,0.150
1878,-0.275,0.165
1879,-0.260,0.175
1880,-0.240,0.175
1881,-0.235,0.165
1882,-0.245,0.175
1883,-0.255,0.165
1884,-0.250,0.185
1885,-0.235,0.205
1886,-0.230,0.215
1887,-0.230,0.200
1888,-0.225,0.200
1889,-0.220,0.185
1890,-0.230,0.205
1891,-0.210,0.200
1892,-0.195,0.195
1893,-0.185,0.175
1894,-0.175,0.155
1895,-0.175,0.145
1896,-0.165,0.130
1897,-0.150,0.150
1898,-0.130,0.145
1899,-0.125,0.135
1900,-0.135,0.105
1901,-0.115,0.105
1902,-0.110,0.120
1903,-0.100,0.130
1904,-0.080,0.115
1905,-0.085,0.105
1906,-0.100,0.095
1907,-0.095,0.090
1908,-0.100,0.105
1909,-0.085,0.115
1910,-0.065,0.115
1911,-0.055,0.120
1912,-0.075,0.120
1913,-0.080,0.100
1914,-0.075,0.125
1915,-0.065,0.135
1916,-0.050,0.140
1917,-0.045,0.130
1918,-0.055,0.130
1919,-0.080,0.130
1920,-0.085,0.155
1921,-0.065,0.150
1922,-0.065,0.170
1923,-0.075,0.165
1924,-0.075,0.160
1925,-0.080,0.155
1926,-0.085,0.175
1927,-0.090,0.195
1928,-0.065,0.200
1929,-0.065,0.210
1930,-0.070,0.210
1931,-0.075,0.210
1932,-0.070,0.205
1933,-0.075,0.235
1934,-0.065,0.225
1935,-0.050,0.215
1936,-0.065,0.190
1937,-0.070,0.165
1938,-0.055,0.165
1939,-0.060,0.155
1940,-0.035,0.145
1941,-0.040,0.135
1942,-0.045,0.130
1943,-0.050,0.125
1944,-0.050,0.155
1945,-0.035,0.160
1946,-0.015,0.185
1947,-0.015,0.175
1948,-0.015,0.160
1949,-0.025,0.165
1950,-0.020,0.165
1951,-0.010,0.180
1952,0.005,0.180
1953,0.005,0.165
1954,-0.010,0.155
1955,-0.030,0.145
1956,-0.025,0.160
1957,-0.005,0.165
1958,0.000,0.155
1959,-0.010,0.145
1960,-0.015,0.130
1961,-0.040,0.115
1962,-0.035,0.130
1963,-0.025,0.150
1964,-0.020,0.145
1965,-0.020,0.140
1966,-0.030,0.140
1967,-0.045,0.130
1968,-0.050,0.135
1969,-0.045,0.165
1970,-0.030,0.175
1971,-0.035,0.170
1972,-0.040,0.170
1973,-0.055,0.175
1974,-0.065,0.190
1975,-0.070,0.195
1976,-0.065,0.205
1977,-0.060,0.190
1978,-0.075,0.180
1979,-0.085,0.195
1980,-0.075,0.185
1981,-0.065,0.205
1982,-0.055,0.200
1983,-0.050,0.190
1984,-0.065,0.185
1985,-0.070,0.175
1986,-0.055,0.170
1987,-0.060,0.190
1988,-0.045,0.175
1989,-0.035,0.165
1990,-0.055,0.145
1991,-0.055,0.145
1992,-0.055,0.160
1993,-0.035,0.175
1994,-0.010,0.175
1995,-0.020,0.170
1996,-0.040,0.155
1997,-0.035,0.155
1998,-0.035,0.165
1999,-0.020,0.170
2000,-0.005,0.180
2001,0.000,0.175
2002,-0.020,0.155
2003,-0.035,0.160
2004,-0.030,0.160
2005,-0.005,0.170
2006,0.000,0.160
2007,-0.005,0.155
2008,0.000,0.145
2009,-0.015,0.130
2010,-0.030,0.135
2011,-0.020,0.130
2012,0.000,0.125
2013,-0.005,0.120
2014,-0.025,0.105
2015,-0.030,0.095
2016,-0.035,0.100
2017,-0.010,0.095
2018,0.015,0.065
2019,0.080,0.040
2020,0.160,0.010
2021,0.255,-0.025
2022,0.390,-0.045
2023,0.505,-0.070
2024,0.655,-0.085
2025,0.770,-0.075
2026,0.880,-0.110
2027,0.975,-0.160
2028,1.030,-0.200
2029,1.030,-0.220
2030,1.000,-0.220
2031,0.895,-0.180
2032,0.760,-0.135
2033,0.585,-0.075
2034,0.370,-0.010
2035,0.210,0.035
2036,0.100,0.080
2037,0.025,0.095
2038,-0.025,0.100
2039,-0.075,0.120
2040,-0.100,0.145
2041,-0.110,0.170
2042,-0.125,0.155
2043,-0.125,0.160
2044,-0.150,0.155
2045,-0.175,0.160
2046,-0.175,0.170
2047,-0.170,0.180
2048,-0.170,0.180
2049,-0.180,0.170
2050,-0.190,0.180
2051,-0.210,0.180
2052,-0.195,0.180
2053,-0.195,0.170
2054,-0.185,0.165
2055,-0.185,0.155
2056,-0.195,0.150
2057,-0.220,0.125
2058,-0.225,0.130
2059,-0.225,0.125
2060,-0.205,0.120
2061,-0.205,0.090
2062,-0.220,0.075
2063,-0.245,0.075
2064,-0.255,0.065
2065,-0.245,0.075
2066,-0.235,0.065
2067,-0.235,0.045
2068,-0.250,0.040
2069,-0.255,0.050
2070,-0.255,0.065
2071,-0.255,0.090
2072,-0.260,0.090
2073,-0.245,0.110
2074,-0.250,0.100
2075,-0.270,0.100
2076,-0.265,0.115
2077,-0.255,0.120
2078,-0.255,0.155
2079,-0.250,0.150
2080,-0.270,0.140
2081,-0.265,0.150
2082,-0.265,0.165
2083,-0.255,0.180
2084,-0.245,0.185
2085,-0.245,0.195
2086,-0.260,0.180
2087,-0.265,0.190
2088,-0.250,0.200
2089,-0.250,0.210
2090,-0.230,0.195
2091,-0.245,0.195
2092,-0.235,0.185
2093,-0.245,0.170
2094,-0.240,0.165
2095,-0.225,0.175
2096,-0.210,0.170
2097,-0.210,0.160
2098,-0.210,0.135
2099,-0.215,0.125
2100,-0.195,0.130
2101,-0.185,0.125
2102,-0.160,0.115
2103,-0.145,0.110
2104,-0.145,0.090
2105,-0.135,0.085
2106,-0.120,0.105
2107,-0.100,0.095
2108,-0.085,0.100
2109,-0.080,0.080
2110,-0.085,0.070
2111,-0.105,0.085
2112,-0.110,0.080
2113,-0.090,0.100
2114,-0.075,0.095
2115,-0.070,0.090
2116,-0.075,0.085
2117,-0.080,0.085
2118,-0.075,0.105
2119,-0.065,0.120
2120,-0.040,0.130
2121,-0.055,0.135
2122,-0.060,0.135
2123,-0.070,0.135
2124,-0.070,0.145
2125,-0.065,0.175
2126,-0.050,0.170
2127,-0.045,0.160
2128,-0.065,0.150
2129,-0.080,0.165
2130,-0.085,0.175
2131,-0.085,0.200
2132,-0.075,0.190
2133,-0.075,0.185
2134,-0.070,0.180
2135,-0.085,0.175
2136,-0.100,0.175
2137,-0.095,0.180
2138,-0.080,0.165
2139,-0.065,0.160
2140,-0.075,0.125
2141,-0.085,0.115
2142,-0.080,0.110
2143,-0.090,0.120
2144,-0.075,0.130
2145,-0.080,0.125
2146,-0.085,0.115
2147,-0.085,0.115
2148,-0.085,0.140
2149,-0.065,0.145
2150,-0.055,0.140
2151,-0.040,0.140
2152,-0.045,0.125
2153,-0.050,0.120
2154,-0.050,0.135
2155,-0.040,0.145
2156,-0.035,0.145
2157,-0.045,0.155
2158,-0.070,0.120
2159,-0.065,0.125
2160,-0.065,0.130
2161,-0.055,0.120
2162,-0.060,0.140
2163,-0.055,0.135
2164,-0.060,0.125
2165,-0.075,0.110
2166,-0.085,0.125
2167,-0.065,0.125
2168,-0.060,0.125
2169,-0.070,0.125
2170,-0.090,0.115
2171,-0.100,0.095
2172,-0.095,0.115
2173,-0.085,0.140
2174,-0.070,0.125
2175,-0.080,0.125
2176,-0.090,0.105
2177,-0.100,0.105
2178,-0.090,0.115
2179,-0.100,0.145
2180,-0.095,0.125
2181,-0.090,0.125
2182,-0.095,0.125
2183,-0.100,0.115
2184,-0.095,0.130
2185,-0.075,0.135
2186,-0.075,0.130
2187,-0.065,0.115
2188,-0.075,0.115
2189,-0.080,0.110
2190,-0.090,0.115
2191,-0.075,0.125
2192,-0.085,0.120
2193,-0.075,0.125
2194,-0.075,0.110
2195,-0.080,0.120
2196,-0.080,0.125
2197,-0.070,0.145
2198,-0.065,0.150
2199,-0.060,0.145
2200,-0.055,0.145
2201,-0.070,0.145
2202,-0.080,0.150
2203,-0.055,0.150
2204,-0.055,0.155
2205,-0.060,0.150
2206,-0.075,0.140
2207,-0.065,0.130
2208,-0.065,0.140
2209,-0.055,0.150
2210,-0.055,0.150
2211,-0.055,0.140
2212,-0.070,0.105
2213,-0.085,0.085
2214,-0.085,0.065
2215,-0.075,0.065
2216,-0.070,0.050
2217,-0.060,0.040
2218,-0.070,0.030
2219,-0.080,0.025
2220,-0.075,0.030
2221,-0.075,0.050
2222,-0.055,0.045
2223,-0.050,0.045
2224,-0.065,0.045
2225,-0.075,0.040
2226,-0.075,0.060
2227,-0.065,0.055
2228,-0.060,0.055
2229,-0.070,0.050
2230,-0.070,0.050
2231,-0.080,0.040
2232,-0.090,0.060
2233,-0.070,0.085
2234,-0.065,0.085
2235,-0.065,0.095
2236,-0.090,0.110
2237,-0.085,0.105
2238,-0.075,0.120
2239,-0.030,0.115
2240,0.040,0.090
2241,0.145,0.065
2242,0.260,0.015
2243,0.375,-0.005
2244,0.485,-0.045
2245,0.600,-0.060
2246,0.725,-0.050
2247,0.855,-0.090
2248,0.925,-0.175
2249,0.955,-0.225
2250,0.945,-0.235
2251,0.905,-0.215
2252,0.825,-0.190
2253,0.700,-0.145
2254,0.505,-0.095
2255,0.270,-0.050
2256,0.105,0.000
2257,0.020,0.035
2258,-0.020,0.045
2259,-0.090,0.045
2260,-0.120,0.025
2261,-0.160,0.020
2262,-0.175,0.025
2263,-0.165,0.035
2264,-0.195,0.045
2265,-0.210,0.050
2266,-0.220,0.025
2267,-0.230,0.025
2268,-0.240,0.035
2269,-0.235,0.065
2270,-0.245,0.075
2271,-0.255,0.075
2272,-0.260,0.065
2273,-0.270,0.060
2274,-0.270,0.090
2275,-0.265,0.100
2276,-0.265,0.090
2277,-0.285,0.100
2278,-0.305,0.100
2279,-0.305,0.090
2280,-0.305,0.105
2281,-0.310,0.140
2282,-0.290,0.150
2283,-0.290,0.150
2284,-0.290,0.140
2285,-0.290,0.145
2286,-0.280,0.155
2287,-0.270,0.155
2288,-0.260,0.160
2289,-0.285,0.160
2290,-0.275,0.145
2291,-0.295,0.135
2292,-0.290,0.140
2293,-0.270,0.165
2294,-0.275,0.165
2295,-0.275,0.155
2296,-0.275,0.140
2297,-0.280,0.140
2298,-0.275,0.145
2299,-0.270,0.135
2300,-0.255,0.130
2301,-0.260,0.110
2302,-0.280,0.100
2303,-0.270,0.090
2304,-0.265,0.105
2305,-0.245,0.120
2306,-0.245,0.100
2307,-0.245,0.095
2308,-0.250,0.075
2309,-0.260,0.075
2310,-0.260,0.090
2311,-0.250,0.100
2312,-0.240,0.100
2313,-0.250,0.095
2314,-0.250,0.060
2315,-0.260,0.070
2316,-0.250,0.070
2317,-0.230,0.085
2318,-0.220,0.085
2319,-0.215,0.085
2320,-0.215,0.055
2321,-0.215,0.065
2322,-0.210,0.070
2323,-0.190,0.070
2324,-0.175,0.065
2325,-0.175,0.070
2326,-0.180,0.065
2327,-0.200,0.050
2328,-0.200,0.080
2329,-0.180,0.105
2330,-0.165,0.110
2331,-0.155,0.120
2332,-0.155,0.110
2333,-0.150,0.115
2334,-0.145,0.140
2335,-0.135,0.155
2336,-0.125,0.160
2337,-0.135,0.145
2338,-0.115,0.130
2339,-0.130,0.135
2340,-0.115,0.140
2341,-0.110,0.160
2342,-0.110,0.150
2343,-0.105,0.150
2344,-0.110,0.150
2345,-0.130,0.140
2346,-0.110,0.155
2347,-0.100,0.160
2348,-0.090,0.160
2349,-0.090,0.155
2350,-0.090,0.150
2351,-0.110,0.140
2352,-0.100,0.145
2353,-0.090,0.140
2354,-0.080,0.135
2355,-0.085,0.130
2356,-0.095,0.110
2357,-0.120,0.100
2358,-0.110,0.100
2359,-0.105,0.095
2360,-0.100,0.080
2361,-0.105,0.070
2362,-0.115,0.050
2363,-0.120,0.050
2364,-0.125,0.065
2365,-0.115,0.060
2366,-0.100,0.075
2367,-0.100,0.075
2368,-0.120,0.070
2369,-0.135,0.070
2370,-0.140,0.080
2371,-0.145,0.100
2372,-0.125,0.095
2373,-0.130,0.105
2374,-0.130,0.090
2375,-0.160,0.090
2376,-0.160,0.100
2377,-0.140,0.135
2378,-0.130,0.140
2379,-0.135,0.145
2380,-0.145,0.145
2381,-0.150,0.155
2382,-0.140,0.165
2383,-0.140,0.185
2384,-0.130,0.190
2385,-0.130,0.195
2386,-0.140,0.180
2387,-0.140,0.185
2388,-0.145,0.210
2389,-0.135,0.210
2390,-0.110,0.200
2391,-0.115,0.195
2392,-0.125,0.180
2393,-0.130,0.170
2394,-0.130,0.170
2395,-0.125,0.195
2396,-0.100,0.185
2397,-0.100,0.175
2398,-0.105,0.155
2399,-0.115,0.140
2400,-0.105,0.145
2401,-0.090,0.145
2402,-0.075,0.135
2403,-0.090,0.135
2404,-0.095,0.110
2405,-0.105,0.100
2406,-0.100,0.100
2407,-0.085,0.105
2408,-0.065,0.100
2409,-0.070,0.100
2410,-0.095,0.075
2411,-0.110,0.075
2412,-0.100,0.085
2413,-0.100,0.095
2414,-0.085,0.075
2415,-0.095,0.080
2416,-0.105,0.060
2417,-0.120,0.065
2418,-0.130,0.075
2419,-0.115,0.085
2420,-0.125,0.085
2421,-0.115,0.095
2422,-0.125,0.075
2423,-0.140,0.100
2424,-0.130,0.110
2425,-0.135,0.115
2426,-0.140,0.120
2427,-0.135,0.120
2428,-0.150,0.110
2429,-0.155,0.120
2430,-0.160,0.140
2431,-0.150,0.140
2432,-0.140,0.145
2433,-0.145,0.160
2434,-0.160,0.150
2435,-0.170,0.140
2436,-0.165,0.145
2437,-0.145,0.160
2438,-0.130,0.160
2439,-0.145,0.140
2440,-0.150,0.135
2441,-0.170,0.125
2442,-0.170,0.130
2443,-0.165,0.145
2444,-0.150,0.145
2445,-0.155,0.135
2446,-0.170,0.115
2447,-0.165,0.120
2448,-0.165,0.115
2449,-0.145,0.125
2450,-0.135,0.135
2451,-0.130,0.125
2452,-0.145,0.125
2453,-0.135,0.105
2454,-0.120,0.130
2455,-0.120,0.120
2456,-0.105,0.130
2457,-0.090,0.100
2458,-0.110,0.110
2459,-0.115,0.100
2460,-0.110,0.110
2461,-0.110,0.115
2462,-0.095,0.115
2463,-0.115,0.110
2464,-0.110,0.090
2465,-0.120,0.085
2466,-0.125,0.080
2467,-0.110,0.085
2468,-0.110,0.090
2469,-0.115,0.090
2470,-0.135,0.085
2471,-0.140,0.075
2472,-0.150,0.095
2473,-0.130,0.105
2474,-0.130,0.115
2475,-0.130,0.105
2476,-0.140,0.105
2477,-0.145,0.100
2478,-0.150,0.090
2479,-0.140,0.120
2480,-0.135,0.120
2481,-0.125,0.130
2482,-0.155,0.110
2483,-0.140,0.115
2484,-0.160,0.130
2485,-0.145,0.135
2486,-0.130,0.135
2487,-0.125,0.140
2488,-0.150,0.120
2489,-0.150,0.120
2490,-0.160,0.135
2491,-0.135,0.145
2492,-0.135,0.160
2493,-0.125,0.160
2494,-0.135,0.155
2495,-0.140,0.140
2496,-0.105,0.135
2497,-0.050,0.120
2498,0.040,0.110
2499,0.130,0.075
2500,0.225,0.035
2501,0.315,-0.010
2502,0.420,-0.040
2503,0.545,-0.055
2504,0.660,-0.060
2505,0.780,-0.095
2506,0.855,-0.155
2507,0.905,-0.210
2508,0.920,-0.225
2509,0.910,-0.225
2510,0.875,-0.220
2511,0.805,-0.215
2512,0.705,-0.170
2513,0.560,-0.115
2514,0.360,-0.070
2515,0.205,-0.015
2516,0.080,0.015
2517,0.015,0.030
2518,-0.025,0.050
2519,-0.075,0.055
2520,-0.120,0.095
2521,-0.155,0.125
2522,-0.170,0.120
2523,-0.180,0.120
2524,-0.205,0.110
2525,-0.235,0.095
2526,-0.245,0.085
2527,-0.245,0.105
2528,-0.245,0.105
2529,-0.245,0.110
2530,-0.265,0.100
2531,-0.290,0.095
2532,-0.285,0.090
2533,-0.280,0.105
2534,-0.270,0.095
2535,-0.280,0.100
2536,-0.295,0.095
2537,-0.305,0.095
2538,-0.310,0.105
2539,-0.310,0.110
2540,-0.305,0.120
2541,-0.305,0.105
2542,-0.330,0.110
2543,-0.350,0.120
2544,-0.345,0.125
2545,-0.340,0.135
2546,-0.330,0.150
2547,-0.330,0.145
2548,-0.340,0.135
2549,-0.350,0.145
2550,-0.345,0.160
2551,-0.335,0.170
2552,-0.340,0.170
2553,-0.320,0.160
2554,-0.335,0.155
2555,-0.345,0.150
2556,-0.350,0.155
2557,-0.335,0.160
2558,-0.330,0.165
2559,-0.335,0.155
2560,-0.350,0.160
2561,-0.340,0.160
2562,-0.340,0.175
2563,-0.320,0.195
2564,-0.315,0.200
2565,-0.315,0.190
2566,-0.320,0.185
2567,-0.315,0.165
2568,-0.310,0.160
2569,-0.295,0.180
2570,-0.290,0.155
2571,-0.285,0.155
2572,-0.295,0.150
2573,-0.315,0.130
2574,-0.310,0.135
2575,-0.295,0.140
2576,-0.285,0.120
2577,-0.270,0.120
2578,-0.300,0.110
2579,-0.305,0.095
2580,-0.315,0.105
2581,-0.300,0.110
2582,-0.270,0.115
2583,-0.270,0.100
2584,-0.285,0.090
2585,-0.285,0.095
2586,-0.285,0.095
2587,-0.285,0.110
2588,-0.270,0.110
2589,-0.270,0.120
2590,-0.260,0.110
2591,-0.265,0.110
2592,-0.275,0.125
2593,-0.260,0.125
2594,-0.245,0.140
2595,-0.255,0.135
2596,-0.250,0.135
2597,-0.240,0.155
2598,-0.240,0.155
2599,-0.225,0.175
2600,-0.215,0.170
2601,-0.210,0.190
2602,-0.190,0.175
2603,-0.205,0.180
2604,-0.190,0.180
2605,-0.180,0.195
2606,-0.170,0.200
2607,-0.175,0.185
2608,-0.170,0.165
2609,-0.170,0.145
2610,-0.155,0.145
2611,-0.150,0.150
2612,-0.140,0.155
2613,-0.150,0.140
2614,-0.150,0.125
2615,-0.160,0.130
2616,-0.145,0.135
2617,-0.135,0.135
2618,-0.120,0.130
2619,-0.120,0.130
2620,-0.130,0.115
2621,-0.150,0.105
2622,-0.135,0.115
2623,-0.130,0.120
2624,-0.130,0.120
2625,-0.130,0.105
2626,-0.140,0.100
2627,-0.165,0.090
2628,-0.160,0.100
2629,-0.155,0.115
2630,-0.145,0.115
2631,-0.155,0.125
2632,-0.175,0.120
2633,-0.185,0.115
2634,-0.180,0.140
2635,-0.175,0.145
2636,-0.180,0.160
2637,-0.165,0.160
2638,-0.170,0.160
2639,-0.185,0.155
2640,-0.190,0.165
2641,-0.170,0.175
2642,-0.170,0.175
2643,-0.175,0.180
2644,-0.180,0.155
2645,-0.190,0.160
2646,-0.190,0.170
2647,-0.185,0.180
2648,-0.175,0.200
2649,-0.175,0.180
2650,-0.185,0.180
2651,-0.195,0.165
2652,-0.185,0.170
2653,-0.175,0.185
2654,-0.155,0.180
2655,-0.165,0.160
2656,-0.175,0.140
2657,-0.185,0.135
2658,-0.165,0.140
2659,-0.150,0.135
2660,-0.140,0.130
2661,-0.150,0.115
2662,-0.175,0.110
2663,-0.170,0.100
2664,-0.170,0.105
2665,-0.160,0.110
2666,-0.155,0.115
2667,-0.160,0.115
2668,-0.165,0.110
2669,-0.165,0.100
2670,-0.155,0.120
2671,-0.155,0.135
2672,-0.145,0.135
2673,-0.140,0.130
2674,-0.150,0.130
2675,-0.150,0.130
2676,-0.150,0.155
2677,-0.170,0.150
2678,-0.150,0.155
2679,-0.145,0.150
2680,-0.165,0.135
2681,-0.185,0.120
2682,-0.185,0.140
2683,-0.180,0.150
2684,-0.165,0.145
2685,-0.180,0.135
2686,-0.190,0.125
2687,-0.185,0.125
2688,-0.195,0.130
2689,-0.170,0.135
2690,-0.160,0.150
2691,-0.175,0.135
2692,-0.190,0.120
2693,-0.195,0.120
2694,-0.175,0.135
2695,-0.185,0.140
2696,-0.175,0.140
2697,-0.180,0.135
2698,-0.210,0.115
2699,-0.210,0.125
2700,-0.210,0.120
2701,-0.210,0.125
2702,-0.190,0.115
2703,-0.190,0.120
2704,-0.195,0.110
2705,-0.210,0.105
2706,-0.190,0.110
2707,-0.195,0.125
2708,-0.185,0.120
2709,-0.170,0.115
2710,-0.175,0.080
2711,-0.195,0.085
2712,-0.185,0.090
2713,-0.180,0.100
2714,-0.160,0.095
2715,-0.160,0.085
2716,-0.180,0.070
2717,-0.185,0.080
2718,-0.170,0.095
2719,-0.160,0.105
2720,-0.150,0.110
2721,-0.155,0.105
2722,-0.160,0.090
2723,-0.180,0.100
2724,-0.160,0.100
2725,-0.140,0.120
2726,-0.135,0.130
2727,-0.145,0.130
2728,-0.160,0.125
2729,-0.150,0.120
2730,-0.155,0.120
2731,-0.140,0.125
2732,-0.130,0.135
2733,-0.130,0.140
2734,-0.135,0.135
2735,-0.150,0.135
2736,-0.160,0.135
2737,-0.130,0.130
2738,-0.085,0.120
2739,-0.005,0.080
2740,0.080,0.055
2741,0.165,0.035
2742,0.270,0.020
2743,0.385,-0.010
2744,0.495,-0.055
2745,0.610,-0.075
2746,0.715,-0.100
2747,0.785,-0.120
2748,0.855,-0.165
2749,0.880,-0.195
2750,0.875,-0.215
2751,0.830,-0.235
2752,0.745,-0.240
2753,0.655,-0.220
2754,0.530,-0.175
2755,0.375,-0.110
2756,0.195,-0.065
2757,0.055,-0.040
2758,-0.050,-0.010
2759,-0.100,0.010
2760,-0.150,0.055
2761,-0.180,0.090
2762,-0.205,0.120
2763,-0.215,0.120
2764,-0.230,0.125
2765,-0.255,0.135
2766,-0.265,0.130
2767,-0.260,0.140
2768,-0.270,0.150
2769,-0.260,0.135
2770,-0.270,0.120
2771,-0.295,0.120
2772,-0.315,0.120
2773,-0.305,0.120
2774,-0.305,0.130
2775,-0.300,0.130
2776,-0.310,0.115
2777,-0.310,0.120
2778,-0.320,0.125
2779,-0.320,0.135
2780,-0.305,0.125
2781,-0.305,0.120
2782,-0.320,0.105
2783,-0.325,0.115
2784,-0.325,0.110
2785,-0.320,0.125
2786,-0.315,0.125
2787,-0.340,0.115
2788,-0.340,0.115
2789,-0.340,0.110
2790,-0.335,0.110
2791,-0.335,0.125
2792,-0.335,0.110
2793,-0.330,0.100
2794,-0.335,0.075
2795,-0.345,0.070
2796,-0.355,0.075
2797,-0.340,0.080
2798,-0.330,0.080
2799,-0.335,0.075
2800,-0.340,0.060
2801,-0.345,0.065
2802,-0.350,0.060
2803,-0.335,0.085
2804,-0.330,0.080
2805,-0.340,0.075
2806,-0.360,0.070
2807,-0.355,0.070
2808,-0.355,0.090
2809,-0.335,0.100
2810,-0.320,0.105
2811,-0.335,0.100
2812,-0.350,0.095
2813,-0.350,0.095
2814,-0.365,0.100
2815,-0.345,0.110
2816,-0.340,0.115
2817,-0.335,0.125
2818,-0.350,0.115
2819,-0.360,0.105
2820,-0.355,0.125
2821,-0.350,0.140
2822,-0.325,0.135
2823,-0.315,0.140
2824,-0.315,0.125
2825,-0.330,0.130
2826,-0.320,0.120
2827,-0.325,0.125
2828,-0.305,0.110
2829,-0.305,0.100
2830,-0.310,0.065
2831,-0.320,0.060
2832,-0.310,0.070
2833,-0.305,0.080
2834,-0.285,0.090
2835,-0.270,0.080
2836,-0.270,0.065
2837,-0.275,0.065
2838,-0.255,0.090
2839,-0.240,0.110
2840,-0.210,0.095
2841,-0.200,0.090
2842,-0.220,0.075
2843,-0.210,0.070
2844,-0.195,0.075
2845,-0.180,0.090
2846,-0.155,0.095
2847,-0.150,0.095
2848,-0.165,0.070
2849,-0.160,0.075
2850,-0.165,0.080
2851,-0.155,0.080
2852,-0.150,0.080
2853,-0.145,0.090
2854,-0.160,0.075
2855,-0.175,0.065
2856,-0.180,0.085
2857,-0.160,0.090
2858,-0.155,0.095
2859,-0.160,0.090
2860,-0.175,0.085
2861,-0.175,0.075
2862,-0.175,0.085
2863,-0.160,0.095
2864,-0.160,0.110
2865,-0.170,0.105
2866,-0.175,0.105
2867,-0.195,0.090
2868,-0.195,0.110
2869,-0.185,0.105
2870,-0.175,0.120
2871,-0.180,0.105
2872,-0.190,0.090
2873,-0.190,0.085
2874,-0.205,0.090
2875,-0.185,0.100
2876,-0.175,0.105
2877,-0.170,0.085
2878,-0.180,0.075
2879,-0.185,0.070
2880,-0.180,0.085
2881,-0.165,0.090
2882,-0.180,0.095
2883,-0.165,0.095
2884,-0.175,0.080
2885,-0.175,0.080
2886,-0.165,0.090
2887,-0.145,0.090
2888,-0.150,0.095
2889,-0.150,0.110
2890,-0.150,0.105
2891,-0.145,0.110
2892,-0.145,0.135
2893,-0.130,0.145
2894,-0.125,0.150
2895,-0.120,0.155
2896,-0.120,0.140
2897,-0.130,0.140
2898,-0.120,0.150
2899,-0.110,0.165
2900,-0.100,0.165
2901,-0.110,0.165
2902,-0.115,0.145
2903,-0.130,0.125
2904,-0.135,0.135
2905,-0.120,0.125
2906,-0.110,0.105
2907,-0.120,0.090
2908,-0.135,0.070
2909,-0.150,0.065
2910,-0.160,0.060
2911,-0.145,0.065
2912,-0.150,0.060
2913,-0.135,0.055
2914,-0.150,0.035
2915,-0.160,0.030
2916,-0.180,0.050
2917,-0.170,0.045
2918,-0.165,0.055
2919,-0.170,0.055
2920,-0.170,0.045
2921,-0.185,0.040
2922,-0.185,0.045
2923,-0.175,0.070
2924,-0.180,0.070
2925,-0.160,0.080
2926,-0.165,0.065
2927,-0.175,0.080
2928,-0.170,0.075
2929,-0.170,0.105
2930,-0.155,0.095
2931,-0.160,0.100
2932,-0.170,0.100
2933,-0.170,0.085
2934,-0.175,0.105
2935,-0.155,0.100
2936,-0.145,0.105
2937,-0.145,0.105
2938,-0.155,0.085
2939,-0.170,0.085
2940,-0.170,0.090
2941,-0.150,0.105
2942,-0.140,0.125
2943,-0.145,0.120
2944,-0.155,0.110
2945,-0.155,0.110
2946,-0.175,0.125
2947,-0.170,0.125
2948,-0.145,0.135
2949,-0.140,0.115
2950,-0.135,0.100
2951,-0.130,0.090
2952,-0.140,0.085
2953,-0.140,0.095
2954,-0.120,0.095
2955,-0.125,0.085
2956,-0.140,0.070
2957,-0.135,0.055
2958,-0.135,0.060
2959,-0.130,0.070
2960,-0.125,0.080
2961,-0.130,0.055
2962,-0.145,0.035
2963,-0.140,0.030
2964,-0.145,0.035
2965,-0.135,0.045
2966,-0.140,0.055
2967,-0.130,0.040
2968,-0.145,0.035
2969,-0.160,0.025
2970,-0.170,0.035
2971,-0.140,0.055
2972,-0.135,0.050
2973,-0.145,0.060
2974,-0.135,0.040
2975,-0.115,0.050
2976,-0.060,0.035
2977,0.030,0.035
2978,0.135,0.010
2979,0.230,-0.020
2980,0.330,-0.060
2981,0.415,-0.085
2982,0.525,-0.105
2983,0.655,-0.090
2984,0.760,-0.085
2985,0.845,-0.130
2986,0.885,-0.190
2987,0.885,-0.230
2988,0.855,-0.240
2989,0.800,-0.220
2990,0.725,-0.205
2991,0.610,-0.175
2992,0.440,-0.155
2993,0.255,-0.120
2994,0.105,-0.070
2995,-0.005,-0.035
2996,-0.045,-0.015
2997,-0.095,-0.010
2998,-0.155,-0.005
2999,-0.205,0.015
3000,-0.220,0.035
3001,-0.215,0.055
3002,-0.215,0.060
3003,-0.225,0.070
3004,-0.255,0.055
3005,-0.275,0.060
3006,-0.280,0.070
3007,-0.265,0.085
3008,-0.255,0.095
3009,-0.260,0.075
3010,-0.280,0.060
3011,-0.290,0.065
3012,-0.305,0.080
3013,-0.280,0.100
3014,-0.270,0.080
3015,-0.275,0.070
3016,-0.295,0.050
3017,-0.310,0.045
3018,-0.325,0.060
3019,-0.310,0.060
3020,-0.305,0.055
3021,-0.315,0.045
3022,-0.330,0.040
3023,-0.350,0.045
3024,-0.355,0.055
3025,-0.340,0.070
3026,-0.330,0.060
3027,-0.340,0.065
3028,-0.350,0.060
3029,-0.365,0.050
3030,-0.370,0.060
3031,-0.370,0.080
3032,-0.360,0.085
3033,-0.365,0.075
3034,-0.380,0.080
3035,-0.390,0.060
3036,-0.380,0.060
3037,-0.375,0.080
3038,-0.385,0.075
3039,-0.365,0.070
3040,-0.375,0.060
3041,-0.390,0.050
3042,-0.395,0.050
3043,-0.375,0.060
3044,-0.365,0.070
3045,-0.365,0.065
3046,-0.375,0.065
3047,-0.365,0.060
3048,-0.360,0.075
3049,-0.350,0.080
3050,-0.345,0.090
3051,-0.345,0.065
3052,-0.345,0.055
3053,-0.355,0.050
3054,-0.345,0.050
3055,-0.340,0.075
3056,-0.330,0.070
3057,-0.325,0.065
3058,-0.325,0.065
3059,-0.340,0.065
3060,-0.335,0.070
3061,-0.325,0.075
3062,-0.305,0.085
3063,-0.300,0.080
3064,-0.310,0.075
3065,-0.315,0.075
3066,-0.305,0.095
3067,-0.300,0.100
3068,-0.285,0.100
3069,-0.275,0.105
3070,-0.275,0.080
3071,-0.265,0.080
3072,-0.265,0.095
3073,-0.245,0.100
3074,-0.235,0.095
3075,-0.225,0.085
3076,-0.230,0.055
3077,-0.230,0.055
3078,-0.215,0.055
3079,-0.205,0.055
3080,-0.195,0.055
3081,-0.200,0.025
3082,-0.185,0.010
3083,-0.200,0.000
3084,-0.190,0.015
3085,-0.170,0.015
3086,-0.160,0.005
3087,-0.165,0.005
3088,-0.180,0.005
3089,-0.190,-0.005
3090,-0.180,0.010
3091,-0.175,0.025
3092,-0.155,0.015
3093,-0.160,0.025
3094,-0.170,0.015
3095,-0.190,0.025
3096,-0.195,0.025
3097,-0.190,0.045
3098,-0.180,0.065
3099,-0.180,0.060
3100,-0.185,0.065
3101,-0.185,0.065
3102,-0.175,0.090
3103,-0.165,0.100
3104,-0.155,0.095
3105,-0.165,0.095
3106,-0.170,0.090
3107,-0.185,0.090
3108,-0.190,0.100
3109,-0.160,0.105
3110,-0.150,0.120
3111,-0.150,0.105
3112,-0.165,0.075
3113,-0.180,0.070
3114,-0.180,0.090
3115,-0.180,0.100
3116,-0.145,0.115
3117,-0.145,0.110
3118,-0.160,0.105
3119,-0.170,0.095
3120,-0.165,0.115
3121,-0.155,0.120
3122,-0.130,0.115
3123,-0.120,0.090
3124,-0.130,0.070
3125,-0.135,0.065
3126,-0.145,0.070
3127,-0.140,0.070
3128,-0.125,0.060
3129,-0.130,0.060
3130,-0.135,0.040
3131,-0.140,0.040
3132,-0.140,0.030
3133,-0.140,0.045
3134,-0.125,0.040
3135,-0.140,0.035
3136,-0.145,0.020
3137,-0.160,0.020
3138,-0.150,0.035
3139,-0.140,0.040
3140,-0.145,0.040
3141,-0.160,0.040
3142,-0.170,0.035
3143,-0.165,0.025
3144,-0.170,0.035
3145,-0.165,0.055
3146,-0.150,0.065
3147,-0.160,0.055
3148,-0.160,0.060
3149,-0.170,0.065
3150,-0.190,0.070
3151,-0.175,0.070
3152,-0.165,0.085
3153,-0.165,0.085
3154,-0.180,0.075
3155,-0.185,0.095
3156,-0.200,0.110
3157,-0.175,0.110
3158,-0.165,0.125
3159,-0.170,0.120
3160,-0.180,0.115
3161,-0.175,0.100
3162,-0.185,0.100
3163,-0.180,0.095
3164,-0.175,0.080
3165,-0.170,0.055
3166,-0.175,0.025
3167,-0.180,0.020
3168,-0.185,0.015
3169,-0.175,0.030
3170,-0.145,0.040
3171,-0.145,0.035
3172,-0.150,0.020
3173,-0.155,0.015
3174,-0.150,0.030
3175,-0.130,0.040
3176,-0.130,0.040
3177,-0.135,0.045
3178,-0.130,0.020
3179,-0.130,0.020
3180,-0.150,0.030
3181,-0.125,0.040
3182,-0.110,0.045
3183,-0.125,0.040
3184,-0.120,0.030
3185,-0.125,0.025
3186,-0.115,0.030
3187,-0.125,0.045
3188,-0.125,0.045
3189,-0.110,0.025
3190,-0.130,0.000
3191,-0.150,0.010
3192,-0.145,0.015
3193,-0.135,0.025
3194,-0.125,0.025
3195,-0.145,0.030
3196,-0.150,0.005
3197,-0.145,0.015
3198,-0.150,0.030
3199,-0.140,0.035
3200,-0.130,0.035
3201,-0.140,0.045
3202,-0.155,0.050
3203,-0.170,0.040
3204,-0.175,0.035
3205,-0.165,0.035
3206,-0.155,0.050
3207,-0.170,0.040
3208,-0.185,0.025
3209,-0.195,0.015
3210,-0.190,0.030
3211,-0.195,0.045
3212,-0.165,0.055
3213,-0.160,0.035
3214,-0.175,0.030
3215,-0.185,0.025
3216,-0.190,0.030
3217,-0.185,0.030
3218,-0.170,0.040
3219,-0.160,0.040
3220,-0.160,0.025
3221,-0.155,0.005
3222,-0.170,0.005
3223,-0.170,0.010
3224,-0.150,0.035
3225,-0.150,0.030
3226,-0.155,0.015
3227,-0.150,0.020
3228,-0.150,0.035
3229,-0.140,0.045
3230,-0.100,0.060
3231,-0.105,0.050
3232,-0.115,0.035
3233,-0.140,0.035
3234,-0.130,0.045
3235,-0.090,0.045
3236,-0.015,0.025
3237,0.060,0.000
3238,0.145,-0.025
3239,0.245,-0.060
3240,0.350,-0.070
3241,0.470,-0.095
3242,0.575,-0.130
3243,0.690,-0.150
3244,0.780,-0.165
3245,0.845,-0.205
3246,0.885,-0.250
3247,0.880,-0.270
3248,0.845,-0.280
3249,0.795,-0.280
3250,0.705,-0.275
3251,0.570,-0.245
3252,0.385,-0.205
3253,0.195,-0.150
3254,0.065,-0.120
3255,-0.025,-0.110
3256,-0.070,-0.100
3257,-0.115,-0.085
3258,-0.165,-0.065
3259,-0.200,-0.040
3260,-0.235,-0.035
3261,-0.235,-0.010
3262,-0.235,-0.005
3263,-0.255,-0.005
3264,-0.255,0.015
3265,-0.285,0.040
3266,-0.275,0.050
3267,-0.275,0.030
3268,-0.305,0.030
3269,-0.300,0.035
3270,-0.310,0.050
3271,-0.315,0.060
3272,-0.300,0.060
3273,-0.310,0.060
3274,-0.315,0.040
3275,-0.320,0.045
3276,-0.325,0.050
3277,-0.330,0.055
3278,-0.315,0.055
3279,-0.330,0.060
3280,-0.340,0.040
3281,-0.345,0.045
3282,-0.340,0.060
3283,-0.340,0.070
3284,-0.320,0.065
3285,-0.320,0.070
3286,-0.340,0.040
3287,-0.355,0.050
3288,-0.350,0.065
3289,-0.340,0.070
3290,-0.320,0.075
3291,-0.325,0.065
3292,-0.335,0.060
3293,-0.340,0.050
3294,-0.360,0.065
3295,-0.345,0.060
3296,-0.345,0.050
3297,-0.335,0.045
3298,-0.350,0.030
3299,-0.350,0.005
3300,-0.365,0.020
3301,-0.350,0.025
3302,-0.330,0.005
3303,-0.335,-0.010
3304,-0.335,-0.040
3305,-0.335,-0.040
3306,-0.325,-0.030
3307,-0.320,-0.020
3308,-0.310,-0.010
3309,-0.305,-0.005
3310,-0.315,-0.005
3311,-0.325,-0.015
3312,-0.320,-0.020
3313,-0.315,0.005
3314,-0.295,0.010
3315,-0.300,0.005
3316,-0.310,0.015
3317,-0.320,0.010
3318,-0.320,0.020
3319,-0.310,0.045
3320,-0.295,0.065
3321,-0.285,0.065
3322,-0.285,0.055
3323,-0.295,0.050
3324,-0.300,0.050
3325,-0.280,0.070
3326,-0.250,0.080
3327,-0.260,0.085
3328,-0.260,0.065
3329,-0.245,0.060
3330,-0.245,0.060
3331,-0.240,0.065
3332,-0.225,0.065
3333,-0.215,0.055
3334,-0.205,0.045
3335,-0.215,0.050
3336,-0.215,0.050
3337,-0.205,0.050
3338,-0.190,0.055
3339,-0.170,0.050
3340,-0.180,0.025
3341,-0.190,0.010
3342,-0.185,0.015
3343,-0.180,0.035
3344,-0.165,0.040
3345,-0.180,0.025
3346,-0.185,0.020
3347,-0.185,0.010
3348,-0.180,0.005
3349,-0.180,0.020
3350,-0.165,0.015
3351,-0.170,0.020
3352,-0.180,0.010
3353,-0.190,-0.005
3354,-0.180,0.010
3355,-0.185,0.025
3356,-0.165,0.025
3357,-0.170,0.035
3358,-0.180,0.025
3359,-0.180,0.025
3360,-0.190,0.030
3361,-0.175,0.050
3362,-0.175,0.065
3363,-0.175,0.055
3364,-0.190,0.050
3365,-0.195,0.050
3366,-0.210,0.060
3367,-0.195,0.085
3368,-0.190,0.100
3369,-0.180,0.105
3370,-0.200,0.090
3371,-0.210,0.100
3372,-0.195,0.120
3373,-0.175,0.125
3374,-0.160,0.140
3375,-0.165,0.130
3376,-0.175,0.125
3377,-0.175,0.125
3378,-0.185,0.140
3379,-0.170,0.145
3380,-0.155,0.145
3381,-0.160,0.130
3382,-0.170,0.105
3383,-0.175,0.090
3384,-0.175,0.085
3385,-0.160,0.065
3386,-0.150,0.040
3387,-0.145,0.015
3388,-0.155,-0.005
3389,-0.155,-0.005
3390,-0.150,0.005
3391,-0.140,0.005
3392,-0.135,0.010
3393,-0.125,0.000
3394,-0.145,-0.010
3395,-0.155,-0.015
3396,-0.155,0.000
3397,-0.150,-0.005
3398,-0.130,0.000
3399,-0.130,0.000
3400,-0.155,-0.015
3401,-0.160,-0.015
3402,-0.155,-0.010
3403,-0.160,-0.010
3404,-0.150,0.000
3405,-0.155,-0.015
3406,-0.165,-0.025
3407,-0.170,-0.020
3408,-0.180,-0.010
3409,-0.170,-0.010
3410,-0.155,-0.005
3411,-0.165,0.005
3412,-0.175,-0.005
3413,-0.180,-0.015
3414,-0.185,0.005
3415,-0.185,0.020
3416,-0.175,0.025
3417,-0.170,0.025
3418,-0.190,0.005
3419,-0.195,0.020
3420,-0.195,0.030
3421,-0.190,0.055
3422,-0.180,0.060
3423,-0.180,0.060
3424,-0.210,0.060
3425,-0.200,0.050
3426,-0.200,0.080
3427,-0.200,0.090
3428,-0.185,0.100
3429,-0.200,0.100
3430,-0.210,0.100
3431,-0.205,0.090
3432,-0.200,0.100
3433,-0.175,0.080
3434,-0.180,0.080
3435,-0.165,0.045
3436,-0.170,0.035
3437,-0.185,0.025
3438,-0.170,0.030
3439,-0.155,0.025
3440,-0.130,0.025
3441,-0.130,0.015
3442,-0.145,0.005
3443,-0.155,0.000
3444,-0.145,0.005
3445,-0.130,0.005
3446,-0.135,0.020
3447,-0.130,0.010
3448,-0.135,0.005
3449,-0.155,-0.010
3450,-0.155,0.015
3451,-0.145,0.020
3452,-0.105,0.005
3453,-0.065,-0.005
3454,-0.005,-0.035
3455,0.090,-0.075
3456,0.190,-0.095
3457,0.305,-0.125
3458,0.425,-0.155
3459,0.530,-0.185
3460,0.625,-0.205
3461,0.715,-0.210
3462,0.815,-0.230
3463,0.895,-0.255
3464,0.910,-0.280
3465,0.860,-0.305
3466,0.790,-0.310
3467,0.720,-0.310
3468,0.615,-0.265
3469,0.480,-0.220
3470,0.315,-0.155
3471,0.125,-0.110
3472,-0.025,-0.100
3473,-0.105,-0.075
3474,-0.155,-0.040
3475,-0.190,-0.005
3476,-0.230,0.010
3477,-0.265,0.030
3478,-0.290,0.020
3479,-0.295,0.020
3480,-0.300,0.035
3481,-0.320,0.045
3482,-0.300,0.050
3483,-0.300,0.040
3484,-0.335,0.030
3485,-0.350,0.020
3486,-0.355,0.030
3487,-0.345,0.025
3488,-0.335,0.025
3489,-0.345,0.015
3490,-0.375,-0.005
3491,-0.350,0.010
3492,-0.365,0.020
3493,-0.355,0.040
3494,-0.345,0.045
3495,-0.345,0.035
3496,-0.365,0.030
3497,-0.365,0.025
3498,-0.355,0.025
3499,-0.360,0.035
3500,-0.350,0.050
3501,-0.350,0.050
3502,-0.365,0.025
3503,-0.385,0.020
3504,-0.380,0.040
3505,-0.360,0.050
3506,-0.355,0.040
3507,-0.370,0.045
3508,-0.395,0.030
3509,-0.395,0.030
3510,-0.400,0.025
3511,-0.395,0.035
3512,-0.385,0.045
3513,-0.380,0.040
3514,-0.400,0.030
3515,-0.395,0.010
3516,-0.410,0.020
3517,-0.395,0.020
3518,-0.375,0.010
3519,-0.375,0.000
3520,-0.390,0.005
3521,-0.400,0.000
3522,-0.400,0.010
3523,-0.390,0.010
3524,-0.385,0.035
3525,-0.395,0.030
3526,-0.400,0.010
3527,-0.410,0.010
3528,-0.415,0.025
3529,-0.400,0.035
3530,-0.395,0.035
3531,-0.395,0.045
3532,-0.390,0.040
3533,-0.390,0.030
3534,-0.390,0.050
3535,-0.375,0.060
3536,-0.365,0.080
3537,-0.365,0.065
3538,-0.375,0.045
3539,-0.380,0.060
3540,-0.370,0.055
3541,-0.340,0.075
3542,-0.320,0.080
3543,-0.320,0.070
3544,-0.325,0.050
3545,-0.325,0.055
3546,-0.315,0.075
3547,-0.280,0.075
3548,-0.270,0.080
3549,-0.275,0.070
3550,-0.265,0.065
3551,-0.255,0.070
3552,-0.245,0.065
3553,-0.215,0.065
3554,-0.200,0.055
3555,-0.185,0.050
3556,-0.210,0.025
3557,-0.205,0.020
3558,-0.210,0.005
3559,-0.200,0.005
3560,-0.200,0.000
3561,-0.195,-0.005
3562,-0.205,-0.020
3563,-0.220,-0.035
3564,-0.215,-0.035
3565,-0.215,-0.005
3566,-0.210,-0.005
3567,-0.210,-0.020
3568,-0.210,-0.015
3569,-0.240,-0.020
3570,-0.240,-0.015
3571,-0.230,0.005
3572,-0.225,0.015
3573,-0.215,0.015
3574,-0.215,0.010
3575,-0.225,0.020
3576,-0.235,0.040
3577,-0.245,0.045
3578,-0.225,0.060
3579,-0.235,0.065
3580,-0.245,0.075
3581,-0.245,0.070
3582,-0.255,0.100
3583,-0.230,0.115
3584,-0.230,0.120
3585,-0.230,0.120
3586,-0.235,0.105
3587,-0.240,0.105
3588,-0.230,0.105
3589,-0.220,0.125
3590,-0.210,0.120
3591,-0.210,0.120
3592,-0.210,0.100
3593,-0.210,0.095
3594,-0.205,0.085
3595,-0.195,0.090
3596,-0.180,0.090
3597,-0.175,0.075
3598,-0.185,0.060
3599,-0.190,0.045
3600,-0.195,0.045
3601,-0.180,0.050
3602,-0.160,0.055
3603,-0.160,0.045
3604,-0.165,0.025
3605,-0.170,0.020
3606,-0.180,0.030
3607,-0.165,0.030
3608,-0.155,0.025
3609,-0.150,0.020
3610,-0.155,0.015
3611,-0.165,0.025
3612,-0.180,0.010
3613,-0.170,0.015
3614,-0.170,0.015
3615,-0.175,0.010
3616,-0.185,0.000
3617,-0.195,-0.005
3618,-0.195,0.015
3619,-0.195,0.005
3620,-0.185,0.015
3621,-0.200,0.010
3622,-0.210,0.000
3623,-0.210,0.000
3624,-0.210,0.020
3625,-0.215,0.050
3626,-0.215,0.055
3627,-0.210,0.060
3628,-0.220,0.065
3629,-0.240,0.055
3630,-0.240,0.090
3631,-0.230,0.110
3632,-0.225,0.130
3633,-0.215,0.125
3634,-0.210,0.130
3635,-0.220,0.125
3636,-0.210,0.110
3637,-0.195,0.095
3638,-0.190,0.110
3639,-0.195,0.090
3640,-0.215,0.070
3641,-0.225,0.065
3642,-0.215,0.060
3643,-0.200,0.065
3644,-0.195,0.065
3645,-0.195,0.055
3646,-0.205,0.040
3647,-0.205,0.035
3648,-0.205,0.040
3649,-0.200,0.050
3650,-0.180,0.045
3651,-0.175,0.040
3652,-0.175,0.040
3653,-0.180,0.030
3654,-0.180,0.020
3655,-0.165,0.025
3656,-0.150,0.030
3657,-0.145,0.025
3658,-0.155,0.015
3659,-0.165,0.010
3660,-0.180,0.030
3661,-0.175,0.060
3662,-0.160,0.055
3663,-0.120,0.035
3664,-0.080,0.005
3665,-0.015,-0.025
3666,0.075,-0.040
3667,0.205,-0.060
3668,0.325,-0.090
3669,0.430,-0.130
3670,0.530,-0.175
3671,0.660,-0.180
3672,0.755,-0.180
3673,0.845,-0.200
3674,0.880,-0.220
3675,0.865,-0.260
3676,0.790,-0.285
3677,0.700,-0.270
3678,0.585,-0.235
3679,0.440,-0.190
3680,0.280,-0.145
3681,0.070,-0.110
3682,-0.080,-0.090
3683,-0.155,-0.070
3684,-0.195,-0.035
3685,-0.225,0.010
3686,-0.260,0.025
3687,-0.285,0.045
3688,-0.305,0.040
3689,-0.325,0.035
3690,-0.335,0.055
3691,-0.335,0.085
3692,-0.325,0.090
3693,-0.330,0.075
3694,-0.345,0.060
3695,-0.370,0.065
3696,-0.370,0.065
3697,-0.360,0.065
3698,-0.355,0.060
3699,-0.360,0.065
3700,-0.360,0.055
3701,-0.370,0.045
3702,-0.390,0.050
3703,-0.380,0.060
3704,-0.370,0.060
3705,-0.360,0.055
3706,-0.365,0.040
3707,-0.375,0.030
3708,-0.375,0.050
3709,-0.380,0.065
3710,-0.375,0.060
3711,-0.380,0.060
3712,-0.385,0.055
3713,-0.400,0.045
3714,-0.400,0.055
3715,-0.395,0.080
3716,-0.385,0.065
3717,-0.395,0.065
3718,-0.410,0.060
3719,-0.420,0.060
3720,-0.430,0.065
3721,-0.410,0.085
3722,-0.415,0.085
3723,-0.420,0.090
3724,-0.430,0.075
3725,-0.435,0.080
3726,-0.435,0.065
3727,-0.415,0.080
3728,-0.395,0.070
3729,-0.405,0.045
3730,-0.415,0.020
3731,-0.415,0.010
3732,-0.425,0.005
3733,-0.430,0.035
3734,-0.400,0.050
3735,-0.405,0.040
3736,-0.415,0.025
3737,-0.425,0.020
3738,-0.435,0.030
3739,-0.425,0.050
3740,-0.420,0.075
3741,-0.425,0.070
3742,-0.415,0.050
3743,-0.430,0.055
3744,-0.420,0.055
3745,-0.400,0.070
3746,-0.385,0.065
3747,-0.385,0.060
3748,-0.390,0.050
3749,-0.385,0.045
3750,-0.385,0.035
3751,-0.370,0.045
3752,-0.350,0.050
3753,-0.345,0.035
3754,-0.340,0.030
3755,-0.335,0.035
3756,-0.325,0.050
3757,-0.295,0.060
3758,-0.270,0.055
3759,-0.270,0.065
3760,-0.260,0.055
3761,-0.260,0.045
3762,-0.255,0.060
3763,-0.235,0.075
3764,-0.205,0.065
3765,-0.200,0.080
3766,-0.230,0.065
3767,-0.225,0.050
3768,-0.230,0.065
3769,-0.230,0.080
3770,-0.220,0.075
3771,-0.235,0.065
3772,-0.225,0.055
3773,-0.245,0.045
3774,-0.260,0.065
3775,-0.245,0.075
3776,-0.230,0.070
3777,-0.245,0.065
3778,-0.245,0.040
3779,-0.255,0.040
3780,-0.255,0.040
3781,-0.250,0.040
3782,-0.225,0.040
3783,-0.240,0.050
3784,-0.240,0.040
3785,-0.245,0.040
3786,-0.255,0.045
3787,-0.250,0.060
3788,-0.240,0.075
3789,-0.250,0.070
3790,-0.260,0.075
3791,-0.250,0.075
3792,-0.260,0.090
3793,-0.245,0.100
3794,-0.235,0.115
3795,-0.235,0.115
3796,-0.240,0.125
3797,-0.260,0.120
3798,-0.245,0.120
3799,-0.235,0.130
3800,-0.220,0.130
3801,-0.220,0.120
3802,-0.235,0.115
3803,-0.245,0.100
3804,-0.240,0.100
3805,-0.230,0.115
3806,-0.215,0.125
3807,-0.205,0.120
3808,-0.225,0.105
3809,-0.230,0.110
3810,-0.225,0.110
3811,-0.210,0.130
3812,-0.185,0.130
3813,-0.180,0.115
3814,-0.205,0.100
3815,-0.200,0.090
3816,-0.215,0.100
3817,-0.200,0.090
3818,-0.190,0.085
3819,-0.195,0.075
3820,-0.200,0.050
3821,-0.225,0.045
3822,-0.240,0.035
3823,-0.245,0.045
3824,-0.265,0.025
3825,-0.320,0.015
3826,-0.390,0.005
3827,-0.445,-0.005
3828,-0.455,-0.005
3829,-0.470,0.005
3830,-0.475,0.020
3831,-0.530,0.025
3832,-0.570,0.040
3833,-0.625,0.050
3834,-0.675,0.080
3835,-0.695,0.110
3836,-0.735,0.130
3837,-0.810,0.145
3838,-0.860,0.150
3839,-0.935,0.160
3840,-0.985,0.160
3841,-1.000,0.165
3842,-0.985,0.155
3843,-0.955,0.155
3844,-0.925,0.150
3845,-0.890,0.160
3846,-0.840,0.205
3847,-0.785,0.280
3848,-0.750,0.315
3849,-0.710,0.345
3850,-0.680,0.340
3851,-0.655,0.360
3852,-0.620,0.385
3853,-0.585,0.410
3854,-0.560,0.430
3855,-0.535,0.425
3856,-0.515,0.405
3857,-0.470,0.345
3858,-0.425,0.290
3859,-0.340,0.240
3860,-0.270,0.185
3861,-0.215,0.130
3862,-0.185,0.090
3863,-0.160,0.080
3864,-0.145,0.085
3865,-0.130,0.090
3866,-0.125,0.065
3867,-0.110,0.025
3868,-0.125,0.010
3869,-0.120,-0.005
3870,-0.105,-0.015
3871,-0.095,-0.015
3872,-0.065,-0.030
3873,-0.075,-0.040
3874,-0.080,-0.050
3875,-0.095,-0.060
3876,-0.070,-0.060
3877,-0.060,-0.055
3878,-0.055,-0.050
3879,-0.045,-0.050
3880,-0.045,-0.070
3881,-0.060,-0.065
3882,-0.055,-0.050
3883,-0.025,-0.045
3884,-0.005,-0.030
3885,-0.020,-0.030
3886,-0.010,-0.030
3887,-0.010,-0.040
3888,0.000,-0.025
3889,0.020,-0.010
3890,0.030,0.005
3891,0.045,0.000
3892,0.040,0.000
3893,0.050,-0.015
3894,0.050,-0.005
3895,0.085,0.000
3896,0.095,0.025
3897,0.105,0.025
3898,0.110,0.015
3899,0.115,0.025
3900,0.120,0.025
3901,0.140,0.035
3902,0.175,0.035
3903,0.180,0.035
3904,0.185,0.020
3905,0.195,0.005
3906,0.205,0.020
3907,0.220,0.020
3908,0.240,0.015
3909,0.245,-0.005
3910,0.250,-0.015
3911,0.240,-0.045
3912,0.245,-0.050
3913,0.270,-0.040
3914,0.285,-0.045
3915,0.280,-0.060
3916,0.260,-0.075
3917,0.255,-0.105
3918,0.250,-0.090
3919,0.255,-0.095
3920,0.265,-0.095
3921,0.255,-0.090
3922,0.230,-0.100
3923,0.220,-0.105
3924,0.205,-0.090
3925,0.200,-0.085
3926,0.200,-0.080
3927,0.175,-0.080
3928,0.140,-0.080
3929,0.130,-0.085
3930,0.105,-0.060
3931,0.075,-0.050
3932,0.075,-0.035
3933,0.050,-0.045
3934,0.050,-0.050
3935,0.025,-0.035
3936,0.000,-0.030
3937,-0.010,-0.010
3938,-0.015,0.010
3939,-0.020,0.020
3940,-0.040,0.020
3941,-0.060,0.025
3942,-0.080,0.055
3943,-0.080,0.070
3944,-0.075,0.080
3945,-0.105,0.095
3946,-0.130,0.090
3947,-0.150,0.090
3948,-0.155,0.105
3949,-0.150,0.115
3950,-0.150,0.120
3951,-0.160,0.120
3952,-0.190,0.125
3953,-0.185,0.115
3954,-0.205,0.120
3955,-0.205,0.135
3956,-0.190,0.135
3957,-0.185,0.135
3958,-0.195,0.125
3959,-0.200,0.110
3960,-0.205,0.110
3961,-0.195,0.120
3962,-0.190,0.120
3963,-0.190,0.105
3964,-0.190,0.085
3965,-0.195,0.075
3966,-0.195,0.065
3967,-0.195,0.070
3968,-0.180,0.070
3969,-0.185,0.065
3970,-0.185,0.080
3971,-0.185,0.070
3972,-0.180,0.070
3973,-0.170,0.090
3974,-0.145,0.125
3975,-0.160,0.105
3976,-0.165,0.095
3977,-0.175,0.095
3978,-0.180,0.100
3979,-0.160,0.115
3980,-0.150,0.115
3981,-0.160,0.110
3982,-0.185,0.105
3983,-0.175,0.110
3984,-0.195,0.115
3985,-0.190,0.130
3986,-0.190,0.125
3987,-0.190,0.130
3988,-0.205,0.120
3989,-0.210,0.120
3990,-0.220,0.120
3991,-0.220,0.130
3992,-0.210,0.135
3993,-0.225,0.125
3994,-0.225,0.125
3995,-0.245,0.130
3996,-0.260,0.135
3997,-0.250,0.145
3998,-0.240,0.160
3999,-0.255,0.140
4000,-0.260,0.130
4001,-0.275,0.105
4002,-0.275,0.100
4003,-0.265,0.100
4004,-0.260,0.105
4005,-0.255,0.105
4006,-0.280,0.085
4007,-0.300,0.085
4008,-0.280,0.095
4009,-0.280,0.110
4010,-0.270,0.110
4011,-0.275,0.120
4012,-0.285,0.120
4013,-0.305,0.100
4014,-0.300,0.120
4015,-0.290,0.135
4016,-0.280,0.135
4017,-0.275,0.125
4018,-0.285,0.105
4019,-0.300,0.105
4020,-0.305,0.110
4021,-0.295,0.120
4022,-0.265,0.135
4023,-0.260,0.130
4024,-0.285,0.115
4025,-0.300,0.105
4026,-0.285,0.115
4027,-0.270,0.135
4028,-0.265,0.135
4029,-0.260,0.125
4030,-0.270,0.100
4031,-0.280,0.105
4032,-0.275,0.120
4033,-0.275,0.120
4034,-0.250,0.130
4035,-0.265,0.135
4036,-0.265,0.125
4037,-0.270,0.105
4038,-0.280,0.115
4039,-0.265,0.120
4040,-0.260,0.145
4041,-0.265,0.130
4042,-0.290,0.110
4043,-0.300,0.110
4044,-0.300,0.125
4045,-0.290,0.125
4046,-0.275,0.130
4047,-0.300,0.130
4048,-0.300,0.115
4049,-0.310,0.100
4050,-0.330,0.105
4051,-0.320,0.110
4052,-0.315,0.115
4053,-0.325,0.110
4054,-0.330,0.075
4055,-0.340,0.060
4056,-0.365,0.055
4057,-0.340,0.055
4058,-0.330,0.060
4059,-0.330,0.070
4060,-0.335,0.050
4061,-0.330,0.050
4062,-0.355,0.070
4063,-0.340,0.090
4064,-0.330,0.105
4065,-0.330,0.110
4066,-0.330,0.105
4067,-0.330,0.100
4068,-0.330,0.100
4069,-0.340,0.125
4070,-0.320,0.130
4071,-0.320,0.125
4072,-0.330,0.110
4073,-0.330,0.115
4074,-0.345,0.115
4075,-0.335,0.120
4076,-0.320,0.120
4077,-0.315,0.130
4078,-0.325,0.110
4079,-0.325,0.125
4080,-0.340,0.125
4081,-0.320,0.145
4082,-0.320,0.150
4083,-0.305,0.150
4084,-0.305,0.135
4085,-0.305,0.140
4086,-0.305,0.140
4087,-0.300,0.145
4088,-0.290,0.140
4089,-0.285,0.150
4090,-0.295,0.135
4091,-0.310,0.125
4092,-0.305,0.125
4093,-0.305,0.140
4094,-0.310,0.140
4095,-0.305,0.150
4096,-0.300,0.130
4097,-0.330,0.135
4098,-0.335,0.140
4099,-0.325,0.165
4100,-0.320,0.165
4101,-0.325,0.145
4102,-0.335,0.110
4103,-0.335,0.085
4104,-0.340,0.090
4105,-0.330,0.095
4106,-0.325,0.070
4107,-0.330,0.060
4108,-0.330,0.045
4109,-0.345,0.050
4110,-0.345,0.045
4111,-0.310,0.060
4112,-0.310,0.070
4113,-0.305,0.065
4114,-0.325,0.065
4115,-0.330,0.055
4116,-0.320,0.070
4117,-0.320,0.095
4118,-0.305,0.115
4119,-0.305,0.115
4120,-0.305,0.110
4121,-0.300,0.105
4122,-0.315,0.110
4123,-0.305,0.120
4124,-0.285,0.125
4125,-0.285,0.110
4126,-0.290,0.110
4127,-0.305,0.100
4128,-0.320,0.100
4129,-0.300,0.095
4130,-0.275,0.095
4131,-0.270,0.100
4132,-0.275,0.095
4133,-0.275,0.095
4134,-0.275,0.115
4135,-0.275,0.130
4136,-0.255,0.125
4137,-0.245,0.125
4138,-0.260,0.120
4139,-0.275,0.125
4140,-0.270,0.120
4141,-0.215,0.125
4142,-0.130,0.105
4143,-0.030,0.075
4144,0.060,0.050
4145,0.165,0.015
4146,0.275,-0.010
4147,0.395,-0.025
4148,0.510,-0.045
4149,0.620,-0.070
4150,0.680,-0.145
4151,0.710,-0.210
4152,0.690,-0.255
4153,0.660,-0.265
4154,0.605,-0.260
4155,0.480,-0.235
4156,0.305,-0.200
4157,0.090,-0.140
4158,-0.100,-0.085
4159,-0.195,-0.035
4160,-0.215,0.005
4161,-0.260,0.035
4162,-0.315,0.045
4163,-0.350,0.060
4164,-0.375,0.090
4165,-0.360,0.100
4166,-0.365,0.130
4167,-0.375,0.130
4168,-0.385,0.135
4169,-0.410,0.130
4170,-0.415,0.145
4171,-0.395,0.165
4172,-0.390,0.175
4173,-0.400,0.180
4174,-0.415,0.180
4175,-0.435,0.165
4176,-0.425,0.165
4177,-0.415,0.185
4178,-0.405,0.190
4179,-0.415,0.180
4180,-0.430,0.165
4181,-0.430,0.165
4182,-0.455,0.170
4183,-0.430,0.180
4184,-0.420,0.190
4185,-0.420,0.180
4186,-0.425,0.165
4187,-0.425,0.160
4188,-0.430,0.175
4189,-0.405,0.185
4190,-0.405,0.190
4191,-0.415,0.170
4192,-0.420,0.150
4193,-0.425,0.130
4194,-0.430,0.120
4195,-0.430,0.125
4196,-0.410,0.115
4197,-0.420,0.095
4198,-0.435,0.085
4199,-0.435,0.065
4200,-0.445,0.055
4201,-0.440,0.065
4202,-0.420,0.070
4203,-0.435,0.065
4204,-0.435,0.055
4205,-0.445,0.055
4206,-0.425,0.060
4207,-0.420,0.070
4208,-0.405,0.075
4209,-0.395,0.075
4210,-0.415,0.065
4211,-0.425,0.070
4212,-0.410,0.090
4213,-0.405,0.095
4214,-0.380,0.120
4215,-0.385,0.115
4216,-0.390,0.095
4217,-0.400,0.110
4218,-0.400,0.120
4219,-0.395,0.145
4220,-0.385,0.155
4221,-0.380,0.160
4222,-0.380,0.145
4223,-0.370,0.140
4224,-0.375,0.150
4225,-0.360,0.170
4226,-0.335,0.185
4227,-0.340,0.170
4228,-0.345,0.165
4229,-0.350,0.155
4230,-0.350,0.160
4231,-0.345,0.155
4232,-0.315,0.155
4233,-0.320,0.150
4234,-0.325,0.130
4235,-0.320,0.125
4236,-0.320,0.120
4237,-0.300,0.130
4238,-0.285,0.140
4239,-0.270,0.130
4240,-0.270,0.115
4241,-0.270,0.095
4242,-0.255,0.080
4243,-0.240,0.080
4244,-0.235,0.075
4245,-0.245,0.075
4246,-0.230,0.070
4247,-0.220,0.065
4248,-0.230,0.080
4249,-0.230,0.095
4250,-0.215,0.100
4251,-0.210,0.090
4252,-0.225,0.090
4253,-0.230,0.075
4254,-0.235,0.080
4255,-0.235,0.100
4256,-0.200,0.105
4257,-0.200,0.100
4258,-0.215,0.105
4259,-0.235,0.100
4260,-0.230,0.120
4261,-0.210,0.135
4262,-0.195,0.155
4263,-0.205,0.145
4264,-0.220,0.140
4265,-0.240,0.155
4266,-0.250,0.155
4267,-0.230,0.175
4268,-0.225,0.175
4269,-0.210,0.190
4270,-0.225,0.185
4271,-0.235,0.175
4272,-0.240,0.200
4273,-0.230,0.220
4274,-0.205,0.230
4275,-0.205,0.225
4276,-0.190,0.215
4277,-0.205,0.210
4278,-0.220,0.215
4279,-0.215,0.215
4280,-0.190,0.215
4281,-0.190,0.210
4282,-0.195,0.185
4283,-0.185,0.150
4284,-0.200,0.150
4285,-0.175,0.135
4286,-0.170,0.115
4287,-0.175,0.105
4288,-0.180,0.055
4289,-0.185,0.065
4290,-0.190,0.080
4291,-0.170,0.085
4292,-0.155,0.100
4293,-0.150,0.090
4294,-0.175,0.070
4295,-0.180,0.070
4296,-0.180,0.085
4297,-0.170,0.090
4298,-0.150,0.090
4299,-0.165,0.095
4300,-0.175,0.085
4301,-0.185,0.065
4302,-0.180,0.075
4303,-0.170,0.090
4304,-0.165,0.095
4305,-0.170,0.095
4306,-0.185,0.085
4307,-0.195,0.075
4308,-0.185,0.080
4309,-0.180,0.095
4310,-0.170,0.095
4311,-0.185,0.100
4312,-0.195,0.090
4313,-0.200,0.095
4314,-0.190,0.120
4315,-0.180,0.125
4316,-0.190,0.135
4317,-0.180,0.140
4318,-0.195,0.135
4319,-0.210,0.130
4320,-0.215,0.145
4321,-0.210,0.155
4322,-0.205,0.175
4323,-0.200,0.175
4324,-0.195,0.175
4325,-0.210,0.185
4326,-0.215,0.190
4327,-0.180,0.205
4328,-0.180,0.210
4329,-0.185,0.205
4330,-0.195,0.200
4331,-0.205,0.205
4332,-0.205,0.215
4333,-0.185,0.225
4334,-0.175,0.230
4335,-0.175,0.195
4336,-0.180,0.170
4337,-0.175,0.160
4338,-0.175,0.150
4339,-0.155,0.125
4340,-0.155,0.110
4341,-0.145,0.085
4342,-0.155,0.075
4343,-0.160,0.065
4344,-0.160,0.060
4345,-0.165,0.075
4346,-0.150,0.065
4347,-0.140,0.045
4348,-0.160,0.050
4349,-0.160,0.045
4350,-0.185,0.035
4351,-0.170,0.050
4352,-0.140,0.070
4353,-0.150,0.055
4354,-0.160,0.035
4355,-0.170,0.030
4356,-0.180,0.035
4357,-0.170,0.045
4358,-0.170,0.050
4359,-0.165,0.055
4360,-0.180,0.045
4361,-0.175,0.045
4362,-0.175,0.060
4363,-0.165,0.070
4364,-0.145,0.075
4365,-0.150,0.070
4366,-0.175,0.070
4367,-0.175,0.075
4368,-0.175,0.105
4369,-0.160,0.100
4370,-0.105,0.105
4371,-0.040,0.095
4372,0.040,0.075
4373,0.140,0.035
4374,0.245,0.040
4375,0.375,0.015
4376,0.495,-0.005
4377,0.625,-0.010
4378,0.725,-0.015
4379,0.815,-0.040
4380,0.890,-0.075
4381,0.905,-0.100
4382,0.895,-0.115
4383,0.845,-0.150
4384,0.745,-0.155
4385,0.610,-0.140
4386,0.440,-0.095
4387,0.240,-0.040
4388,0.075,-0.005
4389,-0.025,0.010
4390,-0.080,0.030
4391,-0.135,0.040
4392,-0.175,0.060
4393,-0.210,0.080
4394,-0.205,0.090
4395,-0.210,0.090
4396,-0.220,0.090
4397,-0.245,0.080
4398,-0.260,0.095
4399,-0.255,0.105
4400,-0.245,0.100
4401,-0.265,0.100
4402,-0.270,0.100
4403,-0.290,0.085
4404,-0.295,0.100
4405,-0.290,0.110
4406,-0.290,0.120
4407,-0.310,0.120
4408,-0.325,0.105
4409,-0.330,0.110
4410,-0.330,0.110
4411,-0.340,0.105
4412,-0.330,0.115
4413,-0.340,0.110
4414,-0.355,0.105
4415,-0.365,0.105
4416,-0.375,0.110
4417,-0.365,0.120
4418,-0.355,0.140
4419,-0.360,0.125
4420,-0.380,0.125
4421,-0.385,0.130
4422,-0.385,0.150
4423,-0.380,0.160
4424,-0.365,0.165
4425,-0.390,0.165
4426,-0.390,0.150
4427,-0.425,0.155
4428,-0.420,0.150
4429,-0.385,0.185
4430,-0.385,0.185
4431,-0.375,0.190
4432,-0.380,0.175
4433,-0.385,0.170
4434,-0.395,0.160
4435,-0.385,0.160
4436,-0.370,0.170
4437,-0.390,0.145
4438,-0.380,0.110
4439,-0.375,0.110
4440,-0.375,0.110
4441,-0.355,0.125
4442,-0.345,0.140
4443,-0.335,0.135
4444,-0.325,0.105
4445,-0.325,0.100
4446,-0.315,0.125
4447,-0.300,0.115
4448,-0.285,0.115
4449,-0.280,0.120
4450,-0.275,0.110
4451,-0.285,0.105
4452,-0.275,0.100
4453,-0.260,0.110
4454,-0.250,0.125
4455,-0.240,0.115
4456,-0.230,0.110
4457,-0.230,0.095
4458,-0.225,0.115
4459,-0.210,0.120
4460,-0.205,0.135
4461,-0.195,0.130
4462,-0.200,0.120
4463,-0.195,0.125
4464,-0.185,0.145
4465,-0.185,0.155
4466,-0.185,0.160
4467,-0.180,0.165
4468,-0.200,0.155
4469,-0.195,0.155
4470,-0.200,0.165
4471,-0.200,0.165
4472,-0.190,0.190
4473,-0.205,0.175
4474,-0.215,0.175
4475,-0.210,0.175
4476,-0.200,0.190
4477,-0.205,0.195
4478,-0.185,0.205
4479,-0.185,0.190
4480,-0.205,0.175
4481,-0.225,0.165
4482,-0.225,0.150
4483,-0.210,0.150
4484,-0.195,0.150
4485,-0.210,0.155
4486,-0.205,0.120
4487,-0.215,0.105
4488,-0.225,0.095
4489,-0.215,0.110
4490,-0.190,0.090
4491,-0.185,0.075
4492,-0.190,0.070
4493,-0.195,0.075
4494,-0.205,0.085
4495,-0.190,0.090
4496,-0.180,0.095
4497,-0.170,0.105
4498,-0.180,0.095
4499,-0.185,0.100
4500,-0.185,0.115
4501,-0.165,0.135
4502,-0.155,0.145
4503,-0.155,0.160
4504,-0.155,0.135
4505,-0.175,0.140
4506,-0.190,0.145
4507,-0.175,0.160
4508,-0.155,0.160
4509,-0.155,0.150
4510,-0.170,0.145
4511,-0.180,0.155
4512,-0.190,0.155
4513,-0.175,0.185
4514,-0.160,0.195
4515,-0.155,0.190
4516,-0.185,0.175
4517,-0.185,0.170
4518,-0.200,0.185
4519,-0.190,0.195
4520,-0.170,0.220
4521,-0.185,0.220
4522,-0.185,0.205
4523,-0.200,0.200
4524,-0.190,0.205
4525,-0.180,0.220
4526,-0.175,0.225
4527,-0.175,0.215
4528,-0.190,0.215
4529,-0.200,0.205
4530,-0.185,0.195
4531,-0.170,0.200
4532,-0.165,0.205
4533,-0.175,0.190
4534,-0.190,0.175
4535,-0.195,0.175
4536,-0.185,0.170
4537,-0.175,0.180
4538,-0.165,0.185
4539,-0.180,0.180
4540,-0.190,0.175
4541,-0.195,0.155
4542,-0.200,0.160
4543,-0.185,0.145
4544,-0.175,0.125
4545,-0.170,0.115
4546,-0.190,0.095
4547,-0.215,0.090
4548,-0.210,0.085
4549,-0.190,0.080
4550,-0.180,0.095
4551,-0.175,0.085
4552,-0.180,0.065
4553,-0.195,0.065
4554,-0.200,0.070
4555,-0.185,0.085
4556,-0.175,0.095
4557,-0.170,0.095
4558,-0.160,0.085
4559,-0.175,0.085
4560,-0.175,0.085
4561,-0.165,0.110
4562,-0.175,0.100
4563,-0.165,0.105
4564,-0.170,0.095
4565,-0.180,0.090
4566,-0.180,0.105
4567,-0.180,0.125
4568,-0.180,0.135
4569,-0.175,0.125
4570,-0.185,0.115
4571,-0.190,0.120
4572,-0.190,0.130
4573,-0.190,0.150
4574,-0.170,0.145
4575,-0.170,0.165
4576,-0.185,0.160
4577,-0.180,0.145
4578,-0.190,0.160
4579,-0.170,0.175
4580,-0.160,0.180
4581,-0.165,0.180
4582,-0.180,0.160
4583,-0.155,0.140
4584,-0.105,0.140
4585,-0.025,0.120
4586,0.080,0.105
4587,0.205,0.085
4588,0.315,0.040
4589,0.410,0.010
4590,0.495,-0.005
4591,0.635,-0.020
4592,0.760,-0.040
4593,0.895,-0.070
4594,0.955,-0.120
4595,0.960,-0.175
4596,0.920,-0.185
4597,0.870,-0.175
4598,0.780,-0.170
4599,0.640,-0.130
4600,0.440,-0.095
4601,0.220,-0.055
4602,0.060,-0.010
4603,-0.025,0.040
4604,-0.070,0.075
4605,-0.130,0.090
4606,-0.210,0.085
4607,-0.260,0.100
4608,-0.280,0.100
4609,-0.295,0.120
4610,-0.285,0.110
4611,-0.305,0.090
4612,-0.325,0.055
4613,-0.345,0.055
4614,-0.345,0.070
4615,-0.335,0.080
4616,-0.325,0.105
4617,-0.325,0.100
4618,-0.340,0.090
4619,-0.355,0.085
4620,-0.355,0.090
4621,-0.345,0.110
4622,-0.350,0.120
4623,-0.340,0.125
4624,-0.365,0.115
4625,-0.370,0.125
4626,-0.390,0.130
4627,-0.400,0.150
4628,-0.395,0.145
4629,-0.375,0.150
4630,-0.385,0.150
4631,-0.385,0.150
4632,-0.390,0.160
4633,-0.400,0.175
4634,-0.380,0.180
4635,-0.385,0.185
4636,-0.390,0.165
4637,-0.395,0.155
4638,-0.405,0.170
4639,-0.395,0.180
4640,-0.370,0.180
4641,-0.380,0.160
4642,-0.400,0.155
4643,-0.410,0.150
4644,-0.395,0.160
4645,-0.380,0.165
4646,-0.365,0.175
4647,-0.365,0.165
4648,-0.370,0.160
4649,-0.380,0.160
4650,-0.380,0.160
4651,-0.360,0.160
4652,-0.340,0.170
4653,-0.335,0.160
4654,-0.360,0.155
4655,-0.365,0.135
4656,-0.360,0.155
4657,-0.355,0.165
4658,-0.345,0.175
4659,-0.345,0.150
4660,-0.355,0.155
4661,-0.385,0.150
4662,-0.395,0.150
4663,-0.380,0.150
4664,-0.370,0.130
4665,-0.360,0.105
4666,-0.365,0.075
4667,-0.370,0.065
4668,-0.365,0.065
4669,-0.345,0.065
4670,-0.335,0.100
4671,-0.330,0.085
4672,-0.335,0.085
4673,-0.330,0.085
4674,-0.330,0.105
4675,-0.330,0.110
4676,-0.300,0.130
4677,-0.300,0.125
4678,-0.300,0.090
4679,-0.305,0.110
4680,-0.300,0.120
4681,-0.280,0.130
4682,-0.255,0.155
4683,-0.270,0.155
4684,-0.260,0.140
4685,-0.270,0.145
4686,-0.260,0.155
4687,-0.255,0.185
4688,-0.225,0.195
4689,-0.210,0.185
4690,-0.230,0.180
4691,-0.230,0.175
4692,-0.235,0.180
4693,-0.215,0.190
4694,-0.195,0.195
4695,-0.190,0.180
4696,-0.200,0.175
4697,-0.215,0.170
4698,-0.215,0.165
4699,-0.195,0.180
4700,-0.170,0.185
4701,-0.175,0.180
4702,-0.180,0.185
4703,-0.180,0.185
4704,-0.180,0.185
4705,-0.165,0.195
4706,-0.160,0.205
4707,-0.155,0.195
4708,-0.160,0.185
4709,-0.175,0.175
4710,-0.175,0.190
4711,-0.170,0.180
4712,-0.170,0.185
4713,-0.180,0.185
4714,-0.200,0.170
4715,-0.220,0.165
4716,-0.230,0.160
4717,-0.220,0.155
4718,-0.205,0.135
4719,-0.205,0.120
4720,-0.215,0.105
4721,-0.210,0.080
4722,-0.215,0.075
4723,-0.195,0.095
4724,-0.185,0.105
4725,-0.185,0.105
4726,-0.190,0.115
4727,-0.210,0.110
4728,-0.210,0.115
4729,-0.185,0.135
4730,-0.180,0.150
4731,-0.180,0.150
4732,-0.200,0.135
4733,-0.230,0.130
4734,-0.225,0.145
4735,-0.220,0.170
4736,-0.200,0.175
4737,-0.200,0.170
4738,-0.205,0.175
4739,-0.210,0.170
4740,-0.210,0.170
4741,-0.215,0.195
4742,-0.205,0.200
4743,-0.205,0.195
4744,-0.200,0.185
4745,-0.195,0.180
4746,-0.200,0.155
4747,-0.200,0.175
4748,-0.200,0.175
4749,-0.195,0.175
4750,-0.190,0.165
4751,-0.185,0.160
4752,-0.190,0.165
4753,-0.180,0.170
4754,-0.170,0.180
4755,-0.175,0.175
4756,-0.180,0.175
4757,-0.185,0.175
4758,-0.185,0.175
4759,-0.170,0.180
4760,-0.160,0.195
4761,-0.170,0.195
4762,-0.195,0.185
4763,-0.200,0.180
4764,-0.215,0.175
4765,-0.195,0.185
4766,-0.195,0.195
4767,-0.215,0.180
4768,-0.210,0.135
4769,-0.225,0.095
4770,-0.225,0.105
4771,-0.210,0.105
4772,-0.195,0.100
4773,-0.200,0.095
4774,-0.190,0.095
4775,-0.220,0.095
4776,-0.215,0.105
4777,-0.205,0.120
4778,-0.200,0.130
4779,-0.190,0.130
4780,-0.195,0.125
4781,-0.200,0.115
4782,-0.210,0.130
4783,-0.200,0.150
4784,-0.205,0.160
4785,-0.220,0.165
4786,-0.220,0.155
4787,-0.220,0.150
4788,-0.220,0.170
4789,-0.205,0.190
4790,-0.200,0.195
4791,-0.190,0.195
4792,-0.205,0.185
4793,-0.210,0.180
4794,-0.205,0.190
4795,-0.195,0.195
4796,-0.180,0.205
4797,-0.200,0.190
4798,-0.195,0.195
4799,-0.210,0.165
4800,-0.215,0.175
4801,-0.200,0.185
4802,-0.175,0.195
4803,-0.175,0.180
4804,-0.185,0.170
4805,-0.195,0.170
4806,-0.200,0.175
4807,-0.175,0.190
4808,-0.160,0.200
4809,-0.155,0.195
4810,-0.160,0.190
4811,-0.180,0.180
4812,-0.165,0.190
4813,-0.155,0.195
4814,-0.095,0.185
4815,-0.015,0.160
4816,0.075,0.130
4817,0.175,0.090
4818,0.270,0.075
4819,0.365,0.050
4820,0.480,-0.005
4821,0.585,-0.045
4822,0.690,-0.080
4823,0.770,-0.095
4824,0.835,-0.130
4825,0.870,-0.145
4826,0.865,-0.190
4827,0.810,-0.195
4828,0.740,-0.205
4829,0.655,-0.210
4830,0.545,-0.165
4831,0.390,-0.130
4832,0.215,-0.080
4833,0.055,-0.040
4834,-0.060,-0.015
4835,-0.115,0.005
4836,-0.155,0.040
4837,-0.200,0.080
4838,-0.225,0.105
4839,-0.250,0.115
4840,-0.280,0.115
4841,-0.300,0.125
4842,-0.330,0.150
4843,-0.320,0.155
4844,-0.320,0.180
4845,-0.325,0.175
4846,-0.345,0.170
4847,-0.355,0.190
4848,-0.345,0.185
4849,-0.360,0.200
4850,-0.360,0.215
4851,-0.355,0.210
4852,-0.355,0.190
4853,-0.390,0.195
4854,-0.385,0.190
4855,-0.365,0.200
4856,-0.350,0.200
4857,-0.360,0.185
4858,-0.380,0.170
4859,-0.380,0.165
4860,-0.385,0.185
4861,-0.360,0.200
4862,-0.345,0.210
4863,-0.355,0.210
4864,-0.365,0.185
4865,-0.370,0.180
4866,-0.380,0.195
4867,-0.370,0.195
4868,-0.345,0.190
4869,-0.350,0.205
4870,-0.360,0.180
4871,-0.380,0.195
4872,-0.390,0.190
4873,-0.380,0.205
4874,-0.365,0.215
4875,-0.360,0.205
4876,-0.380,0.190
4877,-0.390,0.185
4878,-0.395,0.170
4879,-0.400,0.160
4880,-0.400,0.155
4881,-0.400,0.145
4882,-0.420,0.115
4883,-0.430,0.105
4884,-0.425,0.105
4885,-0.405,0.115
4886,-0.405,0.110
4887,-0.395,0.115
4888,-0.405,0.105
4889,-0.410,0.105
4890,-0.410,0.115
4891,-0.395,0.125
4892,-0.390,0.145
4893,-0.370,0.150
4894,-0.395,0.145
4895,-0.410,0.130
4896,-0.420,0.145
4897,-0.415,0.160
4898,-0.400,0.170
4899,-0.385,0.180
4900,-0.385,0.175
4901,-0.410,0.160
4902,-0.420,0.180
4903,-0.410,0.200
4904,-0.395,0.205
4905,-0.390,0.210
4906,-0.385,0.215
4907,-0.405,0.210
4908,-0.385,0.215
4909,-0.365,0.220
4910,-0.370,0.230
4911,-0.350,0.215
4912,-0.350,0.205
4913,-0.340,0.200
4914,-0.335,0.200
4915,-0.330,0.225
4916,-0.310,0.215
4917,-0.285,0.190
4918,-0.295,0.180
4919,-0.295,0.190
4920,-0.285,0.195
4921,-0.260,0.200
4922,-0.245,0.215
4923,-0.245,0.205
4924,-0.240,0.195
4925,-0.225,0.190
4926,-0.230,0.200
4927,-0.220,0.215
4928,-0.205,0.215
4929,-0.200,0.210
4930,-0.215,0.210
4931,-0.230,0.195
4932,-0.225,0.195
4933,-0.210,0.195
4934,-0.205,0.185
4935,-0.210,0.170
4936,-0.220,0.160
4937,-0.230,0.140
4938,-0.235,0.150
4939,-0.230,0.155
4940,-0.220,0.155
4941,-0.220,0.140
4942,-0.230,0.130
4943,-0.245,0.110
4944,-0.240,0.110
4945,-0.215,0.130
4946,-0.205,0.140
4947,-0.200,0.135
4948,-0.215,0.140
4949,-0.240,0.135
4950,-0.240,0.145
4951,-0.220,0.160
4952,-0.205,0.170
4953,-0.205,0.165
4954,-0.215,0.165
4955,-0.240,0.175
4956,-0.240,0.185
4957,-0.235,0.205
4958,-0.220,0.215
4959,-0.235,0.210
4960,-0.245,0.210
4961,-0.245,0.195
4962,-0.245,0.220
4963,-0.235,0.225
4964,-0.220,0.245
4965,-0.220,0.240
4966,-0.230,0.225
4967,-0.245,0.215
4968,-0.235,0.220
4969,-0.210,0.225
4970,-0.205,0.225
4971,-0.205,0.215
4972,-0.220,0.205
4973,-0.220,0.190
4974,-0.235,0.200
4975,-0.210,0.205
4976,-0.195,0.215
4977,-0.175,0.205
4978,-0.195,0.205
4979,-0.195,0.205
4980,-0.200,0.210
4981,-0.190,0.220
4982,-0.175,0.235
4983,-0.160,0.230
4984,-0.180,0.220
4985,-0.190,0.200
4986,-0.195,0.190
4987,-0.195,0.190
4988,-0.165,0.175
4989,-0.165,0.165
4990,-0.180,0.145
4991,-0.195,0.130
4992,-0.205,0.115
4993,-0.210,0.115
4994,-0.205,0.135
4995,-0.215,0.130
4996,-0.210,0.110
4997,-0.220,0.105
4998,-0.215,0.110
4999,-0.210,0.125
5000,-0.200,0.140
5001,-0.190,0.155
5002,-0.195,0.135
5003,-0.200,0.150
5004,-0.210,0.160
5005,-0.205,0.170
5006,-0.195,0.185
5007,-0.180,0.180
5008,-0.200,0.175
5009,-0.210,0.170
5010,-0.230,0.190
5011,-0.210,0.205
5012,-0.200,0.225
5013,-0.190,0.240
5014,-0.195,0.215
5015,-0.210,0.225
5016,-0.230,0.245
5017,-0.210,0.260
5018,-0.200,0.255
5019,-0.195,0.250
5020,-0.205,0.240
5021,-0.225,0.240
5022,-0.230,0.240
5023,-0.230,0.240
5024,-0.205,0.250
5025,-0.200,0.245
5026,-0.210,0.225
5027,-0.220,0.215
5028,-0.220,0.220
5029,-0.220,0.235
5030,-0.200,0.230
5031,-0.190,0.225
5032,-0.205,0.205
5033,-0.215,0.195
5034,-0.220,0.195
5035,-0.215,0.205
5036,-0.205,0.205
5037,-0.200,0.215
5038,-0.215,0.200
5039,-0.225,0.195
5040,-0.245,0.185
5041,-0.220,0.195
5042,-0.220,0.200
5043,-0.225,0.175
5044,-0.230,0.150
5045,-0.240,0.130
5046,-0.245,0.135
5047,-0.225,0.120
5048,-0.220,0.130
5049,-0.215,0.125
5050,-0.240,0.110
5051,-0.245,0.100
5052,-0.235,0.105
5053,-0.215,0.115
5054,-0.205,0.125
5055,-0.200,0.140
5056,-0.210,0.120
5057,-0.225,0.125
5058,-0.230,0.130
5059,-0.220,0.155
5060,-0.205,0.145
5061,-0.215,0.145
5062,-0.220,0.165
5063,-0.235,0.145
5064,-0.235,0.165
5065,-0.230,0.170
5066,-0.220,0.190
5067,-0.215,0.195
5068,-0.215,0.200
5069,-0.230,0.180
5070,-0.225,0.200
5071,-0.225,0.205
5072,-0.205,0.210
5073,-0.215,0.205
5074,-0.205,0.200
5075,-0.220,0.185
5076,-0.215,0.195
5077,-0.215,0.190
5078,-0.195,0.195
5079,-0.200,0.190
5080,-0.200,0.200
5081,-0.205,0.180
5082,-0.205,0.180
5083,-0.195,0.195
5084,-0.170,0.205
5085,-0.160,0.200
5086,-0.180,0.185
5087,-0.190,0.170
5088,-0.190,0.175
5089,-0.180,0.190
5090,-0.165,0.195
5091,-0.170,0.185
5092,-0.185,0.190
5093,-0.200,0.185
5094,-0.215,0.190
5095,-0.190,0.210
5096,-0.185,0.200
5097,-0.190,0.180
5098,-0.190,0.160
5099,-0.205,0.150
5100,-0.220,0.135
5101,-0.200,0.125
5102,-0.190,0.125
5103,-0.175,0.115
5104,-0.175,0.110
5105,-0.185,0.105
5106,-0.185,0.120
5107,-0.175,0.140
5108,-0.170,0.140
5109,-0.160,0.155
5110,-0.160,0.150
5111,-0.160,0.135
5112,-0.140,0.135
5113,-0.085,0.135
5114,-0.010,0.130
5115,0.085,0.105
5116,0.175,0.070
5117,0.270,0.055
5118,0.365,0.025
5119,0.480,0.015
5120,0.590,0.020
5121,0.705,0.010
5122,0.800,-0.010
5123,0.855,-0.055
5124,0.870,-0.095
5125,0.850,-0.105
5126,0.835,-0.125
5127,0.770,-0.115
5128,0.665,-0.115
5129,0.500,-0.065
5130,0.310,-0.005
5131,0.110,0.035
5132,-0.005,0.090
5133,-0.085,0.115
5134,-0.120,0.100
5135,-0.170,0.135
5136,-0.220,0.155
5137,-0.245,0.175
5138,-0.235,0.210
5139,-0.240,0.200
5140,-0.245,0.200
5141,-0.270,0.205
5142,-0.290,0.205
5143,-0.285,0.220
5144,-0.275,0.225
5145,-0.285,0.230
5146,-0.315,0.205
5147,-0.315,0.205
5148,-0.320,0.220
5149,-0.315,0.240
5150,-0.290,0.250
5151,-0.315,0.240
5152,-0.335,0.220
5153,-0.355,0.210
5154,-0.370,0.205
5155,-0.385,0.210
5156,-0.355,0.210
5157,-0.360,0.195
5158,-0.375,0.165
5159,-0.375,0.160
5160,-0.375,0.145
5161,-0.380,0.145
5162,-0.365,0.160
5163,-0.365,0.145
5164,-0.360,0.145
5165,-0.370,0.145
5166,-0.375,0.155
5167,-0.365,0.175
5168,-0.360,0.185
5169,-0.365,0.180
5170,-0.385,0.170
5171,-0.390,0.170
5172,-0.390,0.175
5173,-0.390,0.205
5174,-0.380,0.205
5175,-0.390,0.205
5176,-0.405,0.200
5177,-0.400,0.200
5178,-0.395,0.205
5179,-0.390,0.220
5180,-0.375,0.235
5181,-0.365,0.230
5182,-0.375,0.210
5183,-0.385,0.205
5184,-0.390,0.210
5185,-0.370,0.220
5186,-0.355,0.220
5187,-0.350,0.210
5188,-0.360,0.200
5189,-0.385,0.185
5190,-0.375,0.185
5191,-0.365,0.200
5192,-0.355,0.205
5193,-0.350,0.215
5194,-0.330,0.200
5195,-0.335,0.195
5196,-0.345,0.190
5197,-0.330,0.205
5198,-0.315,0.205
5199,-0.305,0.215
5200,-0.305,0.190
5201,-0.305,0.180
5202,-0.305,0.190
5203,-0.300,0.190
5204,-0.290,0.195
5205,-0.290,0.195
5206,-0.285,0.190
5207,-0.300,0.175
5208,-0.300,0.185
5209,-0.280,0.180
5210,-0.280,0.190
5211,-0.280,0.185
5212,-0.285,0.180
5213,-0.290,0.180
5214,-0.300,0.170
5215,-0.275,0.165
5216,-0.260,0.155
5217,-0.255,0.130
5218,-0.240,0.115
5219,-0.245,0.110
5220,-0.250,0.105
5221,-0.235,0.105
5222,-0.230,0.095
5223,-0.210,0.100
5224,-0.205,0.080
5225,-0.200,0.090
5226,-0.210,0.125
5227,-0.190,0.150
5228,-0.180,0.170
5229,-0.195,0.170
5230,-0.205,0.160
5231,-0.220,0.160
5232,-0.210,0.170
5233,-0.195,0.205
5234,-0.175,0.225
5235,-0.200,0.220
5236,-0.195,0.215
5237,-0.200,0.215
5238,-0.195,0.230
5239,-0.180,0.240
5240,-0.170,0.255
5241,-0.170,0.250
5242,-0.175,0.235
5243,-0.195,0.245
5244,-0.195,0.240
5245,-0.195,0.235
5246,-0.160,0.240
5247,-0.165,0.245
5248,-0.175,0.230
5249,-0.180,0.230
5250,-0.190,0.230
5251,-0.180,0.255
5252,-0.160,0.260
5253,-0.150,0.275
5254,-0.160,0.240
5255,-0.165,0.255
5256,-0.165,0.255
5257,-0.160,0.250
5258,-0.160,0.260
5259,-0.165,0.255
5260,-0.180,0.250
5261,-0.165,0.240
5262,-0.170,0.245
5263,-0.165,0.240
5264,-0.155,0.260
5265,-0.170,0.260
5266,-0.185,0.240
5267,-0.205,0.220
5268,-0.210,0.220
5269,-0.180,0.230
5270,-0.170,0.215
5271,-0.165,0.200
5272,-0.170,0.180
5273,-0.185,0.155
5274,-0.195,0.145
5275,-0.185,0.140
5276,-0.180,0.125
5277,-0.165,0.125
5278,-0.180,0.115
5279,-0.190,0.115
5280,-0.200,0.125
5281,-0.190,0.145
5282,-0.175,0.150
5283,-0.170,0.165
5284,-0.175,0.160
5285,-0.180,0.170
5286,-0.190,0.170
5287,-0.185,0.195
5288,-0.175,0.215
5289,-0.165,0.215
5290,-0.180,0.210
5291,-0.185,0.220
5292,-0.185,0.225
5293,-0.175,0.240
5294,-0.170,0.245
5295,-0.170,0.245
5296,-0.175,0.230
5297,-0.190,0.235
5298,-0.200,0.230
5299,-0.175,0.245
5300,-0.170,0.245
5301,-0.180,0.235
5302,-0.185,0.225
5303,-0.205,0.220
5304,-0.195,0.225
5305,-0.190,0.245
5306,-0.180,0.255
5307,-0.165,0.250
5308,-0.175,0.240
5309,-0.185,0.225
5310,-0.195,0.235
5311,-0.180,0.245
5312,-0.160,0.245
5313,-0.160,0.240
5314,-0.165,0.225
5315,-0.180,0.215
5316,-0.185,0.210
5317,-0.185,0.230
5318,-0.170,0.235
5319,-0.170,0.220
5320,-0.175,0.200
5321,-0.195,0.195
5322,-0.200,0.190
5323,-0.200,0.185
5324,-0.200,0.185
5325,-0.190,0.175
5326,-0.190,0.155
5327,-0.195,0.135
5328,-0.225,0.135
5329,-0.215,0.135
5330,-0.195,0.150
5331,-0.190,0.125
5332,-0.195,0.120
5333,-0.200,0.125
5334,-0.200,0.140
5335,-0.185,0.135
5336,-0.170,0.155
5337,-0.170,0.160
5338,-0.180,0.160
5339,-0.190,0.160
5340,-0.195,0.175
5341,-0.185,0.200
5342,-0.170,0.215
5343,-0.170,0.210
5344,-0.170,0.205
5345,-0.185,0.200
5346,-0.185,0.215
5347,-0.170,0.220
5348,-0.165,0.240
5349,-0.155,0.240
5350,-0.155,0.220
5351,-0.145,0.195
5352,-0.095,0.200
5353,0.015,0.175
5354,0.125,0.160
5355,0.235,0.145
5356,0.345,0.115
5357,0.450,0.070
5358,0.555,0.045
5359,0.685,0.050
5360,0.820,0.035
5361,0.920,0.010
5362,0.965,-0.060
5363,0.945,-0.105
5364,0.905,-0.115
5365,0.860,-0.095
5366,0.790,-0.085
5367,0.665,-0.035
5368,0.480,-0.010
5369,0.255,0.035
5370,0.085,0.060
5371,-0.005,0.100
5372,-0.065,0.130
5373,-0.110,0.160
5374,-0.180,0.165
5375,-0.245,0.170
5376,-0.280,0.190
5377,-0.275,0.205
5378,-0.285,0.200
5379,-0.290,0.195
5380,-0.305,0.170
5381,-0.325,0.160
5382,-0.350,0.140
5383,-0.350,0.150
5384,-0.350,0.155
5385,-0.345,0.135
5386,-0.350,0.125
5387,-0.360,0.115
5388,-0.380,0.105
5389,-0.370,0.125
5390,-0.375,0.135
5391,-0.370,0.150
5392,-0.385,0.145
5393,-0.395,0.145
5394,-0.390,0.165
5395,-0.385,0.190
5396,-0.370,0.205
5397,-0.370,0.210
5398,-0.385,0.205
5399,-0.390,0.210
5400,-0.385,0.220
5401,-0.390,0.225
5402,-0.380,0.240
5403,-0.365,0.230
5404,-0.390,0.225
5405,-0.400,0.215
5406,-0.410,0.215
5407,-0.395,0.225
5408,-0.375,0.235
5409,-0.375,0.220
5410,-0.385,0.215
5411,-0.395,0.200
5412,-0.400,0.220
5413,-0.385,0.230
5414,-0.380,0.235
5415,-0.380,0.220
5416,-0.375,0.235
5417,-0.395,0.230
5418,-0.375,0.220
5419,-0.370,0.240
5420,-0.365,0.245
5421,-0.350,0.235
5422,-0.360,0.225
5423,-0.370,0.225
5424,-0.370,0.220
5425,-0.360,0.220
5426,-0.345,0.240
5427,-0.355,0.235
5428,-0.365,0.215
5429,-0.375,0.200
5430,-0.375,0.200
5431,-0.365,0.215
5432,-0.370,0.210
5433,-0.370,0.190
5434,-0.375,0.200
5435,-0.385,0.190
5436,-0.385,0.190
5437,-0.390,0.190
5438,-0.375,0.190
5439,-0.365,0.185
5440,-0.370,0.155
5441,-0.380,0.150
5442,-0.385,0.145
5443,-0.375,0.150
5444,-0.375,0.150
5445,-0.340,0.135
5446,-0.345,0.115
5447,-0.350,0.115
5448,-0.340,0.120
5449,-0.330,0.130
5450,-0.315,0.150
5451,-0.305,0.160
5452,-0.300,0.155
5453,-0.305,0.160
5454,-0.295,0.170
5455,-0.275,0.180
5456,-0.260,0.200
5457,-0.255,0.205
5458,-0.260,0.195
5459,-0.270,0.195
5460,-0.250,0.210
5461,-0.240,0.210
5462,-0.215,0.220
5463,-0.210,0.220
5464,-0.210,0.210
5465,-0.245,0.205
5466,-0.240,0.215
5467,-0.230,0.215
5468,-0.215,0.220
5469,-0.215,0.215
5470,-0.215,0.230
5471,-0.215,0.210
5472,-0.225,0.220
5473,-0.225,0.235
5474,-0.210,0.245
5475,-0.195,0.245
5476,-0.200,0.220
5477,-0.200,0.215
5478,-0.205,0.225
5479,-0.205,0.225
5480,-0.190,0.235
5481,-0.200,0.235
5482,-0.205,0.215
5483,-0.210,0.215
5484,-0.215,0.215
5485,-0.215,0.235
5486,-0.200,0.230
5487,-0.215,0.240
5488,-0.235,0.215
5489,-0.245,0.210
5490,-0.250,0.230
5491,-0.230,0.220
5492,-0.245,0.235
5493,-0.245,0.230
5494,-0.255,0.220
5495,-0.270,0.210
5496,-0.270,0.195
5497,-0.255,0.200
5498,-0.240,0.200
5499,-0.230,0.175
5500,-0.235,0.155
5501,-0.245,0.145
5502,-0.245,0.145
5503,-0.240,0.170
5504,-0.230,0.170
5505,-0.230,0.180
5506,-0.220,0.165
5507,-0.245,0.175
5508,-0.250,0.185
5509,-0.240,0.200
5510,-0.240,0.210
5511,-0.225,0.210
5512,-0.230,0.200
5513,-0.225,0.190
5514,-0.220,0.210
5515,-0.220,0.215
5516,-0.205,0.210
5517,-0.205,0.210
5518,-0.205,0.195
5519,-0.220,0.185
5520,-0.215,0.180
5521,-0.210,0.190
5522,-0.200,0.215
5523,-0.200,0.200
5524,-0.210,0.185
5525,-0.220,0.185
5526,-0.230,0.200
5527,-0.205,0.200
5528,-0.195,0.225
5529,-0.185,0.220
5530,-0.195,0.220
5531,-0.205,0.200
5532,-0.215,0.215
5533,-0.215,0.215
5534,-0.185,0.225
5535,-0.190,0.225
5536,-0.200,0.200
5537,-0.210,0.205
5538,-0.225,0.215
5539,-0.215,0.225
5540,-0.220,0.220
5541,-0.210,0.225
5542,-0.230,0.205
5543,-0.255,0.200
5544,-0.250,0.210
5545,-0.250,0.215
5546,-0.245,0.225
5547,-0.235,0.225
5548,-0.245,0.215
5549,-0.250,0.185
5550,-0.245,0.170
5551,-0.250,0.160
5552,-0.230,0.170
5553,-0.235,0.155
5554,-0.230,0.155
5555,-0.240,0.160
5556,-0.250,0.155
5557,-0.230,0.175
5558,-0.230,0.165
5559,-0.225,0.185
5560,-0.245,0.175
5561,-0.245,0.180
5562,-0.260,0.195
5563,-0.240,0.230
5564,-0.230,0.235
5565,-0.235,0.225
5566,-0.230,0.220
5567,-0.245,0.220
5568,-0.250,0.230
5569,-0.235,0.235
5570,-0.225,0.245
5571,-0.230,0.240
5572,-0.235,0.230
5573,-0.235,0.210
5574,-0.245,0.210
5575,-0.240,0.230
5576,-0.220,0.225
5577,-0.225,0.240
5578,-0.220,0.230
5579,-0.225,0.215
5580,-0.235,0.225
5581,-0.250,0.255
5582,-0.230,0.250
5583,-0.220,0.245
5584,-0.220,0.235
5585,-0.230,0.220
5586,-0.230,0.210
5587,-0.210,0.210
5588,-0.210,0.215
5589,-0.210,0.210
5590,-0.210,0.190
5591,-0.240,0.165
5592,-0.225,0.160
5593,-0.230,0.175
5594,-0.210,0.185
5595,-0.200,0.170
5596,-0.235,0.155
5597,-0.235,0.145
5598,-0.245,0.135
5599,-0.230,0.135
5600,-0.225,0.140
5601,-0.210,0.125
5602,-0.245,0.115
5603,-0.240,0.105
5604,-0.245,0.110
5605,-0.230,0.130
5606,-0.220,0.150
5607,-0.205,0.155
5608,-0.220,0.140
5609,-0.250,0.140
5610,-0.255,0.155
5611,-0.245,0.165
5612,-0.220,0.190
5613,-0.215,0.185
5614,-0.210,0.200
5615,-0.215,0.190
5616,-0.215,0.205
5617,-0.205,0.230
5618,-0.195,0.245
5619,-0.180,0.235
5620,-0.170,0.205
5621,-0.105,0.190
5622,-0.015,0.165
5623,0.100,0.165
5624,0.235,0.135
5625,0.345,0.100
5626,0.445,0.045
5627,0.540,0.040
5628,0.675,0.040
5629,0.795,0.025
5630,0.880,-0.030
5631,0.905,-0.090
5632,0.880,-0.120
5633,0.815,-0.125
5634,0.740,-0.110
5635,0.640,-0.070
5636,0.470,-0.020
5637,0.260,0.020
5638,0.045,0.050
5639,-0.075,0.070
5640,-0.120,0.100
5641,-0.150,0.140
5642,-0.200,0.155
5643,-0.230,0.160
5644,-0.270,0.170
5645,-0.295,0.150
5646,-0.305,0.170
5647,-0.300,0.185
5648,-0.315,0.185
5649,-0.335,0.170
5650,-0.345,0.165
5651,-0.360,0.160
5652,-0.375,0.170
5653,-0.370,0.165
5654,-0.365,0.170
5655,-0.365,0.190
5656,-0.380,0.170
5657,-0.390,0.170
5658,-0.385,0.185
5659,-0.385,0.195
5660,-0.385,0.205
5661,-0.380,0.205
5662,-0.385,0.200
5663,-0.400,0.195
5664,-0.425,0.210
5665,-0.405,0.240
5666,-0.410,0.245
5667,-0.405,0.250
5668,-0.425,0.240
5669,-0.420,0.240
5670,-0.430,0.235
5671,-0.415,0.240
5672,-0.410,0.250
5673,-0.410,0.235
5674,-0.410,0.230
5675,-0.425,0.220
5676,-0.420,0.235
5677,-0.405,0.230
5678,-0.405,0.240
5679,-0.400,0.235
5680,-0.400,0.220
5681,-0.420,0.225
5682,-0.420,0.235
5683,-0.395,0.230
5684,-0.390,0.240
5685,-0.375,0.225
5686,-0.380,0.235
5687,-0.385,0.225
5688,-0.385,0.230
5689,-0.375,0.230
5690,-0.350,0.235
5691,-0.365,0.230
5692,-0.370,0.210
5693,-0.375,0.200
5694,-0.375,0.205
5695,-0.370,0.205
5696,-0.370,0.210
5697,-0.370,0.210
5698,-0.370,0.195
5699,-0.395,0.170
5700,-0.390,0.170
5701,-0.395,0.180
5702,-0.375,0.185
5703,-0.365,0.185
5704,-0.365,0.195
5705,-0.375,0.175
5706,-0.370,0.190
5707,-0.365,0.190
5708,-0.365,0.210
5709,-0.375,0.205
5710,-0.360,0.205
5711,-0.345,0.190
5712,-0.355,0.200
5713,-0.345,0.210
5714,-0.335,0.210
5715,-0.335,0.215
5716,-0.325,0.205
5717,-0.330,0.210
5718,-0.320,0.210
5719,-0.315,0.225
5720,-0.305,0.230
5721,-0.295,0.235
5722,-0.275,0.225
5723,-0.275,0.225
5724,-0.270,0.230
5725,-0.265,0.240
5726,-0.250,0.250
5727,-0.250,0.250
5728,-0.245,0.250
5729,-0.255,0.235
5730,-0.260,0.235
5731,-0.245,0.235
5732,-0.245,0.230
5733,-0.230,0.230
5734,-0.230,0.230
5735,-0.240,0.215
5736,-0.250,0.215
5737,-0.230,0.245
5738,-0.215,0.240
5739,-0.205,0.245
5740,-0.215,0.225
5741,-0.230,0.215
5742,-0.230,0.220
5743,-0.210,0.235
5744,-0.215,0.235
5745,-0.210,0.230
5746,-0.215,0.215
5747,-0.235,0.210
5748,-0.235,0.215
5749,-0.235,0.225
5750,-0.225,0.235
5751,-0.220,0.235
5752,-0.235,0.230
5753,-0.255,0.225
5754,-0.245,0.230
5755,-0.245,0.245
5756,-0.245,0.245
5757,-0.240,0.240
5758,-0.245,0.245
5759,-0.260,0.220
5760,-0.250,0.225
5761,-0.255,0.240
5762,-0.250,0.245
5763,-0.255,0.245
5764,-0.255,0.230
5765,-0.275,0.225
5766,-0.270,0.220
5767,-0.255,0.235
5768,-0.250,0.255
5769,-0.235,0.250
5770,-0.255,0.245
5771,-0.255,0.245
5772,-0.260,0.240
5773,-0.245,0.255
5774,-0.235,0.260
5775,-0.225,0.275
5776,-0.250,0.250
5777,-0.265,0.255
5778,-0.265,0.260
5779,-0.255,0.260
5780,-0.240,0.255
5781,-0.220,0.250
5782,-0.235,0.225
5783,-0.250,0.215
5784,-0.260,0.215
5785,-0.240,0.230
5786,-0.230,0.225
5787,-0.225,0.235
5788,-0.230,0.225
5789,-0.235,0.205
5790,-0.235,0.220
5791,-0.220,0.225
5792,-0.210,0.225
5793,-0.200,0.235
5794,-0.205,0.230
5795,-0.215,0.210
5796,-0.245,0.225
5797,-0.225,0.230
5798,-0.230,0.250
5799,-0.220,0.240
5800,-0.230,0.220
5801,-0.240,0.225
5802,-0.250,0.230
5803,-0.255,0.240
5804,-0.250,0.245
5805,-0.250,0.250
5806,-0.255,0.240
5807,-0.265,0.225
5808,-0.270,0.235
5809,-0.250,0.245
5810,-0.240,0.250
5811,-0.235,0.260
5812,-0.245,0.245
5813,-0.260,0.250
5814,-0.275,0.245
5815,-0.265,0.255
5816,-0.220,0.250
5817,-0.175,0.225
5818,-0.115,0.165
5819,-0.035,0.120
5820,0.070,0.090
5821,0.190,0.065
5822,0.330,0.035
5823,0.445,0.000
5824,0.585,-0.035
5825,0.700,-0.050
5826,0.795,-0.065
5827,0.865,-0.090
5828,0.875,-0.125
5829,0.825,-0.135
5830,0.765,-0.160
5831,0.655,-0.140
5832,0.545,-0.105
5833,0.375,-0.055
5834,0.165,0.000
5835,-0.030,0.040
5836,-0.140,0.055
5837,-0.215,0.090
5838,-0.265,0.125
5839,-0.305,0.165
5840,-0.310,0.190
5841,-0.330,0.195
5842,-0.350,0.195
5843,-0.370,0.210
5844,-0.385,0.205
5845,-0.370,0.230
5846,-0.350,0.240
5847,-0.375,0.245
5848,-0.390,0.240
5849,-0.400,0.230
5850,-0.410,0.235
5851,-0.415,0.250
5852,-0.395,0.265
5853,-0.390,0.265
5854,-0.395,0.255
5855,-0.425,0.240
5856,-0.435,0.240
5857,-0.460,0.240
5858,-0.445,0.245
5859,-0.440,0.240
5860,-0.460,0.220
5861,-0.490,0.215
5862,-0.495,0.210
5863,-0.485,0.220
5864,-0.480,0.220
5865,-0.475,0.210
5866,-0.490,0.205
5867,-0.505,0.170
5868,-0.505,0.170
5869,-0.485,0.170
5870,-0.500,0.185
5871,-0.495,0.170
5872,-0.500,0.170
5873,-0.520,0.155
5874,-0.520,0.160
5875,-0.520,0.165
5876,-0.505,0.190
5877,-0.515,0.200
5878,-0.515,0.200
5879,-0.535,0.195
5880,-0.535,0.205
5881,-0.530,0.220
5882,-0.515,0.220
5883,-0.495,0.215
5884,-0.510,0.205
5885,-0.520,0.195
5886,-0.535,0.210
5887,-0.525,0.210
5888,-0.505,0.230
5889,-0.500,0.225
5890,-0.510,0.215
5891,-0.510,0.195
5892,-0.520,0.205
5893,-0.515,0.220
5894,-0.505,0.240
5895,-0.485,0.225
5896,-0.485,0.220
5897,-0.485,0.225
5898,-0.485,0.230
5899,-0.480,0.245
5900,-0.450,0.250
5901,-0.450,0.245
5902,-0.445,0.230
5903,-0.445,0.215
5904,-0.445,0.220
5905,-0.430,0.225
5906,-0.410,0.220
5907,-0.410,0.225
5908,-0.410,0.205
5909,-0.410,0.190
5910,-0.415,0.180
5911,-0.390,0.195
5912,-0.385,0.200
5913,-0.370,0.185
5914,-0.365,0.175
5915,-0.360,0.160
5916,-0.350,0.180
5917,-0.335,0.175
5918,-0.330,0.200
5919,-0.330,0.185
5920,-0.340,0.170
5921,-0.345,0.170
5922,-0.345,0.195
5923,-0.340,0.195
5924,-0.330,0.210
5925,-0.330,0.215
5926,-0.340,0.215
5927,-0.345,0.215
5928,-0.345,0.225
5929,-0.325,0.245
5930,-0.315,0.255
5931,-0.320,0.255
5932,-0.325,0.255
5933,-0.330,0.255
5934,-0.325,0.265
5935,-0.305,0.270
5936,-0.295,0.275
5937,-0.290,0.265
5938,-0.300,0.250
5939,-0.320,0.235
5940,-0.320,0.235
5941,-0.315,0.230
5942,-0.295,0.235
5943,-0.290,0.220
5944,-0.305,0.215
5945,-0.315,0.205
5946,-0.315,0.215
5947,-0.310,0.235
5948,-0.290,0.240
5949,-0.295,0.250
5950,-0.285,0.240
5951,-0.290,0.220
5952,-0.295,0.220
5953,-0.285,0.240
5954,-0.280,0.240
5955,-0.260,0.240
5956,-0.275,0.225
5957,-0.285,0.210
5958,-0.295,0.205
5959,-0.295,0.215
5960,-0.300,0.210
5961,-0.295,0.185
5962,-0.295,0.165
5963,-0.310,0.145
5964,-0.310,0.140
5965,-0.290,0.150
5966,-0.285,0.165
5967,-0.280,0.160
5968,-0.290,0.155
5969,-0.315,0.155
5970,-0.300,0.170
5971,-0.285,0.175
5972,-0.280,0.195
5973,-0.280,0.195
5974,-0.295,0.190
5975,-0.295,0.190
5976,-0.290,0.195
5977,-0.290,0.230
5978,-0.275,0.230
5979,-0.275,0.240
5980,-0.280,0.220
5981,-0.305,0.225
5982,-0.295,0.225
5983,-0.275,0.235
5984,-0.270,0.245
5985,-0.275,0.240
5986,-0.295,0.240
5987,-0.295,0.225
5988,-0.295,0.225
5989,-0.280,0.220
5990,-0.265,0.235
5991,-0.255,0.230
5992,-0.265,0.205
5993,-0.290,0.200
5994,-0.295,0.210
5995,-0.265,0.215
5996,-0.250,0.230
5997,-0.240,0.220
5998,-0.260,0.200
5999,-0.270,0.195
6000,-0.280,0.195
6001,-0.265,0.210
6002,-0.250,0.220
6003,-0.250,0.210
6004,-0.255,0.195
6005,-0.265,0.195
6006,-0.265,0.195
6007,-0.250,0.190
6008,-0.250,0.195
6009,-0.260,0.185
6010,-0.270,0.155
6011,-0.265,0.140
6012,-0.275,0.140
6013,-0.270,0.135
6014,-0.270,0.155
6015,-0.265,0.140
6016,-0.265,0.140
6017,-0.270,0.120
6018,-0.280,0.130
6019,-0.275,0.150
6020,-0.260,0.150
6021,-0.265,0.150
6022,-0.265,0.140
6023,-0.270,0.140
6024,-0.285,0.160
6025,-0.265,0.175
6026,-0.270,0.185
6027,-0.265,0.185
6028,-0.280,0.180
6029,-0.290,0.170
6030,-0.275,0.195
6031,-0.270,0.195
6032,-0.260,0.215
6033,-0.260,0.210
6034,-0.265,0.200
6035,-0.280,0.190
6036,-0.260,0.200
6037,-0.250,0.215
6038,-0.245,0.210
6039,-0.250,0.210
6040,-0.270,0.200
6041,-0.275,0.185
6042,-0.265,0.185
6043,-0.250,0.200
6044,-0.220,0.200
6045,-0.220,0.200
6046,-0.225,0.200
6047,-0.235,0.180
6048,-0.240,0.175
6049,-0.220,0.200
6050,-0.205,0.200
6051,-0.190,0.200
6052,-0.220,0.205
6053,-0.235,0.190
6054,-0.220,0.195
6055,-0.215,0.190
6056,-0.195,0.195
6057,-0.190,0.185
6058,-0.200,0.145
6059,-0.205,0.130
6060,-0.215,0.140
6061,-0.225,0.140
6062,-0.200,0.140
6063,-0.195,0.135
6064,-0.195,0.125
6065,-0.205,0.115
6066,-0.210,0.115
6067,-0.200,0.120
6068,-0.195,0.130
6069,-0.195,0.130
6070,-0.210,0.120
6071,-0.205,0.115
6072,-0.205,0.130
6073,-0.180,0.135
6074,-0.180,0.155
6075,-0.185,0.155
6076,-0.185,0.130
6077,-0.195,0.130
6078,-0.200,0.155
6079,-0.185,0.165
6080,-0.175,0.185
6081,-0.145,0.170
6082,-0.095,0.145
6083,-0.010,0.125
6084,0.105,0.090
6085,0.250,0.075
6086,0.365,0.055
6087,0.470,0.015
6088,0.585,0.005
6089,0.680,-0.025
6090,0.780,-0.040
6091,0.830,-0.105
6092,0.860,-0.135
6093,0.825,-0.160
6094,0.770,-0.160
6095,0.690,-0.155
6096,0.570,-0.080
6097,0.405,-0.010
6098,0.230,0.040
6099,0.060,0.075
6100,-0.045,0.095
6101,-0.105,0.105
6102,-0.150,0.130
6103,-0.190,0.160
6104,-0.200,0.190
6105,-0.210,0.180
6106,-0.225,0.185
6107,-0.240,0.195
6108,-0.260,0.195
6109,-0.275,0.210
6110,-0.265,0.200
6111,-0.265,0.205
6112,-0.280,0.195
6113,-0.305,0.185
6114,-0.325,0.185
6115,-0.325,0.200
6116,-0.310,0.195
6117,-0.315,0.180
6118,-0.330,0.180
6119,-0.325,0.165
6120,-0.345,0.170
6121,-0.330,0.185
6122,-0.340,0.175
6123,-0.330,0.180
6124,-0.345,0.165
6125,-0.355,0.145
6126,-0.375,0.155
6127,-0.355,0.160
6128,-0.350,0.170
6129,-0.360,0.170
6130,-0.375,0.155
6131,-0.390,0.145
6132,-0.400,0.170
6133,-0.395,0.165
6134,-0.365,0.185
6135,-0.365,0.180
6136,-0.365,0.170
6137,-0.375,0.170
6138,-0.380,0.165
6139,-0.375,0.170
6140,-0.365,0.180
6141,-0.335,0.185
6142,-0.350,0.170
6143,-0.365,0.160
6144,-0.355,0.165
6145,-0.360,0.185
6146,-0.335,0.190
6147,-0.320,0.205
6148,-0.315,0.185
6149,-0.335,0.185
6150,-0.330,0.205
6151,-0.315,0.220
6152,-0.300,0.220
6153,-0.295,0.225
6154,-0.290,0.215
6155,-0.310,0.205
6156,-0.295,0.205
6157,-0.295,0.210
6158,-0.295,0.230
6159,-0.285,0.225
6160,-0.290,0.205
6161,-0.290,0.190
6162,-0.305,0.200
6163,-0.290,0.190
6164,-0.280,0.190
6165,-0.280,0.175
6166,-0.285,0.160
6167,-0.295,0.160
6168,-0.290,0.165
6169,-0.280,0.160
6170,-0.275,0.165
6171,-0.260,0.145
6172,-0.275,0.125
6173,-0.260,0.115
6174,-0.255,0.100
6175,-0.235,0.120
6176,-0.220,0.125
6177,-0.220,0.115
6178,-0.210,0.110
6179,-0.225,0.090
6180,-0.225,0.095
6181,-0.210,0.100
6182,-0.190,0.120
6183,-0.190,0.110
6184,-0.185,0.105
6185,-0.190,0.100
6186,-0.185,0.125
6187,-0.195,0.145
6188,-0.165,0.165
6189,-0.155,0.155
6190,-0.155,0.160
6191,-0.160,0.150
6192,-0.165,0.160
6193,-0.160,0.175
6194,-0.160,0.180
6195,-0.150,0.175
6196,-0.150,0.180
6197,-0.165,0.160
6198,-0.160,0.160
6199,-0.155,0.170
6200,-0.150,0.190
6201,-0.130,0.195
6202,-0.150,0.190
6203,-0.135,0.180
6204,-0.135,0.195
6205,-0.130,0.200
6206,-0.120,0.205
6207,-0.120,0.200
6208,-0.140,0.190
6209,-0.135,0.180
6210,-0.145,0.175
6211,-0.130,0.180
6212,-0.135,0.190
6213,-0.135,0.175
6214,-0.140,0.155
6215,-0.160,0.135
6216,-0.155,0.125
6217,-0.155,0.125
6218,-0.135,0.140
6219,-0.130,0.125
6220,-0.150,0.130
6221,-0.160,0.110
6222,-0.165,0.135
6223,-0.150,0.140
6224,-0.145,0.145
6225,-0.130,0.145
6226,-0.150,0.135
6227,-0.165,0.135
6228,-0.160,0.150
6229,-0.160,0.150
6230,-0.150,0.155
6231,-0.145,0.160
6232,-0.165,0.165
6233,-0.170,0.150
6234,-0.175,0.165
6235,-0.180,0.175
6236,-0.160,0.190
6237,-0.160,0.200
6238,-0.160,0.200
6239,-0.165,0.200
6240,-0.160,0.200
6241,-0.150,0.220
6242,-0.155,0.225
6243,-0.145,0.225
6244,-0.160,0.210
6245,-0.160,0.205
6246,-0.155,0.210
6247,-0.155,0.185
6248,-0.140,0.185
6249,-0.155,0.180
6250,-0.170,0.165
6251,-0.170,0.160
6252,-0.175,0.165
6253,-0.170,0.170
6254,-0.165,0.180
6255,-0.155,0.170
6256,-0.150,0.150
6257,-0.160,0.135
6258,-0.155,0.135
6259,-0.135,0.145
6260,-0.130,0.145
6261,-0.125,0.145
6262,-0.140,0.140
6263,-0.150,0.140
6264,-0.150,0.145
6265,-0.140,0.140
6266,-0.130,0.155
6267,-0.120,0.140
6268,-0.140,0.130
6269,-0.155,0.110
6270,-0.175,0.125
6271,-0.155,0.125
6272,-0.145,0.130
6273,-0.140,0.135
6274,-0.145,0.115
6275,-0.160,0.100
6276,-0.180,0.120
6277,-0.170,0.125
6278,-0.160,0.140
6279,-0.155,0.145
6280,-0.150,0.135
6281,-0.155,0.130
6282,-0.165,0.140
6283,-0.165,0.155
6284,-0.170,0.180
6285,-0.165,0.175
6286,-0.170,0.160
6287,-0.185,0.160
6288,-0.185,0.175
6289,-0.180,0.195
6290,-0.165,0.210
6291,-0.160,0.215
6292,-0.170,0.210
6293,-0.185,0.200
6294,-0.190,0.190
6295,-0.170,0.185
6296,-0.170,0.180
6297,-0.160,0.175
6298,-0.165,0.155
6299,-0.180,0.135
6300,-0.180,0.130
6301,-0.175,0.115
6302,-0.180,0.110
6303,-0.170,0.125
6304,-0.170,0.120
6305,-0.180,0.105
6306,-0.180,0.115
6307,-0.185,0.125
6308,-0.155,0.140
6309,-0.150,0.140
6310,-0.150,0.135
6311,-0.155,0.125
6312,-0.155,0.130
6313,-0.165,0.135
6314,-0.145,0.150
6315,-0.145,0.140
6316,-0.145,0.125
6317,-0.160,0.125
6318,-0.155,0.135
6319,-0.150,0.140
6320,-0.145,0.155
6321,-0.145,0.155
6322,-0.150,0.125
6323,-0.160,0.120
6324,-0.165,0.125
6325,-0.150,0.130
6326,-0.150,0.145
6327,-0.160,0.145
6328,-0.160,0.125
6329,-0.165,0.120
6330,-0.170,0.130
6331,-0.165,0.145
6332,-0.155,0.150
6333,-0.150,0.145
6334,-0.170,0.125
6335,-0.165,0.120
6336,-0.170,0.125
6337,-0.160,0.135
6338,-0.155,0.140
6339,-0.155,0.135
6340,-0.155,0.130
6341,-0.165,0.130
6342,-0.195,0.135
6343,-0.180,0.150
6344,-0.160,0.175
6345,-0.150,0.165
6346,-0.150,0.155
6347,-0.155,0.145
6348,-0.155,0.150
6349,-0.155,0.160
6350,-0.160,0.165
6351,-0.135,0.155
6352,-0.115,0.140
6353,-0.075,0.120
6354,0.005,0.110
6355,0.120,0.090
6356,0.220,0.070
6357,0.350,0.040
6358,0.455,0.005
6359,0.545,-0.020
6360,0.665,-0.030
6361,0.800,-0.025
6362,0.925,-0.025
6363,0.985,-0.085
6364,0.980,-0.130
6365,0.940,-0.165
6366,0.885,-0.155
6367,0.835,-0.145
6368,0.730,-0.100
6369,0.570,-0.060
6370,0.350,-0.025
6371,0.140,0.015
6372,0.005,0.055
6373,-0.060,0.090
6374,-0.090,0.120
6375,-0.120,0.120
6376,-0.170,0.110
6377,-0.220,0.120
6378,-0.225,0.095
6379,-0.230,0.110
6380,-0.235,0.115
6381,-0.250,0.115
6382,-0.270,0.105
6383,-0.275,0.105
6384,-0.290,0.115
6385,-0.275,0.125
6386,-0.295,0.120
6387,-0.305,0.130
6388,-0.310,0.125
6389,-0.330,0.120
6390,-0.315,0.125
6391,-0.315,0.150
6392,-0.310,0.170
6393,-0.315,0.155
6394,-0.330,0.160
6395,-0.340,0.150
6396,-0.340,0.150
6397,-0.335,0.155
6398,-0.350,0.175
6399,-0.340,0.175
6400,-0.360,0.165
6401,-0.365,0.160
6402,-0.365,0.180
6403,-0.350,0.190
6404,-0.345,0.200
6405,-0.355,0.200
6406,-0.340,0.195
6407,-0.345,0.185
6408,-0.350,0.190
6409,-0.345,0.195
6410,-0.335,0.215
6411,-0.330,0.190
6412,-0.335,0.195
6413,-0.350,0.180
6414,-0.350,0.185
6415,-0.335,0.195
6416,-0.330,0.200
6417,-0.325,0.195
6418,-0.330,0.190
6419,-0.330,0.180
6420,-0.325,0.180
6421,-0.315,0.185
6422,-0.315,0.200
6423,-0.315,0.190
6424,-0.315,0.185
6425,-0.325,0.170
6426,-0.330,0.165
6427,-0.325,0.180
6428,-0.300,0.170
6429,-0.310,0.180
6430,-0.315,0.165
6431,-0.325,0.150
6432,-0.325,0.145
6433,-0.325,0.140
6434,-0.305,0.155
6435,-0.315,0.160
6436,-0.310,0.140
6437,-0.320,0.125
6438,-0.325,0.130
6439,-0.305,0.155
6440,-0.305,0.165
6441,-0.305,0.155
6442,-0.305,0.150
6443,-0.305,0.140
6444,-0.300,0.135
6445,-0.305,0.160
6446,-0.295,0.165
6447,-0.280,0.160
6448,-0.285,0.150
6449,-0.285,0.130
6450,-0.275,0.135
6451,-0.260,0.155
6452,-0.260,0.175
6453,-0.255,0.165
6454,-0.250,0.170
6455,-0.250,0.150
6456,-0.235,0.155
6457,-0.215,0.160
6458,-0.195,0.170
6459,-0.205,0.170
6460,-0.195,0.160
6461,-0.205,0.155
6462,-0.190,0.175
6463,-0.195,0.180
6464,-0.165,0.185
6465,-0.155,0.180
6466,-0.170,0.165
6467,-0.180,0.150
6468,-0.180,0.170
6469,-0.170,0.180
6470,-0.155,0.190
6471,-0.160,0.195
6472,-0.150,0.185
6473,-0.165,0.165
6474,-0.150,0.175
6475,-0.160,0.190
6476,-0.145,0.180
6477,-0.135,0.180
6478,-0.145,0.175
6479,-0.150,0.155
6480,-0.170,0.170
6481,-0.165,0.185
6482,-0.155,0.170
6483,-0.155,0.170
6484,-0.170,0.170
6485,-0.185,0.150
6486,-0.190,0.150
6487,-0.185,0.145
6488,-0.185,0.160
6489,-0.185,0.145
6490,-0.190,0.135
6491,-0.185,0.120
6492,-0.185,0.120
6493,-0.175,0.115
6494,-0.185,0.140
6495,-0.185,0.155
6496,-0.185,0.145
6497,-0.185,0.140
6498,-0.195,0.160
6499,-0.180,0.180
6500,-0.170,0.185
6501,-0.180,0.185
6502,-0.185,0.170
6503,-0.190,0.180
6504,-0.190,0.195
6505,-0.180,0.200
6506,-0.180,0.220
6507,-0.175,0.220
6508,-0.185,0.205
6509,-0.180,0.205
6510,-0.205,0.200
6511,-0.195,0.210
6512,-0.200,0.200
6513,-0.220,0.200
6514,-0.270,0.170
6515,-0.275,0.150
6516,-0.230,0.115
6517,-0.185,0.105
6518,-0.140,0.095
6519,-0.085,0.065
6520,-0.060,0.050
6521,-0.090,0.050
6522,-0.170,0.100
6523,-0.295,0.165
6524,-0.410,0.220
6525,-0.485,0.240
6526,-0.540,0.275
6527,-0.570,0.280
6528,-0.580,0.325
6529,-0.595,0.330
6530,-0.580,0.330
6531,-0.590,0.320
6532,-0.580,0.315
6533,-0.555,0.300
6534,-0.520,0.305
6535,-0.495,0.345
6536,-0.475,0.425
6537,-0.470,0.495
6538,-0.500,0.530
6539,-0.495,0.570
6540,-0.490,0.585
6541,-0.470,0.625
6542,-0.450,0.645
6543,-0.440,0.670
6544,-0.435,0.665
6545,-0.445,0.695
6546,-0.395,0.675
6547,-0.330,0.585
6548,-0.260,0.490
6549,-0.220,0.375
6550,-0.220,0.275
6551,-0.215,0.205
6552,-0.215,0.155
6553,-0.200,0.155
6554,-0.180,0.165
6555,-0.150,0.165
6556,-0.180,0.155
6557,-0.180,0.125
6558,-0.185,0.135
6559,-0.155,0.145
6560,-0.145,0.155
6561,-0.130,0.140
6562,-0.125,0.130
6563,-0.150,0.105
6564,-0.160,0.110
6565,-0.130,0.110
6566,-0.110,0.100
6567,-0.110,0.090
6568,-0.115,0.075
6569,-0.125,0.055
6570,-0.120,0.055
6571,-0.105,0.055
6572,-0.080,0.055
6573,-0.080,0.035
6574,-0.075,0.000
6575,-0.080,-0.025
6576,-0.060,-0.030
6577,-0.045,-0.040
6578,-0.030,-0.045
6579,-0.010,-0.055
6580,-0.015,-0.060
6581,-0.005,-0.070
6582,-0.005,-0.080
6583,0.025,-0.070
6584,0.045,-0.075
6585,0.060,-0.090
6586,0.070,-0.095
6587,0.075,-0.110
6588,0.055,-0.110
6589,0.075,-0.100
6590,0.100,-0.090
6591,0.125,-0.105
6592,0.130,-0.115
6593,0.120,-0.115
6594,0.115,-0.105
6595,0.130,-0.100
6596,0.145,-0.080
6597,0.140,-0.080
6598,0.120,-0.100
6599,0.110,-0.095
6600,0.080,-0.085
6601,0.080,-0.085
6602,0.060,-0.070
6603,0.060,-0.060
6604,0.025,-0.070
6605,-0.010,-0.070
6606,-0.010,-0.055
6607,-0.010,-0.040
6608,-0.015,-0.040
6609,-0.035,-0.035
6610,-0.050,-0.035
6611,-0.070,-0.060
6612,-0.090,-0.045
6613,-0.105,-0.045
6614,-0.115,-0.010
6615,-0.115,-0.015
6616,-0.125,-0.020
6617,-0.125,-0.020
6618,-0.155,-0.015
6619,-0.150,0.020
6620,-0.145,0.035
6621,-0.140,0.045
6622,-0.145,0.035
6623,-0.160,0.045
6624,-0.165,0.055
6625,-0.170,0.075
6626,-0.155,0.085
6627,-0.150,0.080
6628,-0.155,0.080
6629,-0.170,0.075
6630,-0.190,0.075
6631,-0.195,0.090
6632,-0.195,0.105
6633,-0.185,0.085
6634,-0.185,0.080
6635,-0.190,0.090
6636,-0.200,0.095
6637,-0.200,0.095
6638,-0.190,0.115
6639,-0.200,0.105
6640,-0.200,0.100
6641,-0.205,0.105
6642,-0.220,0.110
6643,-0.210,0.135
6644,-0.210,0.135
6645,-0.225,0.135
6646,-0.235,0.125
6647,-0.240,0.115
6648,-0.240,0.120
6649,-0.240,0.110
6650,-0.235,0.125
6651,-0.250,0.120
6652,-0.240,0.125
6653,-0.250,0.125
6654,-0.245,0.150
6655,-0.230,0.145
6656,-0.215,0.155
6657,-0.230,0.145
6658,-0.230,0.130
6659,-0.240,0.115
6660,-0.230,0.135
6661,-0.215,0.130
6662,-0.215,0.140
6663,-0.225,0.145
6664,-0.230,0.125
6665,-0.240,0.110
6666,-0.245,0.130
6667,-0.225,0.130
6668,-0.215,0.140
6669,-0.210,0.145
6670,-0.220,0.160
6671,-0.220,0.145
6672,-0.225,0.140
6673,-0.215,0.155
6674,-0.200,0.155
6675,-0.205,0.160
6676,-0.225,0.135
6677,-0.225,0.135
6678,-0.230,0.150
6679,-0.220,0.150
6680,-0.210,0.170
6681,-0.225,0.160
6682,-0.235,0.135
6683,-0.235,0.125
6684,-0.225,0.125
6685,-0.220,0.125
6686,-0.230,0.140
6687,-0.230,0.120
6688,-0.240,0.100
6689,-0.245,0.090
6690,-0.245,0.090
6691,-0.245,0.095
6692,-0.245,0.100
6693,-0.250,0.100
6694,-0.290,0.090
6695,-0.265,0.085
6696,-0.265,0.085
6697,-0.270,0.080
6698,-0.250,0.100
6699,-0.260,0.085
6700,-0.260,0.075
6701,-0.270,0.070
6702,-0.270,0.085
6703,-0.255,0.095
6704,-0.250,0.115
6705,-0.250,0.125
6706,-0.250,0.100
6707,-0.255,0.105
6708,-0.260,0.115
6709,-0.235,0.130
6710,-0.235,0.135
6711,-0.230,0.135
