'sample interval','MLII','V1'
'0.00277778 sec','mV','mV'
0,-0.930,-0.160
1,-0.930,-0.160
2,-0.930,-0.160
3,-0.930,-0.160
4,-0.930,-0.160
5,-0.930,-0.160
6,-0.930,-0.160
7,-0.930,-0.160
8,-0.925,-0.160
9,-0.925,-0.170
10,-0.920,-0.160
11,-0.915,-0.160
12,-0.910,-0.150
13,-0.900,-0.145
14,-0.875,-0.135
15,-0.870,-0.130
16,-0.850,-0.125
17,-0.840,-0.130
18,-0.815,-0.130
19,-0.815,-0.150
20,-0.805,-0.170
21,-0.785,-0.180
22,-0.775,-0.175
23,-0.770,-0.180
24,-0.740,-0.185
25,-0.735,-0.190
26,-0.710,-0.190
27,-0.700,-0.190
28,-0.675,-0.190
29,-0.670,-0.195
30,-0.660,-0.210
31,-0.655,-0.225
32,-0.665,-0.235
33,-0.660,-0.260
34,-0.665,-0.270
35,-0.665,-0.270
36,-0.660,-0.270
37,-0.670,-0.275
38,-0.650,-0.265
39,-0.655,-0.260
40,-0.640,-0.255
41,-0.630,-0.270
42,-0.640,-0.285
43,-0.635,-0.300
44,-0.645,-0.310
45,-0.650,-0.315
46,-0.660,-0.325
47,-0.665,-0.315
48,-0.670,-0.315
49,-0.665,-0.310
50,-0.660,-0.315
51,-0.650,-0.305
52,-0.645,-0.310
53,-0.650,-0.320
54,-0.650,-0.315
55,-0.650,-0.330
56,-0.660,-0.345
57,-0.670,-0.340
58,-0.675,-0.350
59,-0.680,-0.350
60,-0.685,-0.340
61,-0.690,-0.325
62,-0.670,-0.330
63,-0.675,-0.325
64,-0.670,-0.320
65,-0.675,-0.320
66,-0.690,-0.330
67,-0.695,-0.340
68,-0.695,-0.345
69,-0.680,-0.365
70,-0.700,-0.360
71,-0.695,-0.365
72,-0.700,-0.355
73,-0.695,-0.350
74,-0.700,-0.340
75,-0.690,-0.330
76,-0.690,-0.335
77,-0.695,-0.340
78,-0.690,-0.335
79,-0.695,-0.350
80,-0.695,-0.350
81,-0.700,-0.360
82,-0.700,-0.360
83,-0.700,-0.355
84,-0.700,-0.360
85,-0.700,-0.350
86,-0.685,-0.340
87,-0.685,-0.330
88,-0.675,-0.335
89,-0.670,-0.345
90,-0.665,-0.350
91,-0.670,-0.350
92,-0.675,-0.370
93,-0.670,-0.370
94,-0.675,-0.370
95,-0.685,-0.375
96,-0.680,-0.370
97,-0.680,-0.365
98,-0.660,-0.360
99,-0.655,-0.360
100,-0.645,-0.350
101,-0.655,-0.350
102,-0.630,-0.375
103,-0.640,-0.375
104,-0.630,-0.380
105,-0.640,-0.380
106,-0.650,-0.385
107,-0.650,-0.385
108,-0.660,-0.385
109,-0.650,-0.380
110,-0.645,-0.380
111,-0.625,-0.365
112,-0.615,-0.370
113,-0.625,-0.355
114,-0.625,-0.365
115,-0.620,-0.385
116,-0.635,-0.385
117,-0.635,-0.400
118,-0.635,-0.405
119,-0.635,-0.405
120,-0.630,-0.400
121,-0.625,-0.395
122,-0.625,-0.395
123,-0.605,-0.380
124,-0.595,-0.370
125,-0.580,-0.380
126,-0.575,-0.370
127,-0.565,-0.385
128,-0.570,-0.405
129,-0.565,-0.400
130,-0.575,-0.405
131,-0.565,-0.400
132,-0.550,-0.390
133,-0.550,-0.380
134,-0.535,-0.385
135,-0.520,-0.365
136,-0.505,-0.365
137,-0.495,-0.370
138,-0.485,-0.365
139,-0.480,-0.380
140,-0.480,-0.395
141,-0.470,-0.395
142,-0.475,-0.420
143,-0.465,-0.425
144,-0.445,-0.430
145,-0.450,-0.435
146,-0.435,-0.435
147,-0.430,-0.445
148,-0.435,-0.450
149,-0.445,-0.470
150,-0.465,-0.465
151,-0.470,-0.470
152,-0.495,-0.475
153,-0.515,-0.475
154,-0.530,-0.480
155,-0.550,-0.455
156,-0.550,-0.460
157,-0.575,-0.445
158,-0.560,-0.425
159,-0.565,-0.420
160,-0.565,-0.400
161,-0.575,-0.415
162,-0.600,-0.415
163,-0.610,-0.410
164,-0.625,-0.415
165,-0.640,-0.425
166,-0.645,-0.435
167,-0.650,-0.430
168,-0.635,-0.420
169,-0.630,-0.405
170,-0.620,-0.410
171,-0.605,-0.405
172,-0.595,-0.405
173,-0.605,-0.405
174,-0.590,-0.415
175,-0.590,-0.420
176,-0.595,-0.435
177,-0.605,-0.430
178,-0.605,-0.445
179,-0.625,-0.450
180,-0.620,-0.435
181,-0.595,-0.430
182,-0.585,-0.420
183,-0.580,-0.425
184,-0.565,-0.415
185,-0.555,-0.425
186,-0.550,-0.425
187,-0.545,-0.435
188,-0.520,-0.440
189,-0.505,-0.445
190,-0.470,-0.465
191,-0.435,-0.455
192,-0.355,-0.450
193,-0.280,-0.440
194,-0.170,-0.425
195,-0.050,-0.435
196,0.065,-0.435
197,0.240,-0.450
198,0.410,-0.495
199,0.615,-0.545
200,0.810,-0.620
201,0.980,-0.730
202,1.115,-0.850
203,1.230,-0.955
204,1.335,-1.080
205,1.445,-1.190
206,1.500,-1.290
207,1.455,-1.410
208,1.240,-1.505
209,0.855,-1.600
210,0.405,-1.625
211,-0.060,-1.610
212,-0.450,-1.525
213,-0.710,-1.420
214,-0.840,-1.300
215,-0.870,-1.165
216,-0.820,-1.050
217,-0.765,-0.945
218,-0.730,-0.850
219,-0.695,-0.780
220,-0.670,-0.700
221,-0.665,-0.640
222,-0.665,-0.575
223,-0.675,-0.525
224,-0.690,-0.485
225,-0.705,-0.470
226,-0.720,-0.455
227,-0.720,-0.455
228,-0.725,-0.450
229,-0.740,-0.445
230,-0.725,-0.420
231,-0.710,-0.415
232,-0.710,-0.395
233,-0.735,-0.395
234,-0.725,-0.395
235,-0.720,-0.420
236,-0.730,-0.420
237,-0.735,-0.420
238,-0.750,-0.430
239,-0.745,-0.425
240,-0.755,-0.410
241,-0.765,-0.410
242,-0.760,-0.400
243,-0.755,-0.400
244,-0.760,-0.390
245,-0.750,-0.385
246,-0.765,-0.380
247,-0.765,-0.395
248,-0.770,-0.400
249,-0.770,-0.405
250,-0.785,-0.400
251,-0.775,-0.390
252,-0.775,-0.400
253,-0.775,-0.380
254,-0.775,-0.380
255,-0.775,-0.375
256,-0.775,-0.365
257,-0.770,-0.350
258,-0.770,-0.365
259,-0.780,-0.375
260,-0.785,-0.380
261,-0.795,-0.395
262,-0.810,-0.380
263,-0.820,-0.385
264,-0.825,-0.375
265,-0.815,-0.370
266,-0.815,-0.365
267,-0.810,-0.360
268,-0.805,-0.350
269,-0.800,-0.355
270,-0.815,-0.360
271,-0.820,-0.355
272,-0.825,-0.370
273,-0.840,-0.370
274,-0.845,-0.370
275,-0.865,-0.355
276,-0.860,-0.355
277,-0.875,-0.355
278,-0.855,-0.340
279,-0.855,-0.320
280,-0.860,-0.320
281,-0.855,-0.320
282,-0.860,-0.315
283,-0.870,-0.315
284,-0.890,-0.315
285,-0.900,-0.315
286,-0.900,-0.315
287,-0.895,-0.325
288,-0.895,-0.315
289,-0.910,-0.285
290,-0.905,-0.290
291,-0.890,-0.275
292,-0.885,-0.250
293,-0.865,-0.260
294,-0.870,-0.245
295,-0.880,-0.245
296,-0.885,-0.255
297,-0.890,-0.250
298,-0.900,-0.265
299,-0.880,-0.260
300,-0.875,-0.255
301,-0.865,-0.240
302,-0.840,-0.230
303,-0.830,-0.220
304,-0.805,-0.220
305,-0.795,-0.230
306,-0.775,-0.240
307,-0.760,-0.250
308,-0.760,-0.250
309,-0.750,-0.260
310,-0.740,-0.270
311,-0.730,-0.275
312,-0.725,-0.275
313,-0.700,-0.270
314,-0.685,-0.270
315,-0.655,-0.275
316,-0.645,-0.265
317,-0.635,-0.280
318,-0.630,-0.300
319,-0.610,-0.310
320,-0.610,-0.320
321,-0.615,-0.335
322,-0.615,-0.345
323,-0.620,-0.355
324,-0.625,-0.355
325,-0.620,-0.360
326,-0.600,-0.350
327,-0.595,-0.360
328,-0.575,-0.355
329,-0.580,-0.365
330,-0.580,-0.370
331,-0.595,-0.380
332,-0.590,-0.390
333,-0.585,-0.410
334,-0.595,-0.410
335,-0.590,-0.405
336,-0.595,-0.400
337,-0.605,-0.395
338,-0.590,-0.400
339,-0.605,-0.395
340,-0.590,-0.395
341,-0.595,-0.385
342,-0.590,-0.400
343,-0.605,-0.410
344,-0.600,-0.415
345,-0.610,-0.425
346,-0.610,-0.425
347,-0.610,-0.430
348,-0.610,-0.420
349,-0.610,-0.415
350,-0.620,-0.415
351,-0.615,-0.405
352,-0.610,-0.410
353,-0.600,-0.415
354,-0.605,-0.415
355,-0.630,-0.410
356,-0.625,-0.415
357,-0.640,-0.430
358,-0.645,-0.440
359,-0.645,-0.435
360,-0.640,-0.435
361,-0.630,-0.425
362,-0.635,-0.405
363,-0.625,-0.400
364,-0.625,-0.395
365,-0.610,-0.405
366,-0.620,-0.400
367,-0.620,-0.420
368,-0.620,-0.420
369,-0.645,-0.415
370,-0.650,-0.420
371,-0.660,-0.425
372,-0.650,-0.420
373,-0.655,-0.410
374,-0.630,-0.395
375,-0.615,-0.400
376,-0.610,-0.390
377,-0.610,-0.410
378,-0.605,-0.405
379,-0.610,-0.400
380,-0.615,-0.420
381,-0.620,-0.420
382,-0.620,-0.425
383,-0.630,-0.430
384,-0.635,-0.425
385,-0.625,-0.410
386,-0.605,-0.405
387,-0.585,-0.405
388,-0.580,-0.400
389,-0.580,-0.405
390,-0.590,-0.410
391,-0.590,-0.410
392,-0.590,-0.425
393,-0.585,-0.420
394,-0.605,-0.430
395,-0.595,-0.430
396,-0.605,-0.425
397,-0.600,-0.415
398,-0.600,-0.400
399,-0.590,-0.415
400,-0.575,-0.395
401,-0.560,-0.410
402,-0.565,-0.405
403,-0.550,-0.415
404,-0.550,-0.420
405,-0.560,-0.435
406,-0.560,-0.430
407,-0.570,-0.430
408,-0.555,-0.420
409,-0.545,-0.430
410,-0.535,-0.410
411,-0.525,-0.410
412,-0.515,-0.395
413,-0.515,-0.390
414,-0.505,-0.395
415,-0.510,-0.400
416,-0.495,-0.410
417,-0.500,-0.410
418,-0.500,-0.415
419,-0.490,-0.410
420,-0.475,-0.400
421,-0.455,-0.405
422,-0.440,-0.395
423,-0.430,-0.390
424,-0.425,-0.400
425,-0.395,-0.410
426,-0.385,-0.430
427,-0.400,-0.460
428,-0.400,-0.475
429,-0.420,-0.500
430,-0.445,-0.510
431,-0.455,-0.515
432,-0.470,-0.490
433,-0.485,-0.485
434,-0.490,-0.465
435,-0.520,-0.445
436,-0.525,-0.430
437,-0.525,-0.430
438,-0.545,-0.435
439,-0.560,-0.435
440,-0.580,-0.430
441,-0.600,-0.435
442,-0.625,-0.445
443,-0.645,-0.435
444,-0.620,-0.430
445,-0.630,-0.435
446,-0.610,-0.430
447,-0.615,-0.415
448,-0.600,-0.410
449,-0.595,-0.410
450,-0.595,-0.415
451,-0.585,-0.410
452,-0.600,-0.440
453,-0.610,-0.445
454,-0.620,-0.455
455,-0.610,-0.450
456,-0.605,-0.450
457,-0.600,-0.435
458,-0.600,-0.430
459,-0.585,-0.435
460,-0.570,-0.420
461,-0.545,-0.435
462,-0.535,-0.445
463,-0.525,-0.445
464,-0.490,-0.445
465,-0.470,-0.465
466,-0.410,-0.470
467,-0.335,-0.475
468,-0.255,-0.465
469,-0.145,-0.450
470,-0.015,-0.460
471,0.110,-0.450
472,0.280,-0.465
473,0.430,-0.505
474,0.600,-0.545
475,0.780,-0.605
476,0.930,-0.685
477,1.065,-0.790
478,1.165,-0.890
479,1.250,-0.995
480,1.325,-1.085
481,1.405,-1.170
482,1.445,-1.275
483,1.445,-1.360
484,1.325,-1.465
485,1.075,-1.560
486,0.710,-1.630
487,0.290,-1.660
488,-0.100,-1.650
489,-0.425,-1.585
490,-0.650,-1.475
491,-0.765,-1.345
492,-0.780,-1.220
493,-0.770,-1.105
494,-0.735,-1.000
495,-0.725,-0.925
496,-0.695,-0.850
497,-0.690,-0.790
498,-0.690,-0.750
499,-0.680,-0.685
500,-0.690,-0.615
501,-0.690,-0.565
502,-0.710,-0.515
503,-0.710,-0.495
504,-0.720,-0.455
505,-0.730,-0.450
506,-0.725,-0.440
507,-0.715,-0.430
508,-0.715,-0.435
509,-0.710,-0.420
510,-0.715,-0.420
511,-0.725,-0.410
512,-0.725,-0.420
513,-0.740,-0.425
514,-0.745,-0.435
515,-0.755,-0.415
516,-0.760,-0.420
517,-0.765,-0.410
518,-0.745,-0.390
519,-0.750,-0.385
520,-0.745,-0.380
521,-0.745,-0.375
522,-0.755,-0.385
523,-0.745,-0.390
524,-0.760,-0.400
525,-0.775,-0.400
526,-0.770,-0.400
527,-0.785,-0.400
528,-0.790,-0.395
529,-0.775,-0.390
530,-0.780,-0.385
531,-0.760,-0.370
532,-0.765,-0.365
533,-0.770,-0.365
534,-0.775,-0.375
535,-0.765,-0.370
536,-0.790,-0.370
537,-0.785,-0.385
538,-0.795,-0.385
539,-0.795,-0.385
540,-0.790,-0.380
541,-0.805,-0.365
542,-0.785,-0.365
543,-0.795,-0.350
544,-0.790,-0.350
545,-0.790,-0.345
546,-0.795,-0.355
547,-0.800,-0.350
548,-0.810,-0.355
549,-0.820,-0.365
550,-0.825,-0.365
551,-0.830,-0.365
552,-0.845,-0.350
553,-0.845,-0.355
554,-0.840,-0.335
555,-0.835,-0.325
556,-0.830,-0.315
557,-0.830,-0.315
558,-0.840,-0.320
559,-0.850,-0.325
560,-0.865,-0.320
561,-0.875,-0.330
562,-0.900,-0.320
563,-0.900,-0.320
564,-0.890,-0.310
565,-0.885,-0.310
566,-0.885,-0.280
567,-0.880,-0.265
568,-0.870,-0.265
569,-0.880,-0.255
570,-0.875,-0.250
571,-0.865,-0.260
572,-0.885,-0.265
573,-0.885,-0.260
574,-0.885,-0.260
575,-0.890,-0.245
576,-0.885,-0.245
577,-0.870,-0.225
578,-0.870,-0.215
579,-0.850,-0.225
580,-0.835,-0.200
581,-0.825,-0.220
582,-0.805,-0.220
583,-0.790,-0.220
584,-0.785,-0.230
585,-0.760,-0.235
586,-0.770,-0.245
587,-0.745,-0.245
588,-0.730,-0.245
589,-0.720,-0.250
590,-0.700,-0.245
591,-0.680,-0.250
592,-0.660,-0.245
593,-0.645,-0.255
594,-0.650,-0.260
595,-0.630,-0.270
596,-0.640,-0.295
597,-0.630,-0.305
598,-0.630,-0.320
599,-0.640,-0.315
600,-0.625,-0.325
601,-0.630,-0.325
602,-0.610,-0.315
603,-0.605,-0.315
604,-0.590,-0.330
605,-0.585,-0.325
606,-0.585,-0.330
607,-0.590,-0.335
608,-0.585,-0.355
609,-0.605,-0.370
610,-0.610,-0.375
611,-0.625,-0.370
612,-0.615,-0.370
613,-0.605,-0.365
614,-0.600,-0.370
615,-0.600,-0.365
616,-0.595,-0.375
617,-0.585,-0.375
618,-0.595,-0.390
619,-0.605,-0.380
620,-0.610,-0.390
621,-0.615,-0.390
622,-0.605,-0.410
623,-0.615,-0.410
624,-0.635,-0.425
625,-0.625,-0.395
626,-0.620,-0.395
627,-0.620,-0.385
628,-0.610,-0.385
629,-0.595,-0.375
630,-0.600,-0.385
631,-0.605,-0.395
632,-0.625,-0.395
633,-0.625,-0.410
634,-0.650,-0.410
635,-0.650,-0.420
636,-0.655,-0.415
637,-0.640,-0.400
638,-0.650,-0.395
639,-0.640,-0.390
640,-0.645,-0.380
641,-0.620,-0.385
642,-0.620,-0.380
643,-0.640,-0.385
644,-0.640,-0.395
645,-0.635,-0.400
646,-0.645,-0.395
647,-0.655,-0.390
648,-0.655,-0.395
649,-0.665,-0.390
650,-0.675,-0.390
651,-0.660,-0.375
652,-0.660,-0.370
653,-0.655,-0.370
654,-0.640,-0.385
655,-0.640,-0.390
656,-0.645,-0.395
657,-0.665,-0.390
658,-0.665,-0.395
659,-0.665,-0.400
660,-0.650,-0.400
661,-0.660,-0.385
662,-0.645,-0.380
663,-0.630,-0.370
664,-0.620,-0.370
665,-0.610,-0.365
666,-0.610,-0.380
667,-0.610,-0.375
668,-0.610,-0.385
669,-0.615,-0.395
670,-0.615,-0.385
671,-0.610,-0.390
672,-0.620,-0.390
673,-0.610,-0.385
674,-0.615,-0.385
675,-0.610,-0.380
676,-0.590,-0.355
677,-0.585,-0.365
678,-0.590,-0.370
679,-0.575,-0.365
680,-0.575,-0.380
681,-0.580,-0.405
682,-0.580,-0.410
683,-0.580,-0.395
684,-0.575,-0.390
685,-0.560,-0.380
686,-0.555,-0.375
687,-0.545,-0.360
688,-0.530,-0.355
689,-0.525,-0.355
690,-0.525,-0.370
691,-0.520,-0.365
692,-0.510,-0.370
693,-0.520,-0.380
694,-0.520,-0.380
695,-0.520,-0.375
696,-0.500,-0.375
697,-0.490,-0.365
698,-0.480,-0.350
699,-0.465,-0.345
700,-0.440,-0.355
701,-0.425,-0.370
702,-0.415,-0.375
703,-0.415,-0.380
704,-0.410,-0.415
705,-0.420,-0.430
706,-0.430,-0.450
707,-0.440,-0.465
708,-0.445,-0.460
709,-0.445,-0.465
710,-0.455,-0.460
711,-0.455,-0.455
712,-0.465,-0.435
713,-0.475,-0.430
714,-0.490,-0.430
715,-0.510,-0.420
716,-0.515,-0.420
717,-0.535,-0.425
718,-0.555,-0.425
719,-0.560,-0.425
720,-0.580,-0.415
721,-0.605,-0.400
722,-0.595,-0.400
723,-0.605,-0.390
724,-0.595,-0.370
725,-0.600,-0.385
726,-0.605,-0.385
727,-0.600,-0.395
728,-0.610,-0.390
729,-0.625,-0.395
730,-0.630,-0.405
731,-0.615,-0.415
732,-0.615,-0.405
733,-0.605,-0.400
734,-0.600,-0.400
735,-0.590,-0.395
736,-0.585,-0.385
737,-0.570,-0.395
738,-0.575,-0.395
739,-0.565,-0.395
740,-0.555,-0.400
741,-0.550,-0.410
742,-0.540,-0.425
743,-0.525,-0.420
744,-0.505,-0.415
745,-0.455,-0.420
746,-0.400,-0.410
747,-0.320,-0.405
748,-0.235,-0.405
749,-0.125,-0.385
750,-0.005,-0.405
751,0.130,-0.420
752,0.295,-0.450
753,0.470,-0.510
754,0.675,-0.560
755,0.875,-0.640
756,1.030,-0.740
757,1.175,-0.845
758,1.275,-0.960
759,1.355,-1.070
760,1.425,-1.165
761,1.445,-1.290
762,1.370,-1.395
763,1.185,-1.510
764,0.885,-1.590
765,0.525,-1.655
766,0.145,-1.675
767,-0.200,-1.645
768,-0.465,-1.550
769,-0.635,-1.450
770,-0.715,-1.310
771,-0.740,-1.195
772,-0.720,-1.085
773,-0.710,-0.990
774,-0.700,-0.925
775,-0.700,-0.865
776,-0.700,-0.820
777,-0.705,-0.765
778,-0.695,-0.705
779,-0.690,-0.655
780,-0.690,-0.580
781,-0.680,-0.525
782,-0.685,-0.475
783,-0.680,-0.435
784,-0.685,-0.395
785,-0.690,-0.390
786,-0.695,-0.390
787,-0.705,-0.405
788,-0.700,-0.405
789,-0.695,-0.395
790,-0.730,-0.405
791,-0.735,-0.405
792,-0.735,-0.375
793,-0.745,-0.370
794,-0.740,-0.360
795,-0.730,-0.360
796,-0.740,-0.350
797,-0.720,-0.365
798,-0.735,-0.360
799,-0.725,-0.370
800,-0.730,-0.375
801,-0.740,-0.375
802,-0.745,-0.375
803,-0.760,-0.375
804,-0.755,-0.370
805,-0.750,-0.360
806,-0.760,-0.350
807,-0.750,-0.345
808,-0.750,-0.330
809,-0.740,-0.345
810,-0.750,-0.335
811,-0.745,-0.345
812,-0.760,-0.345
813,-0.770,-0.355
814,-0.785,-0.355
815,-0.795,-0.355
816,-0.795,-0.345
817,-0.790,-0.345
818,-0.790,-0.325
819,-0.785,-0.320
820,-0.775,-0.315
821,-0.780,-0.305
822,-0.780,-0.320
823,-0.785,-0.330
824,-0.790,-0.335
825,-0.815,-0.330
826,-0.815,-0.330
827,-0.835,-0.330
828,-0.825,-0.325
829,-0.830,-0.315
830,-0.825,-0.310
831,-0.825,-0.285
832,-0.820,-0.285
833,-0.820,-0.280
834,-0.830,-0.285
835,-0.825,-0.285
836,-0.835,-0.285
837,-0.845,-0.290
838,-0.855,-0.285
839,-0.865,-0.285
840,-0.875,-0.265
841,-0.860,-0.260
842,-0.860,-0.255
843,-0.870,-0.250
844,-0.865,-0.225
845,-0.865,-0.220
846,-0.850,-0.230
847,-0.860,-0.230
848,-0.865,-0.220
849,-0.875,-0.220
850,-0.870,-0.225
851,-0.865,-0.235
852,-0.870,-0.220
853,-0.865,-0.205
854,-0.860,-0.175
855,-0.850,-0.180
856,-0.840,-0.170
857,-0.835,-0.160
858,-0.820,-0.175
859,-0.815,-0.175
860,-0.810,-0.190
861,-0.800,-0.190
862,-0.795,-0.200
863,-0.790,-0.185
864,-0.770,-0.180
865,-0.760,-0.190
866,-0.750,-0.185
867,-0.735,-0.190
868,-0.715,-0.170
869,-0.680,-0.175
870,-0.670,-0.200
871,-0.665,-0.210
872,-0.655,-0.215
873,-0.645,-0.230
874,-0.640,-0.240
875,-0.645,-0.245
876,-0.640,-0.250
877,-0.625,-0.245
878,-0.610,-0.250
879,-0.595,-0.260
880,-0.600,-0.245
881,-0.585,-0.260
882,-0.580,-0.275
883,-0.580,-0.295
884,-0.595,-0.300
885,-0.595,-0.315
886,-0.590,-0.305
887,-0.580,-0.330
888,-0.585,-0.335
889,-0.580,-0.325
890,-0.575,-0.310
891,-0.575,-0.315
892,-0.560,-0.300
893,-0.555,-0.320
894,-0.570,-0.320
895,-0.565,-0.335
896,-0.580,-0.350
897,-0.590,-0.350
898,-0.595,-0.355
899,-0.600,-0.365
900,-0.590,-0.360
901,-0.605,-0.360
902,-0.595,-0.340
903,-0.585,-0.350
904,-0.580,-0.340
905,-0.580,-0.355
906,-0.580,-0.345
907,-0.595,-0.355
908,-0.600,-0.355
909,-0.600,-0.375
910,-0.605,-0.375
911,-0.615,-0.370
912,-0.620,-0.365
913,-0.615,-0.350
914,-0.600,-0.350
915,-0.605,-0.345
916,-0.605,-0.335
917,-0.585,-0.340
918,-0.595,-0.350
919,-0.605,-0.350
920,-0.615,-0.360
921,-0.615,-0.365
922,-0.620,-0.355
923,-0.620,-0.370
924,-0.625,-0.355
925,-0.620,-0.360
926,-0.620,-0.350
927,-0.610,-0.340
928,-0.605,-0.330
929,-0.600,-0.330
930,-0.610,-0.335
931,-0.610,-0.345
932,-0.620,-0.340
933,-0.620,-0.335
934,-0.630,-0.350
935,-0.630,-0.360
936,-0.640,-0.345
937,-0.625,-0.335
938,-0.615,-0.325
939,-0.605,-0.325
940,-0.600,-0.315
941,-0.590,-0.320
942,-0.590,-0.325
943,-0.595,-0.330
944,-0.595,-0.335
945,-0.595,-0.345
946,-0.595,-0.345
947,-0.595,-0.355
948,-0.590,-0.340
949,-0.590,-0.345
950,-0.580,-0.340
951,-0.590,-0.320
952,-0.565,-0.315
953,-0.565,-0.325
954,-0.560,-0.325
955,-0.550,-0.330
956,-0.555,-0.335
957,-0.570,-0.335
958,-0.585,-0.345
959,-0.570,-0.355
960,-0.565,-0.330
961,-0.550,-0.330
962,-0.550,-0.330
963,-0.530,-0.325
964,-0.505,-0.300
965,-0.500,-0.305
966,-0.490,-0.315
967,-0.495,-0.315
968,-0.500,-0.310
969,-0.495,-0.320
970,-0.510,-0.315
971,-0.520,-0.320
972,-0.500,-0.320
973,-0.485,-0.310
974,-0.470,-0.290
975,-0.460,-0.285
976,-0.455,-0.280
977,-0.425,-0.275
978,-0.410,-0.285
979,-0.395,-0.290
980,-0.400,-0.300
981,-0.395,-0.320
982,-0.400,-0.335
983,-0.395,-0.335
984,-0.400,-0.350
985,-0.395,-0.360
986,-0.415,-0.355
987,-0.405,-0.370
988,-0.395,-0.370
989,-0.400,-0.355
990,-0.415,-0.365
991,-0.440,-0.345
992,-0.455,-0.350
993,-0.475,-0.360
994,-0.490,-0.335
995,-0.510,-0.340
996,-0.535,-0.315
997,-0.540,-0.330
998,-0.540,-0.320
999,-0.545,-0.295
1000,-0.550,-0.295
1001,-0.560,-0.305
1002,-0.575,-0.295
1003,-0.580,-0.305
1004,-0.575,-0.310
1005,-0.585,-0.310
1006,-0.585,-0.315
1007,-0.590,-0.305
1008,-0.590,-0.315
1009,-0.575,-0.305
1010,-0.580,-0.295
1011,-0.580,-0.305
1012,-0.555,-0.295
1013,-0.555,-0.295
1014,-0.535,-0.285
1015,-0.540,-0.310
1016,-0.545,-0.320
1017,-0.540,-0.325
1018,-0.530,-0.340
1019,-0.530,-0.335
1020,-0.495,-0.325
1021,-0.470,-0.320
1022,-0.425,-0.300
1023,-0.345,-0.300
1024,-0.225,-0.300
1025,-0.095,-0.300
1026,0.055,-0.320
1027,0.230,-0.335
1028,0.420,-0.375
1029,0.625,-0.415
1030,0.820,-0.490
1031,0.990,-0.570
1032,1.125,-0.685
1033,1.220,-0.785
1034,1.295,-0.910
1035,1.370,-1.005
1036,1.400,-1.115
1037,1.345,-1.240
1038,1.180,-1.345
1039,0.870,-1.445
1040,0.475,-1.505
1041,0.060,-1.525
1042,-0.300,-1.485
1043,-0.580,-1.380
1044,-0.730,-1.255
1045,-0.800,-1.120
1046,-0.780,-0.985
1047,-0.750,-0.875
1048,-0.715,-0.795
1049,-0.675,-0.730
1050,-0.655,-0.665
1051,-0.645,-0.595
1052,-0.650,-0.535
1053,-0.655,-0.475
1054,-0.650,-0.420
1055,-0.655,-0.355
1056,-0.665,-0.330
1057,-0.675,-0.290
1058,-0.675,-0.280
1059,-0.675,-0.270
1060,-0.670,-0.270
1061,-0.665,-0.275
1062,-0.665,-0.280
1063,-0.660,-0.270
1064,-0.685,-0.275
1065,-0.690,-0.265
1066,-0.710,-0.270
1067,-0.695,-0.255
1068,-0.700,-0.255
1069,-0.700,-0.250
1070,-0.690,-0.235
1071,-0.695,-0.225
1072,-0.700,-0.230
1073,-0.700,-0.230
1074,-0.695,-0.230
1075,-0.705,-0.245
1076,-0.705,-0.245
1077,-0.715,-0.245
1078,-0.730,-0.260
1079,-0.735,-0.240
1080,-0.730,-0.230
1081,-0.725,-0.225
1082,-0.720,-0.215
1083,-0.740,-0.210
1084,-0.740,-0.200
1085,-0.735,-0.215
1086,-0.730,-0.215
1087,-0.725,-0.225
1088,-0.735,-0.215
1089,-0.735,-0.235
1090,-0.750,-0.230
1091,-0.750,-0.205
1092,-0.750,-0.215
1093,-0.750,-0.210
1094,-0.760,-0.195
1095,-0.755,-0.190
1096,-0.755,-0.190
1097,-0.755,-0.190
1098,-0.765,-0.190
1099,-0.770,-0.200
1100,-0.785,-0.205
1101,-0.795,-0.200
1102,-0.800,-0.205
1103,-0.805,-0.195
1104,-0.810,-0.190
1105,-0.820,-0.180
1106,-0.820,-0.165
1107,-0.815,-0.155
1108,-0.815,-0.145
1109,-0.820,-0.160
1110,-0.825,-0.145
1111,-0.835,-0.170
1112,-0.835,-0.155
1113,-0.845,-0.160
1114,-0.860,-0.150
1115,-0.855,-0.145
1116,-0.850,-0.120
1117,-0.850,-0.110
1118,-0.850,-0.105
1119,-0.855,-0.085
1120,-0.830,-0.090
1121,-0.835,-0.080
1122,-0.835,-0.090
1123,-0.835,-0.080
1124,-0.840,-0.075
1125,-0.840,-0.080
1126,-0.840,-0.080
1127,-0.840,-0.060
1128,-0.820,-0.070
1129,-0.815,-0.050
1130,-0.785,-0.035
1131,-0.780,-0.040
1132,-0.765,-0.040
1133,-0.750,-0.055
1134,-0.740,-0.050
1135,-0.730,-0.060
1136,-0.725,-0.075
1137,-0.700,-0.075
1138,-0.700,-0.080
1139,-0.680,-0.075
1140,-0.670,-0.070
1141,-0.635,-0.075
1142,-0.620,-0.060
1143,-0.605,-0.065
1144,-0.590,-0.080
1145,-0.580,-0.095
1146,-0.580,-0.100
1147,-0.585,-0.125
1148,-0.580,-0.135
1149,-0.585,-0.140
1150,-0.595,-0.150
1151,-0.570,-0.145
1152,-0.575,-0.155
1153,-0.565,-0.155
1154,-0.540,-0.150
1155,-0.540,-0.160
1156,-0.540,-0.150
1157,-0.540,-0.175
1158,-0.535,-0.180
1159,-0.550,-0.185
1160,-0.565,-0.205
1161,-0.555,-0.205
1162,-0.570,-0.210
1163,-0.570,-0.215
1164,-0.565,-0.200
1165,-0.545,-0.200
1166,-0.545,-0.210
1167,-0.540,-0.195
1168,-0.540,-0.190
1169,-0.545,-0.210
1170,-0.555,-0.210
1171,-0.575,-0.220
1172,-0.580,-0.235
1173,-0.590,-0.230
1174,-0.585,-0.245
1175,-0.590,-0.245
1176,-0.585,-0.240
1177,-0.565,-0.220
1178,-0.565,-0.215
1179,-0.565,-0.215
1180,-0.560,-0.210
1181,-0.575,-0.220
1182,-0.565,-0.230
1183,-0.585,-0.245
1184,-0.595,-0.240
1185,-0.605,-0.245
1186,-0.605,-0.240
1187,-0.615,-0.245
1188,-0.610,-0.240
1189,-0.610,-0.220
1190,-0.600,-0.220
1191,-0.600,-0.220
1192,-0.595,-0.210
1193,-0.605,-0.215
1194,-0.600,-0.220
1195,-0.615,-0.235
1196,-0.620,-0.230
1197,-0.630,-0.240
1198,-0.625,-0.240
1199,-0.620,-0.240
1200,-0.620,-0.240
1201,-0.620,-0.230
1202,-0.610,-0.215
1203,-0.605,-0.210
1204,-0.595,-0.205
1205,-0.595,-0.215
1206,-0.585,-0.215
1207,-0.590,-0.230
1208,-0.600,-0.230
1209,-0.600,-0.245
1210,-0.605,-0.250
1211,-0.600,-0.240
1212,-0.600,-0.235
1213,-0.590,-0.230
1214,-0.590,-0.220
1215,-0.590,-0.225
1216,-0.575,-0.215
1217,-0.565,-0.235
1218,-0.565,-0.230
1219,-0.585,-0.245
1220,-0.575,-0.245
1221,-0.580,-0.250
1222,-0.570,-0.255
1223,-0.580,-0.245
1224,-0.580,-0.240
1225,-0.570,-0.240
1226,-0.560,-0.235
1227,-0.565,-0.235
1228,-0.540,-0.225
1229,-0.540,-0.230
1230,-0.540,-0.240
1231,-0.535,-0.250
1232,-0.545,-0.255
1233,-0.540,-0.260
1234,-0.545,-0.270
1235,-0.550,-0.265
1236,-0.535,-0.260
1237,-0.535,-0.255
1238,-0.510,-0.240
1239,-0.510,-0.240
1240,-0.485,-0.225
1241,-0.485,-0.245
1242,-0.490,-0.235
1243,-0.460,-0.245
1244,-0.470,-0.245
1245,-0.470,-0.245
1246,-0.465,-0.245
1247,-0.465,-0.245
1248,-0.450,-0.240
1249,-0.430,-0.235
1250,-0.420,-0.240
1251,-0.400,-0.245
1252,-0.400,-0.250
1253,-0.390,-0.285
1254,-0.410,-0.295
1255,-0.410,-0.315
1256,-0.430,-0.340
1257,-0.430,-0.335
1258,-0.445,-0.355
1259,-0.460,-0.335
1260,-0.460,-0.325
1261,-0.485,-0.315
1262,-0.495,-0.290
1263,-0.510,-0.280
1264,-0.510,-0.280
1265,-0.510,-0.280
1266,-0.530,-0.290
1267,-0.545,-0.285
1268,-0.565,-0.285
1269,-0.585,-0.295
1270,-0.590,-0.280
1271,-0.615,-0.280
1272,-0.620,-0.270
1273,-0.625,-0.275
1274,-0.615,-0.255
1275,-0.605,-0.250
1276,-0.600,-0.255
1277,-0.590,-0.265
1278,-0.585,-0.255
1279,-0.600,-0.265
1280,-0.590,-0.275
1281,-0.590,-0.275
1282,-0.605,-0.285
1283,-0.595,-0.290
1284,-0.595,-0.270
1285,-0.595,-0.270
1286,-0.580,-0.255
1287,-0.570,-0.260
1288,-0.555,-0.270
1289,-0.560,-0.270
1290,-0.545,-0.275
1291,-0.535,-0.285
1292,-0.515,-0.285
1293,-0.500,-0.300
1294,-0.460,-0.305
1295,-0.405,-0.295
1296,-0.315,-0.290
1297,-0.205,-0.285
1298,-0.080,-0.265
1299,0.075,-0.275
1300,0.265,-0.275
1301,0.460,-0.305
1302,0.660,-0.350
1303,0.855,-0.425
1304,1.005,-0.535
1305,1.130,-0.660
1306,1.220,-0.770
1307,1.290,-0.890
1308,1.355,-0.995
1309,1.350,-1.110
1310,1.220,-1.230
1311,0.905,-1.325
1312,0.480,-1.415
1313,0.000,-1.420
1314,-0.445,-1.370
1315,-0.750,-1.270
1316,-0.905,-1.110
1317,-0.935,-0.970
1318,-0.900,-0.850
1319,-0.835,-0.755
1320,-0.760,-0.665
1321,-0.695,-0.600
1322,-0.655,-0.535
1323,-0.640,-0.450
1324,-0.645,-0.380
1325,-0.655,-0.340
1326,-0.670,-0.305
1327,-0.675,-0.290
1328,-0.695,-0.275
1329,-0.710,-0.280
1330,-0.720,-0.285
1331,-0.735,-0.270
1332,-0.745,-0.275
1333,-0.730,-0.255
1334,-0.725,-0.250
1335,-0.725,-0.240
1336,-0.700,-0.230
1337,-0.705,-0.245
1338,-0.715,-0.235
1339,-0.715,-0.245
1340,-0.725,-0.245
1341,-0.750,-0.245
1342,-0.755,-0.255
1343,-0.755,-0.245
1344,-0.765,-0.245
1345,-0.750,-0.225
1346,-0.740,-0.225
1347,-0.745,-0.215
1348,-0.735,-0.225
1349,-0.740,-0.215
1350,-0.750,-0.215
1351,-0.755,-0.230
1352,-0.770,-0.235
1353,-0.770,-0.240
1354,-0.770,-0.235
1355,-0.780,-0.230
1356,-0.785,-0.225
1357,-0.780,-0.225
1358,-0.785,-0.205
1359,-0.775,-0.200
1360,-0.770,-0.190
1361,-0.770,-0.195
1362,-0.780,-0.200
1363,-0.790,-0.210
1364,-0.800,-0.205
1365,-0.805,-0.220
1366,-0.810,-0.220
1367,-0.810,-0.205
1368,-0.820,-0.210
1369,-0.835,-0.190
1370,-0.820,-0.190
1371,-0.820,-0.185
1372,-0.810,-0.170
1373,-0.830,-0.180
1374,-0.840,-0.175
1375,-0.835,-0.170
1376,-0.840,-0.190
1377,-0.860,-0.185
1378,-0.870,-0.180
1379,-0.865,-0.170
1380,-0.875,-0.165
1381,-0.870,-0.145
1382,-0.875,-0.145
1383,-0.875,-0.125
1384,-0.880,-0.125
1385,-0.870,-0.120
1386,-0.875,-0.110
1387,-0.865,-0.105
1388,-0.895,-0.105
1389,-0.890,-0.100
1390,-0.885,-0.115
1391,-0.885,-0.105
1392,-0.860,-0.095
1393,-0.865,-0.075
1394,-0.850,-0.070
1395,-0.830,-0.065
1396,-0.810,-0.060
1397,-0.805,-0.075
1398,-0.790,-0.070
1399,-0.770,-0.075
1400,-0.760,-0.075
1401,-0.760,-0.090
1402,-0.745,-0.085
1403,-0.725,-0.095
1404,-0.720,-0.095
1405,-0.690,-0.105
1406,-0.670,-0.085
1407,-0.645,-0.080
1408,-0.630,-0.090
1409,-0.630,-0.125
1410,-0.620,-0.120
1411,-0.615,-0.135
1412,-0.635,-0.155
1413,-0.620,-0.160
1414,-0.615,-0.170
1415,-0.620,-0.175
1416,-0.615,-0.180
1417,-0.610,-0.185
1418,-0.595,-0.175
1419,-0.575,-0.170
1420,-0.570,-0.175
1421,-0.560,-0.175
1422,-0.560,-0.205
1423,-0.580,-0.205
1424,-0.585,-0.210
1425,-0.585,-0.225
1426,-0.600,-0.225
1427,-0.595,-0.225
1428,-0.600,-0.225
1429,-0.605,-0.215
1430,-0.585,-0.210
1431,-0.580,-0.200
1432,-0.570,-0.205
1433,-0.575,-0.220
1434,-0.580,-0.210
1435,-0.590,-0.220
1436,-0.610,-0.235
1437,-0.615,-0.240
1438,-0.630,-0.250
1439,-0.620,-0.250
1440,-0.620,-0.230
1441,-0.610,-0.235
1442,-0.615,-0.225
1443,-0.610,-0.220
1444,-0.600,-0.220
1445,-0.600,-0.220
1446,-0.610,-0.235
1447,-0.610,-0.240
1448,-0.615,-0.240
1449,-0.620,-0.240
1450,-0.630,-0.245
1451,-0.630,-0.240
1452,-0.640,-0.235
1453,-0.650,-0.230
1454,-0.635,-0.235
1455,-0.630,-0.225
1456,-0.630,-0.220
1457,-0.625,-0.230
1458,-0.635,-0.240
1459,-0.630,-0.245
1460,-0.640,-0.245
1461,-0.640,-0.240
1462,-0.640,-0.255
1463,-0.645,-0.250
1464,-0.655,-0.245
1465,-0.650,-0.240
1466,-0.645,-0.225
1467,-0.620,-0.230
1468,-0.630,-0.215
1469,-0.625,-0.225
1470,-0.620,-0.235
1471,-0.625,-0.245
1472,-0.625,-0.250
1473,-0.630,-0.245
1474,-0.625,-0.250
1475,-0.625,-0.245
1476,-0.620,-0.240
1477,-0.615,-0.250
1478,-0.600,-0.235
1479,-0.605,-0.240
1480,-0.590,-0.230
1481,-0.595,-0.225
1482,-0.600,-0.240
1483,-0.595,-0.250
1484,-0.590,-0.250
1485,-0.605,-0.255
1486,-0.600,-0.270
1487,-0.610,-0.265
1488,-0.605,-0.250
1489,-0.615,-0.250
1490,-0.610,-0.240
1491,-0.605,-0.230
1492,-0.575,-0.235
1493,-0.570,-0.240
1494,-0.580,-0.245
1495,-0.590,-0.240
1496,-0.585,-0.255
1497,-0.585,-0.265
1498,-0.575,-0.270
1499,-0.575,-0.270
1500,-0.565,-0.255
1501,-0.555,-0.255
1502,-0.550,-0.250
1503,-0.540,-0.245
1504,-0.525,-0.240
1505,-0.540,-0.245
1506,-0.535,-0.255
1507,-0.530,-0.250
1508,-0.535,-0.265
1509,-0.530,-0.260
1510,-0.530,-0.265
1511,-0.535,-0.245
1512,-0.520,-0.240
1513,-0.515,-0.240
1514,-0.495,-0.230
1515,-0.490,-0.235
1516,-0.460,-0.235
1517,-0.440,-0.250
1518,-0.430,-0.265
1519,-0.440,-0.285
1520,-0.440,-0.315
1521,-0.445,-0.325
1522,-0.450,-0.360
1523,-0.475,-0.360
1524,-0.470,-0.365
1525,-0.495,-0.345
1526,-0.490,-0.335
1527,-0.490,-0.320
1528,-0.510,-0.300
1529,-0.525,-0.295
1530,-0.550,-0.300
1531,-0.560,-0.290
1532,-0.580,-0.300
1533,-0.600,-0.310
1534,-0.615,-0.300
1535,-0.635,-0.285
1536,-0.635,-0.290
1537,-0.645,-0.270
1538,-0.640,-0.270
1539,-0.620,-0.270
1540,-0.615,-0.260
1541,-0.615,-0.270
1542,-0.615,-0.280
1543,-0.615,-0.290
1544,-0.610,-0.300
1545,-0.625,-0.305
1546,-0.635,-0.310
1547,-0.630,-0.295
1548,-0.635,-0.300
1549,-0.630,-0.295
1550,-0.620,-0.285
1551,-0.615,-0.285
1552,-0.595,-0.275
1553,-0.590,-0.285
1554,-0.585,-0.290
1555,-0.575,-0.305
1556,-0.570,-0.310
1557,-0.555,-0.315
1558,-0.535,-0.325
1559,-0.500,-0.315
1560,-0.455,-0.310
1561,-0.380,-0.295
1562,-0.280,-0.295
1563,-0.185,-0.275
1564,-0.050,-0.270
1565,0.085,-0.275
1566,0.235,-0.305
1567,0.410,-0.315
1568,0.580,-0.360
1569,0.740,-0.425
1570,0.890,-0.500
1571,1.015,-0.585
1572,1.100,-0.695
1573,1.195,-0.780
1574,1.260,-0.875
1575,1.350,-0.940
1576,1.380,-1.040
1577,1.310,-1.145
1578,1.140,-1.230
1579,0.850,-1.330
1580,0.485,-1.400
1581,0.100,-1.410
1582,-0.245,-1.420
1583,-0.525,-1.385
1584,-0.705,-1.315
1585,-0.805,-1.205
1586,-0.825,-1.105
1587,-0.815,-0.990
1588,-0.785,-0.900
1589,-0.770,-0.835
1590,-0.755,-0.760
1591,-0.740,-0.710
1592,-0.730,-0.640
1593,-0.725,-0.575
1594,-0.725,-0.510
1595,-0.720,-0.425
1596,-0.715,-0.385
1597,-0.715,-0.330
1598,-0.725,-0.320
1599,-0.715,-0.305
1600,-0.715,-0.300
1601,-0.715,-0.305
1602,-0.725,-0.305
1603,-0.740,-0.305
1604,-0.745,-0.305
1605,-0.750,-0.310
1606,-0.765,-0.315
1607,-0.775,-0.300
1608,-0.775,-0.310
1609,-0.765,-0.295
1610,-0.770,-0.285
1611,-0.765,-0.285
1612,-0.760,-0.270
1613,-0.760,-0.265
1614,-0.765,-0.275
1615,-0.770,-0.275
1616,-0.785,-0.295
1617,-0.780,-0.295
1618,-0.790,-0.300
1619,-0.790,-0.300
1620,-0.800,-0.285
1621,-0.795,-0.280
1622,-0.785,-0.275
1623,-0.790,-0.265
1624,-0.770,-0.255
1625,-0.785,-0.275
1626,-0.795,-0.270
1627,-0.800,-0.280
1628,-0.815,-0.285
1629,-0.805,-0.285
1630,-0.825,-0.290
1631,-0.825,-0.290
1632,-0.830,-0.285
1633,-0.825,-0.265
1634,-0.815,-0.255
1635,-0.825,-0.255
1636,-0.815,-0.255
1637,-0.835,-0.250
1638,-0.835,-0.255
1639,-0.835,-0.260
1640,-0.835,-0.270
1641,-0.845,-0.270
1642,-0.855,-0.275
1643,-0.865,-0.270
1644,-0.870,-0.265
1645,-0.865,-0.260
1646,-0.860,-0.245
1647,-0.860,-0.230
1648,-0.865,-0.230
1649,-0.865,-0.230
1650,-0.880,-0.230
1651,-0.875,-0.245
1652,-0.880,-0.245
1653,-0.905,-0.255
1654,-0.905,-0.245
1655,-0.915,-0.245
1656,-0.915,-0.230
1657,-0.915,-0.220
1658,-0.915,-0.210
1659,-0.910,-0.200
1660,-0.900,-0.180
1661,-0.885,-0.195
1662,-0.885,-0.195
1663,-0.890,-0.200
1664,-0.900,-0.200
1665,-0.885,-0.195
1666,-0.890,-0.195
1667,-0.890,-0.185
1668,-0.880,-0.180
1669,-0.875,-0.175
1670,-0.845,-0.175
1671,-0.845,-0.155
1672,-0.840,-0.165
1673,-0.815,-0.170
1674,-0.820,-0.170
1675,-0.805,-0.185
1676,-0.790,-0.185
1677,-0.770,-0.190
1678,-0.750,-0.200
1679,-0.740,-0.205
1680,-0.700,-0.205
1681,-0.690,-0.205
1682,-0.670,-0.210
1683,-0.650,-0.210
1684,-0.625,-0.210
1685,-0.615,-0.225
1686,-0.610,-0.240
1687,-0.600,-0.255
1688,-0.595,-0.275
1689,-0.600,-0.285
1690,-0.605,-0.285
1691,-0.600,-0.285
1692,-0.595,-0.290
1693,-0.590,-0.290
1694,-0.580,-0.290
1695,-0.580,-0.290
1696,-0.565,-0.285
1697,-0.570,-0.300
1698,-0.565,-0.310
1699,-0.560,-0.310
1700,-0.575,-0.330
1701,-0.565,-0.345
1702,-0.575,-0.350
1703,-0.575,-0.340
1704,-0.570,-0.340
1705,-0.565,-0.335
1706,-0.575,-0.340
1707,-0.565,-0.330
1708,-0.550,-0.335
1709,-0.560,-0.340
1710,-0.560,-0.345
1711,-0.560,-0.355
1712,-0.570,-0.370
1713,-0.565,-0.370
1714,-0.575,-0.370
1715,-0.580,-0.360
1716,-0.580,-0.365
1717,-0.580,-0.360
1718,-0.570,-0.365
1719,-0.555,-0.360
1720,-0.575,-0.345
1721,-0.575,-0.365
1722,-0.580,-0.370
1723,-0.595,-0.375
1724,-0.595,-0.385
1725,-0.590,-0.395
1726,-0.610,-0.390
1727,-0.610,-0.390
1728,-0.610,-0.380
1729,-0.595,-0.370
1730,-0.590,-0.365
1731,-0.585,-0.360
1732,-0.580,-0.360
1733,-0.590,-0.375
1734,-0.580,-0.370
1735,-0.590,-0.380
1736,-0.590,-0.385
1737,-0.600,-0.385
1738,-0.600,-0.385
1739,-0.610,-0.385
1740,-0.605,-0.390
1741,-0.605,-0.370
1742,-0.590,-0.370
1743,-0.580,-0.360
1744,-0.570,-0.365
1745,-0.570,-0.370
1746,-0.570,-0.360
1747,-0.585,-0.375
1748,-0.570,-0.380
1749,-0.580,-0.385
1750,-0.575,-0.395
1751,-0.585,-0.395
1752,-0.580,-0.390
1753,-0.575,-0.375
1754,-0.565,-0.385
1755,-0.560,-0.360
1756,-0.560,-0.360
1757,-0.545,-0.370
1758,-0.545,-0.370
1759,-0.535,-0.390
1760,-0.550,-0.400
1761,-0.550,-0.390
1762,-0.560,-0.410
1763,-0.555,-0.400
1764,-0.545,-0.395
1765,-0.555,-0.390
1766,-0.540,-0.385
1767,-0.535,-0.380
1768,-0.520,-0.370
1769,-0.505,-0.380
1770,-0.520,-0.385
1771,-0.515,-0.395
1772,-0.520,-0.410
1773,-0.515,-0.410
1774,-0.520,-0.420
1775,-0.525,-0.410
1776,-0.510,-0.405
1777,-0.510,-0.405
1778,-0.495,-0.390
1779,-0.480,-0.390
1780,-0.465,-0.380
1781,-0.460,-0.390
1782,-0.455,-0.390
1783,-0.450,-0.395
1784,-0.460,-0.395
1785,-0.465,-0.395
1786,-0.465,-0.405
1787,-0.460,-0.390
1788,-0.445,-0.385
1789,-0.435,-0.385
1790,-0.415,-0.375
1791,-0.405,-0.375
1792,-0.380,-0.375
1793,-0.365,-0.385
1794,-0.355,-0.390
1795,-0.355,-0.420
1796,-0.360,-0.425
1797,-0.370,-0.445
1798,-0.370,-0.475
1799,-0.385,-0.480
1800,-0.400,-0.480
1801,-0.405,-0.485
1802,-0.410,-0.480
1803,-0.405,-0.455
1804,-0.405,-0.455
1805,-0.410,-0.445
1806,-0.415,-0.445
1807,-0.445,-0.445
1808,-0.465,-0.450
1809,-0.485,-0.450
1810,-0.490,-0.440
1811,-0.505,-0.440
1812,-0.510,-0.440
1813,-0.515,-0.425
1814,-0.530,-0.405
1815,-0.520,-0.410
1816,-0.525,-0.400
1817,-0.540,-0.400
1818,-0.555,-0.405
1819,-0.555,-0.415
1820,-0.560,-0.410
1821,-0.560,-0.425
1822,-0.555,-0.435
1823,-0.565,-0.425
1824,-0.555,-0.415
1825,-0.555,-0.425
1826,-0.555,-0.410
1827,-0.535,-0.400
1828,-0.540,-0.400
1829,-0.535,-0.410
1830,-0.515,-0.410
1831,-0.515,-0.420
1832,-0.520,-0.435
1833,-0.520,-0.440
1834,-0.505,-0.445
1835,-0.505,-0.445
1836,-0.490,-0.445
1837,-0.475,-0.430
1838,-0.445,-0.420
1839,-0.425,-0.410
1840,-0.370,-0.405
1841,-0.320,-0.425
1842,-0.255,-0.430
1843,-0.175,-0.435
1844,-0.085,-0.450
1845,0.025,-0.450
1846,0.145,-0.460
1847,0.290,-0.475
1848,0.470,-0.495
1849,0.680,-0.530
1850,0.860,-0.575
1851,1.040,-0.675
1852,1.185,-0.775
1853,1.320,-0.885
1854,1.420,-0.990
1855,1.525,-1.105
1856,1.615,-1.215
1857,1.635,-1.320
1858,1.570,-1.420
1859,1.345,-1.520
1860,1.020,-1.590
1861,0.610,-1.625
1862,0.215,-1.635
1863,-0.150,-1.590
1864,-0.415,-1.510
1865,-0.575,-1.420
1866,-0.650,-1.310
1867,-0.660,-1.195
1868,-0.660,-1.095
1869,-0.655,-1.025
1870,-0.655,-0.960
1871,-0.660,-0.895
1872,-0.635,-0.830
1873,-0.630,-0.765
1874,-0.620,-0.690
1875,-0.605,-0.620
1876,-0.600,-0.560
1877,-0.600,-0.495
1878,-0.605,-0.460
1879,-0.615,-0.455
1880,-0.625,-0.445
1881,-0.640,-0.465
1882,-0.650,-0.450
1883,-0.660,-0.440
1884,-0.665,-0.435
1885,-0.655,-0.420
1886,-0.670,-0.410
1887,-0.650,-0.400
1888,-0.645,-0.380
1889,-0.650,-0.385
1890,-0.660,-0.400
1891,-0.660,-0.390
1892,-0.670,-0.405
1893,-0.670,-0.410
1894,-0.695,-0.410
1895,-0.685,-0.400
1896,-0.690,-0.390
1897,-0.700,-0.395
1898,-0.705,-0.390
1899,-0.690,-0.380
1900,-0.685,-0.355
1901,-0.680,-0.370
1902,-0.680,-0.375
1903,-0.685,-0.385
1904,-0.695,-0.380
1905,-0.705,-0.395
1906,-0.720,-0.395
1907,-0.725,-0.385
1908,-0.735,-0.380
1909,-0.730,-0.370
1910,-0.730,-0.370
1911,-0.735,-0.360
1912,-0.730,-0.355
1913,-0.720,-0.355
1914,-0.725,-0.345
1915,-0.730,-0.365
1916,-0.740,-0.370
1917,-0.745,-0.365
1918,-0.760,-0.370
1919,-0.780,-0.360
1920,-0.785,-0.355
1921,-0.790,-0.350
1922,-0.785,-0.350
1923,-0.775,-0.330
1924,-0.770,-0.325
1925,-0.765,-0.320
1926,-0.780,-0.325
1927,-0.780,-0.325
1928,-0.795,-0.320
1929,-0.800,-0.335
1930,-0.815,-0.330
1931,-0.825,-0.335
1932,-0.825,-0.325
1933,-0.835,-0.320
1934,-0.830,-0.290
1935,-0.830,-0.290
1936,-0.830,-0.265
1937,-0.825,-0.270
1938,-0.840,-0.270
1939,-0.835,-0.275
1940,-0.845,-0.285
1941,-0.830,-0.270
1942,-0.850,-0.270
1943,-0.850,-0.260
1944,-0.840,-0.255
1945,-0.840,-0.245
1946,-0.830,-0.230
1947,-0.815,-0.220
1948,-0.805,-0.215
1949,-0.805,-0.215
1950,-0.785,-0.205
1951,-0.785,-0.215
1952,-0.775,-0.235
1953,-0.770,-0.230
1954,-0.765,-0.240
1955,-0.765,-0.235
1956,-0.750,-0.220
1957,-0.730,-0.230
1958,-0.710,-0.225
1959,-0.680,-0.230
1960,-0.655,-0.225
1961,-0.645,-0.225
1962,-0.625,-0.250
1963,-0.625,-0.255
1964,-0.620,-0.265
1965,-0.625,-0.270
1966,-0.610,-0.290
1967,-0.605,-0.300
1968,-0.580,-0.310
1969,-0.590,-0.300
1970,-0.560,-0.315
1971,-0.560,-0.325
1972,-0.555,-0.320
1973,-0.545,-0.330
1974,-0.545,-0.340
1975,-0.540,-0.355
1976,-0.535,-0.370
1977,-0.540,-0.370
1978,-0.545,-0.385
1979,-0.550,-0.385
1980,-0.545,-0.390
1981,-0.540,-0.380
1982,-0.535,-0.385
1983,-0.540,-0.375
1984,-0.520,-0.375
1985,-0.515,-0.385
1986,-0.530,-0.375
1987,-0.540,-0.395
1988,-0.550,-0.405
1989,-0.560,-0.405
1990,-0.550,-0.410
1991,-0.560,-0.405
1992,-0.560,-0.400
1993,-0.565,-0.395
1994,-0.545,-0.400
1995,-0.550,-0.400
1996,-0.550,-0.390
1997,-0.550,-0.400
1998,-0.555,-0.390
1999,-0.565,-0.405
2000,-0.565,-0.415
2001,-0.575,-0.420
2002,-0.585,-0.415
2003,-0.585,-0.410
2004,-0.585,-0.415
2005,-0.590,-0.410
2006,-0.585,-0.395
2007,-0.580,-0.395
2008,-0.585,-0.385
2009,-0.580,-0.385
2010,-0.600,-0.395
2011,-0.580,-0.405
2012,-0.590,-0.390
2013,-0.585,-0.415
2014,-0.600,-0.410
2015,-0.600,-0.400
2016,-0.605,-0.405
2017,-0.600,-0.400
2018,-0.595,-0.395
2019,-0.595,-0.395
2020,-0.585,-0.385
2021,-0.585,-0.385
2022,-0.575,-0.390
2023,-0.575,-0.395
2024,-0.595,-0.405
2025,-0.585,-0.410
2026,-0.600,-0.405
2027,-0.605,-0.405
2028,-0.600,-0.415
2029,-0.585,-0.405
2030,-0.580,-0.400
2031,-0.570,-0.385
2032,-0.575,-0.375
2033,-0.565,-0.385
2034,-0.570,-0.385
2035,-0.570,-0.405
2036,-0.580,-0.405
2037,-0.575,-0.410
2038,-0.575,-0.415
2039,-0.580,-0.410
2040,-0.570,-0.405
2041,-0.565,-0.395
2042,-0.560,-0.395
2043,-0.560,-0.385
2044,-0.560,-0.385
2045,-0.540,-0.395
2046,-0.540,-0.405
2047,-0.530,-0.395
2048,-0.540,-0.405
2049,-0.520,-0.400
2050,-0.530,-0.420
2051,-0.520,-0.425
2052,-0.520,-0.415
2053,-0.515,-0.410
2054,-0.500,-0.385
2055,-0.500,-0.385
2056,-0.490,-0.370
2057,-0.475,-0.370
2058,-0.475,-0.385
2059,-0.470,-0.380
2060,-0.465,-0.385
2061,-0.470,-0.385
2062,-0.460,-0.400
2063,-0.465,-0.395
2064,-0.455,-0.390
2065,-0.445,-0.385
2066,-0.415,-0.385
2067,-0.405,-0.385
2068,-0.390,-0.390
2069,-0.385,-0.410
2070,-0.375,-0.420
2071,-0.385,-0.445
2072,-0.390,-0.460
2073,-0.405,-0.480
2074,-0.425,-0.500
2075,-0.425,-0.495
2076,-0.445,-0.485
2077,-0.450,-0.480
2078,-0.460,-0.455
2079,-0.470,-0.425
2080,-0.465,-0.430
2081,-0.475,-0.420
2082,-0.495,-0.430
2083,-0.515,-0.425
2084,-0.525,-0.420
2085,-0.540,-0.435
2086,-0.560,-0.435
2087,-0.575,-0.440
2088,-0.600,-0.420
2089,-0.595,-0.415
2090,-0.590,-0.405
2091,-0.585,-0.410
2092,-0.580,-0.395
2093,-0.575,-0.400
2094,-0.575,-0.415
2095,-0.585,-0.420
2096,-0.585,-0.425
2097,-0.600,-0.430
2098,-0.605,-0.445
2099,-0.610,-0.435
2100,-0.605,-0.430
2101,-0.610,-0.420
2102,-0.595,-0.415
2103,-0.585,-0.410
2104,-0.575,-0.405
2105,-0.545,-0.415
2106,-0.540,-0.415
2107,-0.530,-0.420
2108,-0.555,-0.435
2109,-0.530,-0.440
2110,-0.530,-0.460
2111,-0.505,-0.450
2112,-0.480,-0.445
2113,-0.425,-0.440
2114,-0.340,-0.440
2115,-0.250,-0.430
2116,-0.130,-0.435
2117,0.025,-0.435
2118,0.205,-0.455
2119,0.420,-0.495
2120,0.625,-0.570
2121,0.830,-0.665
2122,1.015,-0.775
2123,1.170,-0.895
2124,1.280,-1.030
2125,1.370,-1.145
2126,1.440,-1.250
2127,1.435,-1.355
2128,1.300,-1.465
2129,1.065,-1.560
2130,0.715,-1.630
2131,0.330,-1.680
2132,-0.045,-1.675
2133,-0.355,-1.615
2134,-0.585,-1.535
2135,-0.705,-1.420
2136,-0.745,-1.295
2137,-0.750,-1.185
2138,-0.720,-1.080
2139,-0.695,-1.000
2140,-0.700,-0.930
2141,-0.695,-0.880
2142,-0.690,-0.820
2143,-0.685,-0.755
2144,-0.680,-0.695
2145,-0.685,-0.620
2146,-0.690,-0.555
2147,-0.715,-0.515
2148,-0.715,-0.465
2149,-0.710,-0.455
2150,-0.715,-0.440
2151,-0.710,-0.435
2152,-0.725,-0.425
2153,-0.700,-0.420
2154,-0.710,-0.420
2155,-0.715,-0.405
2156,-0.720,-0.415
2157,-0.725,-0.425
2158,-0.730,-0.420
2159,-0.740,-0.415
2160,-0.745,-0.420
2161,-0.755,-0.410
2162,-0.755,-0.395
2163,-0.760,-0.390
2164,-0.745,-0.380
2165,-0.735,-0.385
2166,-0.740,-0.390
2167,-0.740,-0.405
2168,-0.755,-0.400
2169,-0.765,-0.405
2170,-0.770,-0.400
2171,-0.780,-0.395
2172,-0.770,-0.390
2173,-0.780,-0.390
2174,-0.775,-0.360
2175,-0.780,-0.370
2176,-0.765,-0.365
2177,-0.775,-0.365
2178,-0.785,-0.375
2179,-0.780,-0.375
2180,-0.780,-0.375
2181,-0.795,-0.385
2182,-0.800,-0.390
2183,-0.820,-0.380
2184,-0.810,-0.375
2185,-0.810,-0.370
2186,-0.805,-0.360
2187,-0.810,-0.345
2188,-0.805,-0.340
2189,-0.810,-0.330
2190,-0.810,-0.350
2191,-0.825,-0.345
2192,-0.825,-0.360
2193,-0.845,-0.350
2194,-0.855,-0.370
2195,-0.855,-0.355
2196,-0.860,-0.345
2197,-0.875,-0.335
2198,-0.870,-0.335
2199,-0.870,-0.320
2200,-0.870,-0.305
2201,-0.875,-0.300
2202,-0.880,-0.295
2203,-0.875,-0.310
2204,-0.895,-0.300
2205,-0.895,-0.305
2206,-0.910,-0.300
2207,-0.915,-0.285
2208,-0.915,-0.295
2209,-0.930,-0.275
2210,-0.915,-0.265
2211,-0.915,-0.250
2212,-0.905,-0.240
2213,-0.895,-0.240
2214,-0.900,-0.225
2215,-0.900,-0.235
2216,-0.895,-0.230
2217,-0.905,-0.240
2218,-0.900,-0.235
2219,-0.920,-0.230
2220,-0.905,-0.225
2221,-0.890,-0.220
2222,-0.870,-0.210
2223,-0.860,-0.190
2224,-0.840,-0.190
2225,-0.830,-0.190
2226,-0.815,-0.200
2227,-0.810,-0.210
2228,-0.800,-0.220
2229,-0.785,-0.220
2230,-0.770,-0.235
2231,-0.760,-0.240
2232,-0.750,-0.250
2233,-0.725,-0.235
2234,-0.715,-0.245
2235,-0.690,-0.235
2236,-0.670,-0.240
2237,-0.655,-0.260
2238,-0.655,-0.255
2239,-0.650,-0.285
2240,-0.640,-0.300
2241,-0.650,-0.305
2242,-0.655,-0.320
2243,-0.660,-0.335
2244,-0.650,-0.330
2245,-0.640,-0.325
2246,-0.640,-0.320
2247,-0.625,-0.325
2248,-0.615,-0.325
2249,-0.610,-0.325
2250,-0.620,-0.335
2251,-0.625,-0.345
2252,-0.630,-0.370
2253,-0.630,-0.370
2254,-0.630,-0.395
2255,-0.630,-0.395
2256,-0.640,-0.380
2257,-0.645,-0.385
2258,-0.645,-0.380
2259,-0.610,-0.370
2260,-0.620,-0.370
2261,-0.610,-0.380
2262,-0.610,-0.370
2263,-0.620,-0.390
2264,-0.635,-0.410
2265,-0.635,-0.405
2266,-0.645,-0.420
2267,-0.650,-0.420
2268,-0.640,-0.410
2269,-0.650,-0.395
2270,-0.635,-0.400
2271,-0.650,-0.390
2272,-0.645,-0.370
2273,-0.640,-0.385
2274,-0.655,-0.390
2275,-0.665,-0.390
2276,-0.665,-0.400
2277,-0.670,-0.410
2278,-0.670,-0.410
2279,-0.675,-0.405
2280,-0.670,-0.405
2281,-0.680,-0.395
2282,-0.665,-0.385
2283,-0.655,-0.380
2284,-0.655,-0.370
2285,-0.655,-0.370
2286,-0.655,-0.385
2287,-0.655,-0.390
2288,-0.660,-0.385
2289,-0.680,-0.385
2290,-0.670,-0.395
2291,-0.680,-0.385
2292,-0.680,-0.390
2293,-0.670,-0.380
2294,-0.665,-0.380
2295,-0.660,-0.365
2296,-0.660,-0.365
2297,-0.640,-0.360
2298,-0.650,-0.380
2299,-0.645,-0.375
2300,-0.645,-0.395
2301,-0.645,-0.385
2302,-0.650,-0.405
2303,-0.645,-0.390
2304,-0.640,-0.395
2305,-0.635,-0.380
2306,-0.635,-0.385
2307,-0.640,-0.370
2308,-0.620,-0.365
2309,-0.600,-0.370
2310,-0.600,-0.380
2311,-0.595,-0.385
2312,-0.595,-0.380
2313,-0.605,-0.390
2314,-0.600,-0.400
2315,-0.595,-0.390
2316,-0.590,-0.385
2317,-0.595,-0.385
2318,-0.580,-0.375
2319,-0.575,-0.360
2320,-0.555,-0.360
2321,-0.555,-0.350
2322,-0.545,-0.350
2323,-0.530,-0.370
2324,-0.540,-0.360
2325,-0.525,-0.370
2326,-0.520,-0.360
2327,-0.520,-0.360
2328,-0.500,-0.365
2329,-0.490,-0.360
2330,-0.465,-0.360
2331,-0.455,-0.370
2332,-0.440,-0.370
2333,-0.430,-0.385
2334,-0.445,-0.400
2335,-0.445,-0.425
2336,-0.470,-0.455
2337,-0.475,-0.455
2338,-0.505,-0.465
2339,-0.525,-0.465
2340,-0.535,-0.440
2341,-0.550,-0.415
2342,-0.550,-0.400
2343,-0.560,-0.390
2344,-0.570,-0.375
2345,-0.575,-0.385
2346,-0.605,-0.385
2347,-0.610,-0.385
2348,-0.630,-0.380
2349,-0.635,-0.390
2350,-0.655,-0.390
2351,-0.650,-0.385
2352,-0.650,-0.395
2353,-0.650,-0.385
2354,-0.640,-0.375
2355,-0.635,-0.375
2356,-0.630,-0.355
2357,-0.610,-0.365
2358,-0.630,-0.380
2359,-0.620,-0.385
2360,-0.630,-0.385
2361,-0.610,-0.400
2362,-0.615,-0.400
2363,-0.625,-0.400
2364,-0.605,-0.400
2365,-0.595,-0.390
2366,-0.585,-0.375
2367,-0.570,-0.375
2368,-0.535,-0.375
2369,-0.500,-0.380
2370,-0.455,-0.385
2371,-0.395,-0.400
2372,-0.320,-0.405
2373,-0.220,-0.400
2374,-0.095,-0.415
2375,0.040,-0.415
2376,0.210,-0.440
2377,0.400,-0.465
2378,0.625,-0.515
2379,0.815,-0.575
2380,0.990,-0.680
2381,1.120,-0.795
2382,1.215,-0.940
2383,1.285,-1.050
2384,1.345,-1.170
2385,1.330,-1.290
2386,1.215,-1.410
2387,1.035,-1.515
2388,0.740,-1.585
2389,0.395,-1.635
2390,0.050,-1.635
2391,-0.250,-1.600
2392,-0.500,-1.535
2393,-0.640,-1.445
2394,-0.730,-1.340
2395,-0.760,-1.230
2396,-0.755,-1.125
2397,-0.750,-1.030
2398,-0.750,-0.950
2399,-0.755,-0.875
2400,-0.750,-0.795
2401,-0.740,-0.725
2402,-0.725,-0.640
2403,-0.715,-0.555
2404,-0.715,-0.485
2405,-0.705,-0.430
2406,-0.715,-0.395
2407,-0.720,-0.380
2408,-0.750,-0.365
2409,-0.740,-0.385
2410,-0.755,-0.370
2411,-0.765,-0.365
2412,-0.760,-0.360
2413,-0.755,-0.355
2414,-0.760,-0.345
2415,-0.760,-0.330
2416,-0.765,-0.325
2417,-0.745,-0.325
2418,-0.760,-0.325
2419,-0.755,-0.320
2420,-0.770,-0.340
2421,-0.760,-0.345
2422,-0.765,-0.340
2423,-0.770,-0.345
2424,-0.770,-0.335
2425,-0.770,-0.325
2426,-0.775,-0.320
2427,-0.770,-0.315
2428,-0.765,-0.310
2429,-0.765,-0.315
2430,-0.775,-0.320
2431,-0.770,-0.315
2432,-0.790,-0.315
2433,-0.800,-0.330
2434,-0.800,-0.330
2435,-0.805,-0.330
2436,-0.805,-0.315
2437,-0.800,-0.310
2438,-0.800,-0.295
2439,-0.810,-0.305
2440,-0.800,-0.300
2441,-0.800,-0.290
2442,-0.815,-0.295
2443,-0.815,-0.305
2444,-0.820,-0.305
2445,-0.845,-0.300
2446,-0.850,-0.325
2447,-0.845,-0.305
2448,-0.835,-0.315
2449,-0.840,-0.290
2450,-0.840,-0.280
2451,-0.830,-0.280
2452,-0.830,-0.270
2453,-0.830,-0.260
2454,-0.840,-0.280
2455,-0.855,-0.270
2456,-0.860,-0.280
2457,-0.865,-0.280
2458,-0.895,-0.270
2459,-0.905,-0.285
2460,-0.900,-0.270
2461,-0.900,-0.260
2462,-0.900,-0.240
2463,-0.890,-0.230
2464,-0.895,-0.220
2465,-0.890,-0.215
2466,-0.890,-0.215
2467,-0.910,-0.225
2468,-0.920,-0.215
2469,-0.920,-0.220
2470,-0.915,-0.225
2471,-0.920,-0.215
2472,-0.920,-0.195
2473,-0.915,-0.185
2474,-0.900,-0.170
2475,-0.890,-0.165
2476,-0.895,-0.155
2477,-0.870,-0.135
2478,-0.865,-0.160
2479,-0.860,-0.145
2480,-0.870,-0.160
2481,-0.850,-0.160
2482,-0.855,-0.170
2483,-0.835,-0.155
2484,-0.820,-0.160
2485,-0.795,-0.155
2486,-0.770,-0.150
2487,-0.745,-0.150
2488,-0.740,-0.150
2489,-0.700,-0.150
2490,-0.690,-0.175
2491,-0.680,-0.180
2492,-0.680,-0.190
2493,-0.670,-0.210
2494,-0.670,-0.215
2495,-0.660,-0.230
2496,-0.650,-0.230
2497,-0.650,-0.230
2498,-0.630,-0.240
2499,-0.620,-0.250
2500,-0.615,-0.235
2501,-0.600,-0.245
2502,-0.595,-0.265
2503,-0.600,-0.265
2504,-0.600,-0.280
2505,-0.605,-0.290
2506,-0.610,-0.295
2507,-0.615,-0.310
2508,-0.610,-0.305
2509,-0.610,-0.300
2510,-0.615,-0.300
2511,-0.605,-0.290
2512,-0.600,-0.290
2513,-0.600,-0.295
2514,-0.585,-0.305
2515,-0.590,-0.320
2516,-0.590,-0.310
2517,-0.595,-0.340
2518,-0.615,-0.340
2519,-0.620,-0.340
2520,-0.615,-0.325
2521,-0.620,-0.320
2522,-0.605,-0.315
2523,-0.605,-0.305
2524,-0.595,-0.315
2525,-0.595,-0.300
2526,-0.585,-0.320
2527,-0.595,-0.305
2528,-0.605,-0.325
2529,-0.610,-0.335
2530,-0.615,-0.330
2531,-0.630,-0.335
2532,-0.625,-0.330
2533,-0.625,-0.315
2534,-0.625,-0.310
2535,-0.620,-0.305
2536,-0.610,-0.300
2537,-0.615,-0.305
2538,-0.605,-0.310
2539,-0.610,-0.310
2540,-0.620,-0.305
2541,-0.630,-0.315
2542,-0.630,-0.315
2543,-0.625,-0.320
2544,-0.635,-0.315
2545,-0.640,-0.300
2546,-0.630,-0.290
2547,-0.630,-0.285
2548,-0.630,-0.280
2549,-0.630,-0.280
2550,-0.620,-0.280
2551,-0.625,-0.290
2552,-0.630,-0.300
2553,-0.630,-0.300
2554,-0.630,-0.310
2555,-0.635,-0.300
2556,-0.635,-0.290
2557,-0.625,-0.290
2558,-0.620,-0.280
2559,-0.615,-0.280
2560,-0.605,-0.270
2561,-0.595,-0.270
2562,-0.585,-0.285
2563,-0.590,-0.280
2564,-0.585,-0.280
2565,-0.590,-0.290
2566,-0.600,-0.300
2567,-0.595,-0.295
2568,-0.585,-0.285
2569,-0.580,-0.275
2570,-0.565,-0.270
2571,-0.555,-0.270
2572,-0.545,-0.255
2573,-0.535,-0.255
2574,-0.525,-0.255
2575,-0.530,-0.260
2576,-0.535,-0.275
2577,-0.540,-0.285
2578,-0.530,-0.270
2579,-0.530,-0.270
2580,-0.515,-0.265
2581,-0.520,-0.260
2582,-0.505,-0.245
2583,-0.480,-0.240
2584,-0.480,-0.230
2585,-0.465,-0.230
2586,-0.435,-0.245
2587,-0.415,-0.245
2588,-0.410,-0.260
2589,-0.405,-0.270
2590,-0.405,-0.290
2591,-0.420,-0.300
2592,-0.415,-0.305
2593,-0.430,-0.310
2594,-0.425,-0.320
2595,-0.425,-0.330
2596,-0.435,-0.330
2597,-0.425,-0.320
2598,-0.440,-0.310
2599,-0.450,-0.310
2600,-0.475,-0.320
2601,-0.485,-0.305
2602,-0.505,-0.300
2603,-0.525,-0.305
2604,-0.540,-0.295
2605,-0.545,-0.285
2606,-0.535,-0.265
2607,-0.550,-0.260
2608,-0.555,-0.260
2609,-0.560,-0.245
2610,-0.575,-0.260
2611,-0.585,-0.265
2612,-0.595,-0.265
2613,-0.605,-0.270
2614,-0.615,-0.275
2615,-0.615,-0.280
2616,-0.605,-0.265
2617,-0.610,-0.270
2618,-0.605,-0.245
2619,-0.595,-0.255
2620,-0.595,-0.240
2621,-0.590,-0.250
2622,-0.580,-0.255
2623,-0.575,-0.270
2624,-0.585,-0.270
2625,-0.575,-0.285
2626,-0.575,-0.280
2627,-0.585,-0.295
2628,-0.580,-0.280
2629,-0.555,-0.285
2630,-0.560,-0.285
2631,-0.535,-0.270
2632,-0.485,-0.270
2633,-0.430,-0.265
2634,-0.365,-0.270
2635,-0.275,-0.260
2636,-0.160,-0.285
2637,-0.025,-0.290
2638,0.120,-0.305
2639,0.285,-0.315
2640,0.480,-0.340
2641,0.665,-0.380
2642,0.845,-0.460
2643,0.995,-0.545
2644,1.110,-0.655
2645,1.200,-0.780
2646,1.270,-0.885
2647,1.335,-0.995
2648,1.360,-1.095
2649,1.290,-1.200
2650,1.105,-1.320
2651,0.815,-1.410
2652,0.445,-1.465
2653,0.075,-1.485
2654,-0.275,-1.460
2655,-0.530,-1.395
2656,-0.690,-1.280
2657,-0.750,-1.165
2658,-0.770,-1.050
2659,-0.760,-0.945
2660,-0.745,-0.870
2661,-0.720,-0.810
2662,-0.720,-0.750
2663,-0.720,-0.690
2664,-0.710,-0.635
2665,-0.705,-0.565
2666,-0.685,-0.495
2667,-0.690,-0.430
2668,-0.685,-0.370
2669,-0.670,-0.315
2670,-0.675,-0.290
2671,-0.680,-0.270
2672,-0.705,-0.270
2673,-0.705,-0.265
2674,-0.715,-0.285
2675,-0.715,-0.280
2676,-0.720,-0.250
2677,-0.720,-0.255
2678,-0.715,-0.240
2679,-0.715,-0.225
2680,-0.715,-0.215
2681,-0.695,-0.210
2682,-0.715,-0.230
2683,-0.720,-0.225
2684,-0.730,-0.220
2685,-0.720,-0.230
2686,-0.740,-0.230
2687,-0.750,-0.230
2688,-0.745,-0.220
2689,-0.750,-0.215
2690,-0.740,-0.195
2691,-0.735,-0.200
2692,-0.735,-0.190
2693,-0.735,-0.190
2694,-0.730,-0.200
2695,-0.745,-0.185
2696,-0.755,-0.200
2697,-0.765,-0.210
2698,-0.765,-0.210
2699,-0.770,-0.195
2700,-0.775,-0.195
2701,-0.780,-0.190
2702,-0.780,-0.185
2703,-0.765,-0.175
2704,-0.755,-0.155
2705,-0.755,-0.165
2706,-0.765,-0.180
2707,-0.765,-0.170
2708,-0.775,-0.180
2709,-0.790,-0.175
2710,-0.805,-0.195
2711,-0.815,-0.185
2712,-0.810,-0.170
2713,-0.820,-0.175
2714,-0.820,-0.150
2715,-0.815,-0.150
2716,-0.805,-0.140
2717,-0.815,-0.125
2718,-0.815,-0.145
2719,-0.830,-0.140
2720,-0.840,-0.150
2721,-0.845,-0.150
2722,-0.845,-0.145
2723,-0.860,-0.145
2724,-0.865,-0.135
2725,-0.865,-0.120
2726,-0.870,-0.100
2727,-0.855,-0.100
2728,-0.850,-0.095
2729,-0.865,-0.075
2730,-0.870,-0.090
2731,-0.875,-0.090
2732,-0.880,-0.085
2733,-0.885,-0.080
2734,-0.885,-0.075
2735,-0.890,-0.075
2736,-0.890,-0.075
2737,-0.890,-0.050
2738,-0.870,-0.050
2739,-0.860,-0.030
2740,-0.855,-0.030
2741,-0.840,-0.020
2742,-0.835,-0.025
2743,-0.835,-0.035
2744,-0.825,-0.035
2745,-0.835,-0.035
2746,-0.835,-0.050
2747,-0.820,-0.045
2748,-0.825,-0.035
2749,-0.815,-0.035
2750,-0.790,-0.040
2751,-0.770,-0.010
2752,-0.745,-0.005
2753,-0.725,-0.010
2754,-0.720,-0.030
2755,-0.695,-0.035
2756,-0.700,-0.055
2757,-0.690,-0.050
2758,-0.685,-0.060
2759,-0.680,-0.070
2760,-0.675,-0.070
2761,-0.665,-0.065
2762,-0.635,-0.065
2763,-0.630,-0.070
2764,-0.615,-0.070
2765,-0.605,-0.080
2766,-0.595,-0.090
2767,-0.595,-0.095
2768,-0.600,-0.115
2769,-0.600,-0.135
2770,-0.600,-0.140
2771,-0.600,-0.150
2772,-0.605,-0.140
2773,-0.605,-0.150
2774,-0.600,-0.140
2775,-0.595,-0.135
2776,-0.580,-0.150
2777,-0.565,-0.145
2778,-0.565,-0.150
2779,-0.585,-0.165
2780,-0.590,-0.185
2781,-0.590,-0.190
2782,-0.590,-0.190
2783,-0.605,-0.195
2784,-0.610,-0.175
2785,-0.615,-0.190
2786,-0.620,-0.185
2787,-0.610,-0.170
2788,-0.600,-0.180
2789,-0.580,-0.170
2790,-0.590,-0.190
2791,-0.590,-0.195
2792,-0.605,-0.205
2793,-0.605,-0.200
2794,-0.610,-0.200
2795,-0.620,-0.210
2796,-0.625,-0.200
2797,-0.630,-0.205
2798,-0.615,-0.185
2799,-0.625,-0.185
2800,-0.610,-0.180
2801,-0.615,-0.175
2802,-0.615,-0.180
2803,-0.625,-0.180
2804,-0.635,-0.200
2805,-0.625,-0.200
2806,-0.660,-0.195
2807,-0.650,-0.200
2808,-0.655,-0.190
2809,-0.665,-0.195
2810,-0.655,-0.185
2811,-0.650,-0.180
2812,-0.645,-0.180
2813,-0.625,-0.165
2814,-0.615,-0.180
2815,-0.625,-0.180
2816,-0.630,-0.190
2817,-0.625,-0.195
2818,-0.640,-0.210
2819,-0.650,-0.205
2820,-0.650,-0.190
2821,-0.650,-0.205
2822,-0.645,-0.190
2823,-0.640,-0.185
2824,-0.645,-0.185
2825,-0.610,-0.185
2826,-0.615,-0.195
2827,-0.610,-0.185
2828,-0.615,-0.200
2829,-0.635,-0.190
2830,-0.615,-0.210
2831,-0.635,-0.215
2832,-0.625,-0.200
2833,-0.615,-0.215
2834,-0.610,-0.195
2835,-0.605,-0.185
2836,-0.585,-0.180
2837,-0.585,-0.175
2838,-0.570,-0.185
2839,-0.565,-0.185
2840,-0.565,-0.185
2841,-0.570,-0.210
2842,-0.575,-0.215
2843,-0.555,-0.210
2844,-0.570,-0.200
2845,-0.560,-0.205
2846,-0.555,-0.190
2847,-0.540,-0.180
2848,-0.525,-0.175
2849,-0.505,-0.160
2850,-0.475,-0.175
2851,-0.470,-0.185
2852,-0.450,-0.205
2853,-0.445,-0.220
2854,-0.445,-0.225
2855,-0.450,-0.255
2856,-0.450,-0.265
2857,-0.455,-0.280
2858,-0.460,-0.285
2859,-0.470,-0.280
2860,-0.475,-0.255
2861,-0.470,-0.255
2862,-0.495,-0.235
2863,-0.515,-0.250
2864,-0.535,-0.240
2865,-0.550,-0.240
2866,-0.570,-0.230
2867,-0.590,-0.230
2868,-0.595,-0.215
2869,-0.610,-0.230
2870,-0.615,-0.210
2871,-0.625,-0.205
2872,-0.635,-0.195
2873,-0.630,-0.195
2874,-0.625,-0.210
2875,-0.625,-0.205
2876,-0.625,-0.210
2877,-0.625,-0.220
2878,-0.625,-0.230
2879,-0.640,-0.230
2880,-0.640,-0.230
2881,-0.660,-0.225
2882,-0.645,-0.225
2883,-0.640,-0.205
2884,-0.615,-0.195
2885,-0.600,-0.210
2886,-0.595,-0.225
2887,-0.585,-0.220
2888,-0.585,-0.225
2889,-0.585,-0.235
2890,-0.585,-0.235
2891,-0.575,-0.245
2892,-0.555,-0.235
2893,-0.520,-0.220
2894,-0.495,-0.220
2895,-0.435,-0.225
2896,-0.370,-0.220
2897,-0.285,-0.210
2898,-0.190,-0.220
2899,-0.075,-0.220
2900,0.035,-0.225
2901,0.210,-0.250
2902,0.390,-0.270
2903,0.580,-0.300
2904,0.780,-0.375
2905,0.945,-0.465
2906,1.090,-0.560
2907,1.185,-0.680
2908,1.295,-0.780
2909,1.360,-0.890
2910,1.375,-1.015
2911,1.270,-1.125
2912,1.005,-1.250
2913,0.620,-1.330
2914,0.145,-1.385
2915,-0.290,-1.375
2916,-0.615,-1.305
2917,-0.825,-1.200
2918,-0.905,-1.060
2919,-0.905,-0.930
2920,-0.860,-0.830
2921,-0.810,-0.725
2922,-0.765,-0.660
2923,-0.740,-0.600
2924,-0.730,-0.535
2925,-0.715,-0.465
2926,-0.735,-0.395
2927,-0.740,-0.340
2928,-0.750,-0.280
2929,-0.755,-0.250
2930,-0.745,-0.215
2931,-0.740,-0.210
2932,-0.750,-0.200
2933,-0.760,-0.200
2934,-0.755,-0.215
2935,-0.755,-0.185
2936,-0.760,-0.200
2937,-0.750,-0.205
2938,-0.770,-0.200
2939,-0.780,-0.205
2940,-0.780,-0.190
2941,-0.775,-0.185
2942,-0.775,-0.185
2943,-0.775,-0.170
2944,-0.780,-0.155
2945,-0.765,-0.150
2946,-0.780,-0.160
2947,-0.770,-0.175
2948,-0.780,-0.175
2949,-0.795,-0.180
2950,-0.795,-0.175
2951,-0.800,-0.180
2952,-0.810,-0.170
2953,-0.815,-0.165
2954,-0.805,-0.150
2955,-0.800,-0.150
2956,-0.790,-0.140
2957,-0.790,-0.140
2958,-0.795,-0.150
2959,-0.795,-0.150
2960,-0.815,-0.170
2961,-0.835,-0.160
2962,-0.845,-0.165
2963,-0.845,-0.160
2964,-0.840,-0.165
2965,-0.845,-0.155
2966,-0.820,-0.135
2967,-0.830,-0.145
2968,-0.815,-0.135
2969,-0.810,-0.125
2970,-0.825,-0.135
2971,-0.825,-0.135
2972,-0.825,-0.130
2973,-0.845,-0.145
2974,-0.855,-0.140
2975,-0.860,-0.140
2976,-0.875,-0.140
2977,-0.875,-0.120
2978,-0.865,-0.125
2979,-0.865,-0.120
2980,-0.870,-0.100
2981,-0.870,-0.090
2982,-0.870,-0.100
2983,-0.890,-0.100
2984,-0.890,-0.100
2985,-0.890,-0.100
2986,-0.915,-0.115
2987,-0.915,-0.100
2988,-0.915,-0.090
2989,-0.915,-0.085
2990,-0.925,-0.070
2991,-0.905,-0.050
2992,-0.910,-0.045
2993,-0.905,-0.040
2994,-0.905,-0.040
2995,-0.910,-0.040
2996,-0.930,-0.040
2997,-0.910,-0.035
2998,-0.910,-0.040
2999,-0.915,-0.045
3000,-0.910,-0.030
3001,-0.900,-0.010
3002,-0.880,-0.005
3003,-0.865,-0.010
3004,-0.850,0.000
3005,-0.830,0.015
3006,-0.825,0.000
3007,-0.805,-0.005
3008,-0.800,-0.010
3009,-0.800,-0.015
3010,-0.790,-0.030
3011,-0.785,-0.030
3012,-0.770,-0.025
3013,-0.760,-0.035
3014,-0.735,-0.030
3015,-0.720,-0.020
3016,-0.715,-0.020
3017,-0.700,-0.025
3018,-0.690,-0.040
3019,-0.685,-0.055
3020,-0.660,-0.065
3021,-0.665,-0.080
3022,-0.670,-0.080
3023,-0.665,-0.100
3024,-0.660,-0.085
3025,-0.665,-0.090
3026,-0.655,-0.085
3027,-0.645,-0.090
3028,-0.630,-0.100
3029,-0.630,-0.085
3030,-0.620,-0.100
3031,-0.630,-0.110
3032,-0.615,-0.130
3033,-0.625,-0.135
3034,-0.640,-0.140
3035,-0.640,-0.145
3036,-0.650,-0.135
3037,-0.650,-0.140
3038,-0.665,-0.140
3039,-0.650,-0.125
3040,-0.635,-0.135
3041,-0.645,-0.130
3042,-0.635,-0.140
3043,-0.640,-0.145
3044,-0.640,-0.150
3045,-0.645,-0.160
3046,-0.655,-0.170
3047,-0.665,-0.180
3048,-0.670,-0.175
3049,-0.655,-0.165
3050,-0.655,-0.165
3051,-0.660,-0.160
3052,-0.645,-0.145
3053,-0.645,-0.145
3054,-0.655,-0.160
3055,-0.660,-0.165
3056,-0.665,-0.165
3057,-0.675,-0.170
3058,-0.685,-0.185
3059,-0.690,-0.190
3060,-0.685,-0.185
3061,-0.695,-0.170
3062,-0.680,-0.170
3063,-0.680,-0.165
3064,-0.685,-0.165
3065,-0.675,-0.165
3066,-0.675,-0.165
3067,-0.670,-0.165
3068,-0.680,-0.185
3069,-0.685,-0.185
3070,-0.700,-0.190
3071,-0.695,-0.185
3072,-0.705,-0.185
3073,-0.715,-0.175
3074,-0.705,-0.180
3075,-0.710,-0.180
3076,-0.690,-0.175
3077,-0.690,-0.165
3078,-0.685,-0.175
3079,-0.690,-0.170
3080,-0.685,-0.185
3081,-0.695,-0.190
3082,-0.700,-0.190
3083,-0.700,-0.190
3084,-0.690,-0.195
3085,-0.685,-0.185
3086,-0.680,-0.175
3087,-0.670,-0.185
3088,-0.685,-0.165
3089,-0.660,-0.165
3090,-0.655,-0.180
3091,-0.670,-0.185
3092,-0.670,-0.185
3093,-0.670,-0.195
3094,-0.665,-0.210
3095,-0.670,-0.205
3096,-0.670,-0.195
3097,-0.660,-0.195
3098,-0.645,-0.185
3099,-0.635,-0.190
3100,-0.620,-0.175
3101,-0.620,-0.175
3102,-0.610,-0.180
3103,-0.615,-0.190
3104,-0.600,-0.200
3105,-0.600,-0.210
3106,-0.600,-0.205
3107,-0.610,-0.210
3108,-0.600,-0.195
3109,-0.580,-0.190
3110,-0.570,-0.185
3111,-0.565,-0.175
3112,-0.545,-0.180
3113,-0.525,-0.175
3114,-0.515,-0.180
3115,-0.510,-0.190
3116,-0.500,-0.205
3117,-0.495,-0.205
3118,-0.485,-0.230
3119,-0.495,-0.240
3120,-0.490,-0.250
3121,-0.495,-0.250
3122,-0.495,-0.260
3123,-0.495,-0.265
3124,-0.490,-0.270
3125,-0.485,-0.275
3126,-0.495,-0.285
3127,-0.500,-0.290
3128,-0.520,-0.280
3129,-0.535,-0.290
3130,-0.565,-0.290
3131,-0.580,-0.275
3132,-0.600,-0.260
3133,-0.610,-0.255
3134,-0.620,-0.240
3135,-0.615,-0.230
3136,-0.625,-0.230
3137,-0.635,-0.210
3138,-0.655,-0.235
3139,-0.660,-0.230
3140,-0.665,-0.230
3141,-0.670,-0.235
3142,-0.685,-0.255
3143,-0.675,-0.250
3144,-0.680,-0.245
3145,-0.680,-0.240
3146,-0.670,-0.240
3147,-0.655,-0.240
3148,-0.655,-0.230
3149,-0.640,-0.225
3150,-0.640,-0.235
3151,-0.645,-0.245
3152,-0.645,-0.245
3153,-0.635,-0.250
3154,-0.630,-0.270
3155,-0.635,-0.265
3156,-0.625,-0.265
3157,-0.615,-0.260
3158,-0.585,-0.260
3159,-0.560,-0.250
3160,-0.530,-0.260
3161,-0.490,-0.255
3162,-0.440,-0.260
3163,-0.355,-0.265
3164,-0.275,-0.255
3165,-0.155,-0.265
3166,-0.030,-0.270
3167,0.105,-0.285
3168,0.300,-0.305
3169,0.515,-0.340
3170,0.730,-0.395
3171,0.915,-0.480
3172,1.070,-0.590
3173,1.175,-0.695
3174,1.290,-0.805
3175,1.375,-0.925
3176,1.445,-1.030
3177,1.420,-1.135
3178,1.270,-1.235
3179,0.965,-1.325
3180,0.580,-1.390
3181,0.135,-1.420
3182,-0.265,-1.415
3183,-0.565,-1.350
3184,-0.750,-1.255
3185,-0.830,-1.150
3186,-0.835,-1.040
3187,-0.810,-0.955
3188,-0.775,-0.875
3189,-0.745,-0.800
3190,-0.735,-0.755
3191,-0.735,-0.685
3192,-0.735,-0.625
3193,-0.720,-0.565
3194,-0.710,-0.490
3195,-0.710,-0.420
3196,-0.705,-0.365
3197,-0.695,-0.325
3198,-0.710,-0.300
3199,-0.720,-0.295
3200,-0.720,-0.290
3201,-0.745,-0.310
3202,-0.745,-0.305
3203,-0.765,-0.300
3204,-0.745,-0.300
3205,-0.750,-0.275
3206,-0.760,-0.270
3207,-0.750,-0.260
3208,-0.735,-0.260
3209,-0.730,-0.245
3210,-0.735,-0.250
3211,-0.730,-0.265
3212,-0.740,-0.260
3213,-0.755,-0.265
3214,-0.750,-0.280
3215,-0.755,-0.275
3216,-0.765,-0.270
3217,-0.765,-0.260
3218,-0.760,-0.250
3219,-0.765,-0.240
3220,-0.760,-0.235
3221,-0.750,-0.245
3222,-0.760,-0.235
3223,-0.765,-0.250
3224,-0.775,-0.245
3225,-0.795,-0.255
3226,-0.790,-0.260
3227,-0.800,-0.260
3228,-0.805,-0.245
3229,-0.795,-0.255
3230,-0.800,-0.240
3231,-0.800,-0.230
3232,-0.800,-0.210
3233,-0.795,-0.220
3234,-0.795,-0.220
3235,-0.800,-0.235
3236,-0.805,-0.225
3237,-0.820,-0.235
3238,-0.825,-0.250
3239,-0.855,-0.250
3240,-0.860,-0.240
3241,-0.845,-0.230
3242,-0.840,-0.225
3243,-0.840,-0.225
3244,-0.840,-0.200
3245,-0.835,-0.190
3246,-0.835,-0.200
3247,-0.835,-0.205
3248,-0.855,-0.205
3249,-0.860,-0.200
3250,-0.860,-0.200
3251,-0.875,-0.205
3252,-0.870,-0.195
3253,-0.890,-0.180
3254,-0.875,-0.155
3255,-0.875,-0.155
3256,-0.865,-0.150
3257,-0.865,-0.145
3258,-0.865,-0.160
3259,-0.870,-0.140
3260,-0.880,-0.145
3261,-0.875,-0.160
3262,-0.885,-0.150
3263,-0.890,-0.150
3264,-0.885,-0.150
3265,-0.875,-0.145
3266,-0.865,-0.135
3267,-0.865,-0.130
3268,-0.845,-0.125
3269,-0.825,-0.115
3270,-0.815,-0.120
3271,-0.805,-0.130
3272,-0.805,-0.130
3273,-0.790,-0.130
3274,-0.790,-0.145
3275,-0.775,-0.155
3276,-0.770,-0.135
3277,-0.755,-0.140
3278,-0.725,-0.140
3279,-0.705,-0.135
3280,-0.685,-0.120
3281,-0.665,-0.135
3282,-0.645,-0.160
3283,-0.635,-0.160
3284,-0.630,-0.175
3285,-0.625,-0.185
3286,-0.620,-0.200
3287,-0.605,-0.215
3288,-0.600,-0.215
3289,-0.590,-0.220
3290,-0.575,-0.225
3291,-0.580,-0.220
3292,-0.560,-0.225
3293,-0.555,-0.225
3294,-0.550,-0.235
3295,-0.555,-0.250
3296,-0.560,-0.275
3297,-0.565,-0.275
3298,-0.570,-0.290
3299,-0.575,-0.290
3300,-0.565,-0.285
3301,-0.570,-0.290
3302,-0.565,-0.280
3303,-0.560,-0.280
3304,-0.550,-0.275
3305,-0.550,-0.285
3306,-0.550,-0.300
3307,-0.555,-0.295
3308,-0.565,-0.305
3309,-0.570,-0.310
3310,-0.580,-0.325
3311,-0.580,-0.330
3312,-0.595,-0.330
3313,-0.600,-0.330
3314,-0.590,-0.315
3315,-0.590,-0.315
3316,-0.565,-0.315
3317,-0.565,-0.295
3318,-0.560,-0.315
3319,-0.570,-0.315
3320,-0.575,-0.325
3321,-0.580,-0.320
3322,-0.600,-0.335
3323,-0.595,-0.345
3324,-0.605,-0.330
3325,-0.610,-0.330
3326,-0.595,-0.320
3327,-0.605,-0.320
3328,-0.590,-0.310
3329,-0.580,-0.305
3330,-0.595,-0.310
3331,-0.615,-0.320
3332,-0.600,-0.325
3333,-0.610,-0.335
3334,-0.625,-0.340
3335,-0.615,-0.340
3336,-0.625,-0.330
3337,-0.635,-0.315
3338,-0.620,-0.315
3339,-0.615,-0.315
3340,-0.595,-0.300
3341,-0.600,-0.295
3342,-0.595,-0.310
3343,-0.595,-0.320
3344,-0.595,-0.320
3345,-0.600,-0.330
3346,-0.610,-0.335
3347,-0.620,-0.345
3348,-0.620,-0.335
3349,-0.615,-0.335
3350,-0.605,-0.320
3351,-0.605,-0.310
3352,-0.595,-0.305
3353,-0.585,-0.310
3354,-0.585,-0.315
3355,-0.575,-0.310
3356,-0.575,-0.330
3357,-0.590,-0.340
3358,-0.590,-0.340
3359,-0.595,-0.335
3360,-0.605,-0.345
3361,-0.600,-0.335
3362,-0.575,-0.330
3363,-0.565,-0.325
3364,-0.555,-0.325
3365,-0.540,-0.315
3366,-0.535,-0.320
3367,-0.545,-0.325
3368,-0.545,-0.335
3369,-0.525,-0.335
3370,-0.525,-0.325
3371,-0.525,-0.340
3372,-0.520,-0.335
3373,-0.510,-0.320
3374,-0.515,-0.315
3375,-0.500,-0.305
3376,-0.490,-0.305
3377,-0.475,-0.305
3378,-0.465,-0.310
3379,-0.460,-0.300
3380,-0.450,-0.315
3381,-0.450,-0.320
3382,-0.435,-0.330
3383,-0.430,-0.335
3384,-0.425,-0.345
3385,-0.420,-0.345
3386,-0.410,-0.340
3387,-0.405,-0.355
3388,-0.395,-0.355
3389,-0.390,-0.365
3390,-0.395,-0.385
3391,-0.405,-0.400
3392,-0.420,-0.400
3393,-0.430,-0.415
3394,-0.435,-0.410
3395,-0.455,-0.410
3396,-0.480,-0.395
3397,-0.490,-0.385
3398,-0.500,-0.360
3399,-0.495,-0.350
3400,-0.515,-0.345
3401,-0.530,-0.335
3402,-0.530,-0.340
3403,-0.530,-0.340
3404,-0.545,-0.355
3405,-0.570,-0.360
3406,-0.585,-0.355
3407,-0.605,-0.350
3408,-0.620,-0.355
3409,-0.615,-0.335
3410,-0.625,-0.340
3411,-0.605,-0.335
3412,-0.595,-0.330
3413,-0.590,-0.335
3414,-0.585,-0.320
3415,-0.590,-0.340
3416,-0.600,-0.350
3417,-0.600,-0.350
3418,-0.615,-0.350
3419,-0.610,-0.355
3420,-0.605,-0.345
3421,-0.605,-0.360
3422,-0.590,-0.350
3423,-0.595,-0.350
3424,-0.570,-0.340
3425,-0.555,-0.335
3426,-0.550,-0.345
3427,-0.550,-0.345
3428,-0.560,-0.360
3429,-0.550,-0.360
3430,-0.530,-0.365
3431,-0.495,-0.380
3432,-0.445,-0.375
3433,-0.360,-0.370
3434,-0.275,-0.365
3435,-0.145,-0.365
3436,0.005,-0.360
3437,0.185,-0.370
3438,0.400,-0.420
3439,0.630,-0.470
3440,0.840,-0.540
3441,1.025,-0.655
3442,1.165,-0.790
3443,1.275,-0.895
3444,1.370,-1.010
3445,1.470,-1.115
3446,1.510,-1.215
3447,1.445,-1.310
3448,1.215,-1.405
3449,0.875,-1.480
3450,0.465,-1.540
3451,0.040,-1.535
3452,-0.305,-1.525
3453,-0.565,-1.455
3454,-0.715,-1.365
3455,-0.775,-1.260
3456,-0.785,-1.135
3457,-0.750,-1.030
3458,-0.725,-0.940
3459,-0.720,-0.880
3460,-0.710,-0.790
3461,-0.675,-0.720
3462,-0.670,-0.655
3463,-0.670,-0.595
3464,-0.670,-0.540
3465,-0.680,-0.475
3466,-0.705,-0.440
3467,-0.705,-0.405
3468,-0.720,-0.380
3469,-0.720,-0.365
3470,-0.725,-0.355
3471,-0.700,-0.345
3472,-0.705,-0.345
3473,-0.690,-0.320
3474,-0.695,-0.325
3475,-0.715,-0.325
3476,-0.725,-0.325
3477,-0.705,-0.325
3478,-0.720,-0.340
3479,-0.735,-0.340
3480,-0.735,-0.320
3481,-0.750,-0.320
3482,-0.730,-0.310
3483,-0.730,-0.295
3484,-0.720,-0.305
3485,-0.715,-0.295
3486,-0.725,-0.285
3487,-0.730,-0.300
3488,-0.735,-0.300
3489,-0.740,-0.305
3490,-0.750,-0.315
3491,-0.755,-0.315
3492,-0.770,-0.310
3493,-0.780,-0.310
3494,-0.780,-0.300
3495,-0.765,-0.290
3496,-0.760,-0.285
3497,-0.755,-0.270
3498,-0.750,-0.275
3499,-0.760,-0.270
3500,-0.760,-0.275
3501,-0.785,-0.290
3502,-0.785,-0.290
3503,-0.790,-0.290
3504,-0.800,-0.300
3505,-0.815,-0.280
3506,-0.820,-0.275
3507,-0.820,-0.265
3508,-0.805,-0.255
3509,-0.805,-0.255
3510,-0.815,-0.260
3511,-0.825,-0.255
3512,-0.825,-0.260
3513,-0.845,-0.260
3514,-0.850,-0.270
3515,-0.850,-0.260
3516,-0.865,-0.250
3517,-0.865,-0.240
3518,-0.880,-0.240
3519,-0.865,-0.220
3520,-0.870,-0.210
3521,-0.865,-0.200
3522,-0.855,-0.200
3523,-0.870,-0.190
3524,-0.880,-0.195
3525,-0.875,-0.205
3526,-0.890,-0.200
3527,-0.890,-0.195
3528,-0.900,-0.180
3529,-0.890,-0.180
3530,-0.880,-0.160
3531,-0.875,-0.150
3532,-0.870,-0.140
3533,-0.860,-0.135
3534,-0.850,-0.135
3535,-0.855,-0.140
3536,-0.835,-0.140
3537,-0.840,-0.150
3538,-0.835,-0.145
3539,-0.825,-0.155
3540,-0.820,-0.145
3541,-0.805,-0.140
3542,-0.790,-0.140
3543,-0.760,-0.140
3544,-0.750,-0.125
3545,-0.725,-0.135
3546,-0.695,-0.130
3547,-0.680,-0.145
3548,-0.680,-0.155
3549,-0.680,-0.180
3550,-0.665,-0.185
3551,-0.665,-0.200
3552,-0.665,-0.200
3553,-0.655,-0.205
3554,-0.640,-0.205
3555,-0.620,-0.210
3556,-0.610,-0.195
3557,-0.600,-0.215
3558,-0.595,-0.225
3559,-0.580,-0.240
3560,-0.580,-0.255
3561,-0.600,-0.265
3562,-0.595,-0.270
3563,-0.595,-0.295
3564,-0.590,-0.295
3565,-0.590,-0.290
3566,-0.585,-0.275
3567,-0.580,-0.280
3568,-0.570,-0.275
3569,-0.570,-0.280
3570,-0.570,-0.280
3571,-0.575,-0.295
3572,-0.565,-0.300
3573,-0.575,-0.310
3574,-0.580,-0.320
3575,-0.600,-0.325
3576,-0.620,-0.330
3577,-0.600,-0.320
3578,-0.605,-0.315
3579,-0.610,-0.315
3580,-0.595,-0.305
3581,-0.595,-0.305
3582,-0.585,-0.315
3583,-0.595,-0.320
3584,-0.605,-0.325
3585,-0.625,-0.340
3586,-0.620,-0.350
3587,-0.620,-0.345
3588,-0.630,-0.350
3589,-0.630,-0.330
3590,-0.630,-0.325
3591,-0.630,-0.320
3592,-0.635,-0.310
3593,-0.615,-0.305
3594,-0.620,-0.320
3595,-0.610,-0.315
3596,-0.625,-0.325
3597,-0.630,-0.345
3598,-0.640,-0.340
3599,-0.640,-0.335
3600,-0.645,-0.335
3601,-0.655,-0.320
3602,-0.645,-0.315
3603,-0.635,-0.315
3604,-0.635,-0.305
3605,-0.635,-0.300
3606,-0.630,-0.300
3607,-0.635,-0.310
3608,-0.640,-0.315
3609,-0.650,-0.320
3610,-0.650,-0.315
3611,-0.660,-0.330
3612,-0.650,-0.320
3613,-0.640,-0.320
3614,-0.650,-0.300
3615,-0.635,-0.305
3616,-0.635,-0.290
3617,-0.625,-0.290
3618,-0.620,-0.300
3619,-0.620,-0.300
3620,-0.635,-0.305
3621,-0.615,-0.310
3622,-0.620,-0.310
3623,-0.625,-0.320
3624,-0.615,-0.325
3625,-0.610,-0.315
3626,-0.615,-0.310
3627,-0.605,-0.305
3628,-0.600,-0.300
3629,-0.580,-0.290
3630,-0.575,-0.295
3631,-0.570,-0.305
3632,-0.570,-0.310
3633,-0.565,-0.320
3634,-0.575,-0.325
3635,-0.575,-0.335
3636,-0.565,-0.320
3637,-0.560,-0.315
3638,-0.545,-0.300
3639,-0.545,-0.295
3640,-0.530,-0.290
3641,-0.520,-0.285
3642,-0.515,-0.285
3643,-0.510,-0.300
3644,-0.500,-0.295
3645,-0.500,-0.300
3646,-0.505,-0.305
3647,-0.490,-0.305
3648,-0.495,-0.295
3649,-0.485,-0.310
3650,-0.455,-0.300
3651,-0.440,-0.300
3652,-0.430,-0.305
3653,-0.420,-0.305
3654,-0.415,-0.325
3655,-0.410,-0.345
3656,-0.420,-0.375
3657,-0.425,-0.385
3658,-0.450,-0.410
3659,-0.460,-0.415
3660,-0.475,-0.420
3661,-0.490,-0.385
3662,-0.505,-0.370
3663,-0.510,-0.360
3664,-0.520,-0.335
3665,-0.530,-0.325
3666,-0.540,-0.330
3667,-0.550,-0.325
3668,-0.560,-0.345
3669,-0.585,-0.340
3670,-0.605,-0.340
3671,-0.620,-0.335
3672,-0.635,-0.335
3673,-0.630,-0.330
3674,-0.630,-0.320
3675,-0.625,-0.310
3676,-0.615,-0.305
3677,-0.605,-0.300
3678,-0.600,-0.315
3679,-0.610,-0.305
3680,-0.605,-0.320
3681,-0.620,-0.330
3682,-0.620,-0.340
3683,-0.620,-0.330
3684,-0.620,-0.320
3685,-0.620,-0.330
3686,-0.620,-0.330
3687,-0.600,-0.315
3688,-0.590,-0.310
3689,-0.580,-0.310
3690,-0.580,-0.315
3691,-0.580,-0.315
3692,-0.570,-0.320
3693,-0.555,-0.330
3694,-0.550,-0.340
3695,-0.530,-0.340
3696,-0.505,-0.350
3697,-0.445,-0.345
3698,-0.370,-0.335
3699,-0.270,-0.330
3700,-0.160,-0.325
3701,-0.025,-0.320
3702,0.125,-0.340
3703,0.290,-0.365
3704,0.480,-0.405
3705,0.675,-0.465
3706,0.860,-0.540
3707,1.010,-0.635
3708,1.125,-0.735
3709,1.220,-0.850
3710,1.320,-0.965
3711,1.415,-1.065
3712,1.460,-1.170
3713,1.415,-1.285
3714,1.240,-1.400
3715,0.925,-1.500
3716,0.515,-1.565
3717,0.085,-1.585
3718,-0.285,-1.560
3719,-0.575,-1.490
3720,-0.735,-1.375
3721,-0.810,-1.265
3722,-0.810,-1.135
3723,-0.775,-1.015
3724,-0.745,-0.915
3725,-0.720,-0.835
3726,-0.705,-0.765
3727,-0.695,-0.690
3728,-0.690,-0.630
3729,-0.690,-0.560
3730,-0.695,-0.495
3731,-0.720,-0.430
3732,-0.725,-0.380
3733,-0.715,-0.355
3734,-0.730,-0.335
3735,-0.725,-0.335
3736,-0.720,-0.320
3737,-0.720,-0.315
3738,-0.715,-0.330
3739,-0.730,-0.300
3740,-0.745,-0.310
3741,-0.740,-0.310
3742,-0.740,-0.300
3743,-0.750,-0.310
3744,-0.755,-0.305
3745,-0.755,-0.300
3746,-0.755,-0.295
3747,-0.740,-0.285
3748,-0.745,-0.275
3749,-0.735,-0.270
3750,-0.735,-0.280
3751,-0.745,-0.265
3752,-0.750,-0.290
3753,-0.755,-0.285
3754,-0.755,-0.285
3755,-0.765,-0.300
3756,-0.775,-0.285
3757,-0.780,-0.285
3758,-0.775,-0.275
3759,-0.760,-0.255
3760,-0.765,-0.265
3761,-0.760,-0.250
3762,-0.755,-0.275
3763,-0.765,-0.260
3764,-0.770,-0.265
3765,-0.775,-0.260
3766,-0.770,-0.285
3767,-0.800,-0.275
3768,-0.805,-0.270
3769,-0.815,-0.265
3770,-0.805,-0.250
3771,-0.810,-0.240
3772,-0.805,-0.250
3773,-0.820,-0.240
3774,-0.825,-0.250
3775,-0.820,-0.235
3776,-0.825,-0.245
3777,-0.840,-0.245
3778,-0.845,-0.245
3779,-0.850,-0.250
3780,-0.870,-0.240
3781,-0.870,-0.235
3782,-0.870,-0.230
3783,-0.865,-0.205
3784,-0.870,-0.210
3785,-0.870,-0.200
3786,-0.875,-0.185
3787,-0.880,-0.190
3788,-0.885,-0.185
3789,-0.885,-0.185
3790,-0.900,-0.195
3791,-0.900,-0.190
3792,-0.910,-0.185
3793,-0.910,-0.165
3794,-0.920,-0.150
3795,-0.900,-0.140
3796,-0.900,-0.145
3797,-0.890,-0.110
3798,-0.880,-0.125
3799,-0.880,-0.115
3800,-0.880,-0.125
3801,-0.860,-0.120
3802,-0.855,-0.130
3803,-0.850,-0.130
3804,-0.840,-0.125
3805,-0.820,-0.130
3806,-0.805,-0.115
3807,-0.770,-0.115
3808,-0.755,-0.100
3809,-0.735,-0.120
3810,-0.710,-0.135
3811,-0.700,-0.130
3812,-0.695,-0.135
3813,-0.675,-0.170
3814,-0.660,-0.180
3815,-0.665,-0.180
3816,-0.650,-0.180
3817,-0.635,-0.185
3818,-0.635,-0.195
3819,-0.635,-0.195
3820,-0.615,-0.210
3821,-0.605,-0.200
3822,-0.600,-0.210
3823,-0.605,-0.230
3824,-0.595,-0.235
3825,-0.600,-0.245
3826,-0.600,-0.265
3827,-0.615,-0.260
3828,-0.595,-0.275
3829,-0.620,-0.275
3830,-0.615,-0.255
3831,-0.605,-0.255
3832,-0.590,-0.265
3833,-0.590,-0.260
3834,-0.585,-0.265
3835,-0.595,-0.280
3836,-0.580,-0.285
3837,-0.595,-0.295
3838,-0.590,-0.300
3839,-0.600,-0.305
3840,-0.610,-0.290
3841,-0.600,-0.295
3842,-0.600,-0.295
3843,-0.605,-0.280
3844,-0.590,-0.275
3845,-0.595,-0.280
3846,-0.585,-0.285
3847,-0.590,-0.290
3848,-0.595,-0.295
3849,-0.610,-0.305
3850,-0.615,-0.325
3851,-0.635,-0.320
3852,-0.645,-0.300
3853,-0.640,-0.310
3854,-0.625,-0.300
3855,-0.625,-0.305
3856,-0.610,-0.295
3857,-0.615,-0.290
3858,-0.620,-0.295
3859,-0.620,-0.285
3860,-0.620,-0.290
3861,-0.625,-0.300
3862,-0.640,-0.305
3863,-0.655,-0.310
3864,-0.655,-0.315
3865,-0.650,-0.300
3866,-0.645,-0.300
3867,-0.640,-0.290
3868,-0.655,-0.275
3869,-0.630,-0.280
3870,-0.635,-0.270
3871,-0.645,-0.280
3872,-0.645,-0.290
3873,-0.645,-0.285
3874,-0.650,-0.305
3875,-0.645,-0.300
3876,-0.650,-0.295
3877,-0.650,-0.295
3878,-0.640,-0.285
3879,-0.625,-0.270
3880,-0.620,-0.280
3881,-0.615,-0.270
3882,-0.610,-0.275
3883,-0.605,-0.285
3884,-0.615,-0.285
3885,-0.610,-0.290
3886,-0.610,-0.300
3887,-0.610,-0.305
3888,-0.610,-0.295
3889,-0.600,-0.295
3890,-0.605,-0.285
3891,-0.590,-0.285
3892,-0.575,-0.265
3893,-0.555,-0.265
3894,-0.535,-0.270
3895,-0.555,-0.270
3896,-0.540,-0.275
3897,-0.540,-0.285
3898,-0.550,-0.285
3899,-0.550,-0.290
3900,-0.535,-0.280
3901,-0.530,-0.265
3902,-0.540,-0.260
3903,-0.515,-0.260
3904,-0.515,-0.230
3905,-0.485,-0.235
3906,-0.480,-0.245
3907,-0.455,-0.250
3908,-0.445,-0.255
3909,-0.445,-0.275
3910,-0.450,-0.265
3911,-0.440,-0.290
3912,-0.430,-0.300
3913,-0.430,-0.305
3914,-0.425,-0.305
3915,-0.430,-0.320
3916,-0.430,-0.315
3917,-0.435,-0.325
3918,-0.430,-0.345
3919,-0.445,-0.355
3920,-0.450,-0.355
3921,-0.465,-0.345
3922,-0.480,-0.355
3923,-0.490,-0.350
3924,-0.525,-0.340
3925,-0.530,-0.330
3926,-0.555,-0.315
3927,-0.545,-0.300
3928,-0.550,-0.295
3929,-0.555,-0.275
3930,-0.565,-0.290
3931,-0.585,-0.290
3932,-0.590,-0.290
3933,-0.630,-0.295
3934,-0.625,-0.300
3935,-0.635,-0.310
3936,-0.650,-0.295
3937,-0.645,-0.280
3938,-0.640,-0.295
3939,-0.620,-0.285
3940,-0.610,-0.280
3941,-0.600,-0.280
3942,-0.600,-0.290
3943,-0.595,-0.290
3944,-0.600,-0.295
3945,-0.615,-0.305
3946,-0.605,-0.310
3947,-0.610,-0.320
3948,-0.595,-0.310
3949,-0.580,-0.310
3950,-0.570,-0.305
3951,-0.555,-0.305
3952,-0.540,-0.300
3953,-0.505,-0.300
3954,-0.465,-0.295
3955,-0.415,-0.300
3956,-0.335,-0.315
3957,-0.245,-0.325
3958,-0.120,-0.335
3959,0.020,-0.350
3960,0.185,-0.350
3961,0.385,-0.375
3962,0.590,-0.410
3963,0.795,-0.470
3964,0.975,-0.555
3965,1.115,-0.645
3966,1.230,-0.780
3967,1.310,-0.895
3968,1.380,-1.010
3969,1.400,-1.130
3970,1.345,-1.260
3971,1.155,-1.370
3972,0.825,-1.460
3973,0.420,-1.520
3974,0.005,-1.540
3975,-0.360,-1.500
3976,-0.620,-1.395
3977,-0.765,-1.280
3978,-0.800,-1.150
3979,-0.790,-1.040
3980,-0.755,-0.945
3981,-0.730,-0.875
3982,-0.715,-0.815
3983,-0.710,-0.770
3984,-0.710,-0.705
3985,-0.715,-0.650
3986,-0.710,-0.570
3987,-0.690,-0.510
3988,-0.680,-0.435
3989,-0.680,-0.370
3990,-0.675,-0.345
3991,-0.685,-0.320
3992,-0.695,-0.305
3993,-0.700,-0.305
3994,-0.710,-0.310
3995,-0.720,-0.315
3996,-0.720,-0.315
3997,-0.720,-0.300
3998,-0.715,-0.275
3999,-0.725,-0.270
4000,-0.710,-0.255
4001,-0.710,-0.245
4002,-0.705,-0.245
4003,-0.720,-0.245
4004,-0.725,-0.260
4005,-0.735,-0.260
4006,-0.745,-0.270
4007,-0.750,-0.270
4008,-0.765,-0.255
4009,-0.770,-0.255
4010,-0.765,-0.250
4011,-0.760,-0.250
4012,-0.760,-0.250
4013,-0.745,-0.235
4014,-0.745,-0.240
4015,-0.750,-0.240
4016,-0.760,-0.235
4017,-0.765,-0.245
4018,-0.770,-0.250
4019,-0.780,-0.260
4020,-0.790,-0.250
4021,-0.785,-0.240
4022,-0.780,-0.240
4023,-0.780,-0.230
4024,-0.775,-0.225
4025,-0.770,-0.200
4026,-0.785,-0.220
4027,-0.790,-0.220
4028,-0.790,-0.220
4029,-0.800,-0.230
4030,-0.815,-0.220
4031,-0.835,-0.235
4032,-0.825,-0.225
4033,-0.830,-0.225
4034,-0.830,-0.205
4035,-0.830,-0.200
4036,-0.835,-0.190
4037,-0.825,-0.190
4038,-0.830,-0.175
4039,-0.820,-0.180
4040,-0.835,-0.190
4041,-0.850,-0.185
4042,-0.855,-0.190
4043,-0.875,-0.180
4044,-0.880,-0.185
4045,-0.885,-0.185
4046,-0.885,-0.160
4047,-0.880,-0.150
4048,-0.880,-0.135
4049,-0.875,-0.125
4050,-0.870,-0.115
4051,-0.870,-0.125
4052,-0.875,-0.130
4053,-0.890,-0.120
4054,-0.890,-0.125
4055,-0.900,-0.120
4056,-0.900,-0.110
4057,-0.890,-0.100
4058,-0.875,-0.085
4059,-0.865,-0.075
4060,-0.855,-0.070
4061,-0.840,-0.065
4062,-0.815,-0.060
4063,-0.825,-0.065
4064,-0.810,-0.075
4065,-0.810,-0.080
4066,-0.805,-0.070
4067,-0.795,-0.085
4068,-0.775,-0.080
4069,-0.755,-0.070
4070,-0.740,-0.080
4071,-0.725,-0.070
4072,-0.700,-0.065
4073,-0.680,-0.060
4074,-0.660,-0.070
4075,-0.650,-0.075
4076,-0.640,-0.080
4077,-0.640,-0.100
4078,-0.620,-0.125
4079,-0.615,-0.120
4080,-0.615,-0.130
4081,-0.605,-0.135
4082,-0.605,-0.130
4083,-0.590,-0.145
4084,-0.575,-0.130
4085,-0.570,-0.140
4086,-0.560,-0.150
4087,-0.555,-0.155
4088,-0.555,-0.165
4089,-0.560,-0.185
4090,-0.565,-0.185
4091,-0.565,-0.200
4092,-0.585,-0.200
4093,-0.580,-0.205
4094,-0.575,-0.190
4095,-0.570,-0.200
4096,-0.570,-0.190
4097,-0.565,-0.185
4098,-0.550,-0.190
4099,-0.565,-0.205
4100,-0.560,-0.210
4101,-0.565,-0.205
4102,-0.575,-0.210
4103,-0.590,-0.230
4104,-0.605,-0.230
4105,-0.600,-0.230
4106,-0.595,-0.215
4107,-0.585,-0.210
4108,-0.585,-0.205
4109,-0.575,-0.195
4110,-0.580,-0.210
4111,-0.575,-0.210
4112,-0.585,-0.225
4113,-0.575,-0.225
4114,-0.600,-0.220
4115,-0.605,-0.240
4116,-0.615,-0.235
4117,-0.605,-0.230
4118,-0.600,-0.215
4119,-0.605,-0.215
4120,-0.600,-0.210
4121,-0.595,-0.205
4122,-0.600,-0.195
4123,-0.605,-0.205
4124,-0.615,-0.210
4125,-0.610,-0.210
4126,-0.610,-0.220
4127,-0.615,-0.230
4128,-0.630,-0.225
4129,-0.625,-0.215
4130,-0.635,-0.200
4131,-0.625,-0.200
4132,-0.615,-0.190
4133,-0.610,-0.185
4134,-0.600,-0.190
4135,-0.590,-0.195
4136,-0.600,-0.190
4137,-0.605,-0.205
4138,-0.605,-0.210
4139,-0.615,-0.205
4140,-0.625,-0.200
4141,-0.635,-0.200
4142,-0.630,-0.185
4143,-0.610,-0.180
4144,-0.610,-0.180
4145,-0.605,-0.175
4146,-0.595,-0.170
4147,-0.590,-0.170
4148,-0.605,-0.195
4149,-0.595,-0.195
4150,-0.595,-0.210
4151,-0.605,-0.205
4152,-0.590,-0.200
4153,-0.590,-0.200
4154,-0.580,-0.195
4155,-0.575,-0.190
4156,-0.565,-0.175
4157,-0.545,-0.170
4158,-0.540,-0.170
4159,-0.535,-0.190
4160,-0.525,-0.195
4161,-0.530,-0.200
4162,-0.530,-0.210
4163,-0.530,-0.205
4164,-0.520,-0.205
4165,-0.520,-0.185
4166,-0.515,-0.190
4167,-0.500,-0.185
4168,-0.510,-0.170
4169,-0.485,-0.150
4170,-0.485,-0.155
4171,-0.460,-0.165
4172,-0.440,-0.170
4173,-0.440,-0.180
4174,-0.430,-0.185
4175,-0.435,-0.195
4176,-0.415,-0.210
4177,-0.405,-0.210
4178,-0.410,-0.220
4179,-0.405,-0.220
4180,-0.405,-0.215
4181,-0.395,-0.225
4182,-0.405,-0.240
4183,-0.415,-0.255
4184,-0.435,-0.255
4185,-0.450,-0.265
4186,-0.450,-0.260
4187,-0.485,-0.250
4188,-0.500,-0.255
4189,-0.510,-0.235
4190,-0.520,-0.225
4191,-0.520,-0.215
4192,-0.525,-0.200
4193,-0.520,-0.200
4194,-0.525,-0.205
4195,-0.560,-0.205
4196,-0.555,-0.195
4197,-0.570,-0.205
4198,-0.585,-0.210
4199,-0.610,-0.200
4200,-0.605,-0.200
4201,-0.605,-0.195
4202,-0.600,-0.195
4203,-0.585,-0.190
4204,-0.590,-0.190
4205,-0.580,-0.180
4206,-0.575,-0.175
4207,-0.575,-0.185
4208,-0.580,-0.190
4209,-0.585,-0.215
4210,-0.585,-0.210
4211,-0.590,-0.225
4212,-0.605,-0.205
4213,-0.595,-0.215
4214,-0.585,-0.210
4215,-0.585,-0.205
4216,-0.585,-0.190
4217,-0.565,-0.205
4218,-0.550,-0.205
4219,-0.545,-0.210
4220,-0.525,-0.210
4221,-0.535,-0.220
4222,-0.525,-0.235
4223,-0.500,-0.235
4224,-0.485,-0.225
4225,-0.450,-0.240
4226,-0.375,-0.240
4227,-0.290,-0.225
4228,-0.200,-0.225
4229,-0.085,-0.210
4230,0.065,-0.220
4231,0.225,-0.245
4232,0.430,-0.290
4233,0.640,-0.335
4234,0.850,-0.410
4235,1.015,-0.510
4236,1.150,-0.605
4237,1.260,-0.715
4238,1.355,-0.820
4239,1.425,-0.940
4240,1.405,-1.045
4241,1.245,-1.150
4242,0.905,-1.255
4243,0.465,-1.305
4244,0.000,-1.330
4245,-0.420,-1.295
4246,-0.695,-1.215
4247,-0.850,-1.105
4248,-0.895,-1.000
4249,-0.865,-0.895
4250,-0.805,-0.800
4251,-0.745,-0.720
4252,-0.715,-0.645
4253,-0.685,-0.585
4254,-0.660,-0.535
4255,-0.660,-0.490
4256,-0.675,-0.430
4257,-0.665,-0.370
4258,-0.690,-0.335
4259,-0.720,-0.295
4260,-0.725,-0.255
4261,-0.725,-0.230
4262,-0.715,-0.225
4263,-0.715,-0.205
4264,-0.705,-0.200
4265,-0.710,-0.185
4266,-0.710,-0.185
4267,-0.700,-0.195
4268,-0.710,-0.185
4269,-0.710,-0.185
4270,-0.715,-0.200
4271,-0.730,-0.195
4272,-0.725,-0.195
4273,-0.735,-0.190
4274,-0.730,-0.175
4275,-0.735,-0.160
4276,-0.730,-0.150
4277,-0.730,-0.155
4278,-0.725,-0.150
4279,-0.730,-0.145
4280,-0.730,-0.145
4281,-0.730,-0.165
4282,-0.745,-0.165
4283,-0.755,-0.160
4284,-0.765,-0.170
4285,-0.760,-0.165
4286,-0.770,-0.145
4287,-0.760,-0.150
4288,-0.765,-0.140
4289,-0.760,-0.125
4290,-0.755,-0.135
4291,-0.760,-0.130
4292,-0.755,-0.135
4293,-0.765,-0.155
4294,-0.780,-0.155
4295,-0.785,-0.160
4296,-0.785,-0.150
4297,-0.785,-0.150
4298,-0.790,-0.135
4299,-0.790,-0.130
4300,-0.800,-0.125
4301,-0.785,-0.120
4302,-0.795,-0.110
4303,-0.805,-0.120
4304,-0.810,-0.130
4305,-0.815,-0.125
4306,-0.830,-0.130
4307,-0.840,-0.135
4308,-0.840,-0.130
4309,-0.835,-0.130
4310,-0.850,-0.130
4311,-0.835,-0.110
4312,-0.840,-0.100
4313,-0.840,-0.085
4314,-0.840,-0.080
4315,-0.845,-0.080
4316,-0.845,-0.075
4317,-0.860,-0.090
4318,-0.865,-0.085
4319,-0.885,-0.095
4320,-0.890,-0.080
4321,-0.895,-0.075
4322,-0.890,-0.060
4323,-0.890,-0.060
4324,-0.890,-0.045
4325,-0.885,-0.025
4326,-0.875,-0.035
4327,-0.880,-0.025
4328,-0.880,-0.030
4329,-0.895,-0.025
4330,-0.885,-0.035
4331,-0.895,-0.035
4332,-0.885,-0.030
4333,-0.895,-0.015
4334,-0.875,-0.015
4335,-0.865,-0.005
4336,-0.855,0.010
4337,-0.835,0.005
4338,-0.820,0.005
4339,-0.810,0.005
4340,-0.795,-0.005
4341,-0.795,0.005
4342,-0.775,-0.010
4343,-0.770,-0.010
4344,-0.765,-0.020
4345,-0.745,-0.015
4346,-0.725,-0.015
4347,-0.705,-0.005
4348,-0.685,0.005
4349,-0.655,0.000
4350,-0.660,-0.010
4351,-0.645,-0.025
4352,-0.635,-0.040
4353,-0.635,-0.050
4354,-0.620,-0.065
4355,-0.620,-0.075
4356,-0.615,-0.075
4357,-0.610,-0.075
4358,-0.610,-0.080
4359,-0.610,-0.080
4360,-0.590,-0.075
4361,-0.580,-0.080
4362,-0.575,-0.090
4363,-0.570,-0.100
4364,-0.575,-0.115
4365,-0.575,-0.120
4366,-0.575,-0.125
4367,-0.580,-0.135
4368,-0.590,-0.135
4369,-0.595,-0.140
4370,-0.595,-0.140
4371,-0.590,-0.130
4372,-0.585,-0.130
4373,-0.565,-0.130
4374,-0.570,-0.135
4375,-0.580,-0.140
4376,-0.580,-0.150
4377,-0.580,-0.160
4378,-0.595,-0.165
4379,-0.595,-0.175
4380,-0.605,-0.175
4381,-0.605,-0.175
4382,-0.615,-0.165
4383,-0.595,-0.165
4384,-0.605,-0.160
4385,-0.600,-0.150
4386,-0.605,-0.155
4387,-0.600,-0.170
4388,-0.600,-0.170
4389,-0.610,-0.180
4390,-0.615,-0.180
4391,-0.625,-0.185
4392,-0.635,-0.190
4393,-0.635,-0.180
4394,-0.640,-0.175
4395,-0.635,-0.160
4396,-0.645,-0.170
4397,-0.630,-0.150
4398,-0.620,-0.160
4399,-0.635,-0.165
4400,-0.625,-0.180
4401,-0.640,-0.170
4402,-0.630,-0.185
4403,-0.640,-0.185
4404,-0.660,-0.185
4405,-0.665,-0.185
4406,-0.660,-0.180
4407,-0.660,-0.170
4408,-0.645,-0.160
4409,-0.645,-0.160
4410,-0.640,-0.165
4411,-0.660,-0.165
4412,-0.640,-0.165
4413,-0.650,-0.170
4414,-0.650,-0.190
4415,-0.650,-0.185
4416,-0.655,-0.185
4417,-0.655,-0.185
4418,-0.645,-0.180
4419,-0.635,-0.190
4420,-0.645,-0.160
4421,-0.650,-0.150
4422,-0.625,-0.165
4423,-0.615,-0.175
4424,-0.615,-0.190
4425,-0.635,-0.190
4426,-0.625,-0.200
4427,-0.625,-0.190
4428,-0.630,-0.195
4429,-0.630,-0.190
4430,-0.630,-0.190
4431,-0.625,-0.175
4432,-0.610,-0.180
4433,-0.590,-0.175
4434,-0.575,-0.175
4435,-0.575,-0.180
4436,-0.575,-0.190
4437,-0.575,-0.195
4438,-0.570,-0.205
4439,-0.585,-0.200
4440,-0.575,-0.200
4441,-0.580,-0.195
4442,-0.565,-0.190
4443,-0.560,-0.190
4444,-0.545,-0.165
4445,-0.535,-0.165
4446,-0.530,-0.160
4447,-0.530,-0.170
4448,-0.525,-0.170
4449,-0.530,-0.175
4450,-0.515,-0.185
4451,-0.525,-0.180
4452,-0.515,-0.180
4453,-0.500,-0.195
4454,-0.490,-0.185
4455,-0.485,-0.195
4456,-0.465,-0.190
4457,-0.445,-0.200
4458,-0.430,-0.215
4459,-0.435,-0.240
4460,-0.435,-0.245
4461,-0.460,-0.280
4462,-0.465,-0.290
4463,-0.490,-0.285
4464,-0.495,-0.285
4465,-0.520,-0.285
4466,-0.525,-0.255
4467,-0.535,-0.250
4468,-0.540,-0.230
4469,-0.550,-0.220
4470,-0.560,-0.220
4471,-0.570,-0.220
4472,-0.585,-0.220
4473,-0.600,-0.225
4474,-0.620,-0.230
4475,-0.635,-0.240
4476,-0.640,-0.240
4477,-0.655,-0.235
4478,-0.665,-0.230
4479,-0.640,-0.220
4480,-0.625,-0.210
4481,-0.610,-0.195
4482,-0.610,-0.195
4483,-0.610,-0.210
4484,-0.625,-0.215
4485,-0.640,-0.225
4486,-0.630,-0.230
4487,-0.645,-0.230
4488,-0.650,-0.245
4489,-0.640,-0.245
4490,-0.630,-0.235
4491,-0.625,-0.225
4492,-0.600,-0.225
4493,-0.595,-0.215
4494,-0.580,-0.220
4495,-0.585,-0.240
4496,-0.560,-0.230
4497,-0.555,-0.245
4498,-0.545,-0.260
4499,-0.515,-0.255
4500,-0.475,-0.260
4501,-0.425,-0.250
4502,-0.335,-0.250
4503,-0.215,-0.250
4504,-0.105,-0.240
4505,0.035,-0.250
4506,0.215,-0.250
4507,0.405,-0.270
4508,0.610,-0.325
4509,0.805,-0.385
4510,0.960,-0.475
4511,1.080,-0.575
4512,1.160,-0.680
4513,1.235,-0.785
4514,1.330,-0.885
4515,1.415,-0.960
4516,1.420,-1.060
4517,1.335,-1.165
4518,1.080,-1.255
4519,0.715,-1.330
4520,0.290,-1.400
4521,-0.120,-1.410
4522,-0.455,-1.375
4523,-0.695,-1.320
4524,-0.810,-1.215
4525,-0.840,-1.110
4526,-0.830,-0.985
4527,-0.795,-0.880
4528,-0.765,-0.785
4529,-0.745,-0.720
4530,-0.730,-0.640
4531,-0.720,-0.570
4532,-0.710,-0.495
4533,-0.705,-0.425
4534,-0.715,-0.360
4535,-0.720,-0.310
4536,-0.740,-0.275
4537,-0.745,-0.265
4538,-0.745,-0.245
4539,-0.735,-0.245
4540,-0.735,-0.225
4541,-0.730,-0.215
4542,-0.725,-0.210
4543,-0.730,-0.215
4544,-0.735,-0.210
4545,-0.755,-0.225
4546,-0.750,-0.225
4547,-0.755,-0.215
4548,-0.765,-0.220
4549,-0.780,-0.215
4550,-0.785,-0.200
4551,-0.780,-0.210
4552,-0.770,-0.200
4553,-0.755,-0.190
4554,-0.760,-0.180
4555,-0.755,-0.185
4556,-0.765,-0.185
4557,-0.765,-0.195
4558,-0.765,-0.195
4559,-0.770,-0.205
4560,-0.785,-0.200
4561,-0.785,-0.190
4562,-0.800,-0.185
4563,-0.800,-0.180
4564,-0.800,-0.165
4565,-0.790,-0.160
4566,-0.790,-0.165
4567,-0.800,-0.170
4568,-0.790,-0.175
4569,-0.805,-0.175
4570,-0.815,-0.175
4571,-0.825,-0.185
4572,-0.825,-0.180
4573,-0.830,-0.165
4574,-0.845,-0.165
4575,-0.840,-0.160
4576,-0.840,-0.145
4577,-0.825,-0.145
4578,-0.835,-0.150
4579,-0.850,-0.150
4580,-0.850,-0.150
4581,-0.865,-0.165
4582,-0.875,-0.155
4583,-0.870,-0.165
4584,-0.875,-0.155
4585,-0.890,-0.150
4586,-0.885,-0.145
4587,-0.890,-0.130
4588,-0.890,-0.125
4589,-0.890,-0.105
4590,-0.895,-0.110
4591,-0.900,-0.105
4592,-0.905,-0.120
4593,-0.900,-0.105
4594,-0.905,-0.105
4595,-0.910,-0.120
4596,-0.910,-0.100
4597,-0.910,-0.090
4598,-0.920,-0.095
4599,-0.910,-0.085
4600,-0.905,-0.070
4601,-0.910,-0.050
4602,-0.900,-0.050
4603,-0.900,-0.060
4604,-0.900,-0.065
4605,-0.900,-0.055
4606,-0.890,-0.040
4607,-0.890,-0.050
4608,-0.885,-0.045
4609,-0.870,-0.050
4610,-0.865,-0.050
4611,-0.850,-0.030
4612,-0.825,-0.025
4613,-0.810,-0.020
4614,-0.790,-0.030
4615,-0.770,-0.035
4616,-0.765,-0.045
4617,-0.740,-0.060
4618,-0.745,-0.055
4619,-0.745,-0.050
4620,-0.725,-0.065
4621,-0.715,-0.065
4622,-0.695,-0.065
4623,-0.670,-0.080
4624,-0.665,-0.080
4625,-0.645,-0.075
4626,-0.640,-0.090
4627,-0.625,-0.105
4628,-0.625,-0.115
4629,-0.620,-0.125
4630,-0.625,-0.145
4631,-0.640,-0.145
4632,-0.630,-0.155
4633,-0.620,-0.150
4634,-0.615,-0.165
4635,-0.620,-0.160
4636,-0.610,-0.150
4637,-0.595,-0.155
4638,-0.600,-0.160
4639,-0.600,-0.160
4640,-0.595,-0.170
4641,-0.605,-0.185
4642,-0.605,-0.190
4643,-0.610,-0.195
4644,-0.620,-0.210
4645,-0.620,-0.200
4646,-0.615,-0.185
4647,-0.610,-0.195
4648,-0.610,-0.195
4649,-0.605,-0.185
4650,-0.605,-0.180
4651,-0.605,-0.195
4652,-0.610,-0.210
4653,-0.620,-0.220
4654,-0.635,-0.215
4655,-0.640,-0.225
4656,-0.640,-0.220
4657,-0.645,-0.215
4658,-0.635,-0.210
4659,-0.635,-0.205
4660,-0.630,-0.195
4661,-0.625,-0.190
4662,-0.620,-0.200
4663,-0.630,-0.200
4664,-0.640,-0.205
4665,-0.640,-0.220
4666,-0.650,-0.215
4667,-0.660,-0.210
4668,-0.680,-0.225
4669,-0.665,-0.220
4670,-0.670,-0.210
4671,-0.660,-0.210
4672,-0.665,-0.200
4673,-0.655,-0.200
4674,-0.655,-0.205
4675,-0.655,-0.200
4676,-0.655,-0.215
4677,-0.675,-0.200
4678,-0.680,-0.210
4679,-0.680,-0.225
4680,-0.690,-0.225
4681,-0.690,-0.225
4682,-0.685,-0.215
4683,-0.670,-0.210
4684,-0.650,-0.195
4685,-0.655,-0.190
4686,-0.645,-0.200
4687,-0.645,-0.200
4688,-0.640,-0.200
4689,-0.650,-0.210
4690,-0.660,-0.225
4691,-0.665,-0.225
4692,-0.680,-0.230
4693,-0.680,-0.215
4694,-0.675,-0.210
4695,-0.655,-0.215
4696,-0.660,-0.210
4697,-0.645,-0.195
4698,-0.635,-0.200
4699,-0.635,-0.215
4700,-0.625,-0.205
4701,-0.625,-0.210
4702,-0.625,-0.205
4703,-0.620,-0.235
4704,-0.620,-0.225
4705,-0.610,-0.225
4706,-0.605,-0.225
4707,-0.590,-0.210
4708,-0.570,-0.210
4709,-0.570,-0.200
4710,-0.565,-0.200
4711,-0.560,-0.205
4712,-0.565,-0.195
4713,-0.550,-0.220
4714,-0.545,-0.220
4715,-0.555,-0.225
4716,-0.550,-0.215
4717,-0.550,-0.205
4718,-0.525,-0.210
4719,-0.505,-0.200
4720,-0.490,-0.195
4721,-0.470,-0.195
4722,-0.455,-0.205
4723,-0.445,-0.220
4724,-0.445,-0.235
4725,-0.445,-0.260
4726,-0.450,-0.290
4727,-0.465,-0.290
4728,-0.485,-0.305
4729,-0.485,-0.310
4730,-0.495,-0.310
4731,-0.495,-0.295
4732,-0.510,-0.290
4733,-0.525,-0.275
4734,-0.530,-0.270
4735,-0.540,-0.265
4736,-0.555,-0.260
4737,-0.575,-0.265
4738,-0.605,-0.250
4739,-0.610,-0.255
4740,-0.625,-0.255
4741,-0.640,-0.260
4742,-0.650,-0.240
4743,-0.660,-0.235
4744,-0.660,-0.230
4745,-0.650,-0.230
4746,-0.655,-0.210
4747,-0.650,-0.230
4748,-0.640,-0.235
4749,-0.635,-0.245
4750,-0.650,-0.245
4751,-0.660,-0.250
4752,-0.660,-0.260
4753,-0.650,-0.260
4754,-0.655,-0.245
4755,-0.650,-0.245
4756,-0.630,-0.240
4757,-0.625,-0.235
4758,-0.610,-0.235
4759,-0.605,-0.260
4760,-0.610,-0.255
4761,-0.595,-0.260
4762,-0.595,-0.275
4763,-0.585,-0.285
4764,-0.555,-0.285
4765,-0.515,-0.280
4766,-0.460,-0.265
4767,-0.375,-0.260
4768,-0.270,-0.265
4769,-0.145,-0.255
4770,-0.015,-0.245
4771,0.130,-0.260
4772,0.315,-0.280
4773,0.510,-0.320
4774,0.700,-0.370
4775,0.895,-0.455
4776,1.050,-0.560
4777,1.175,-0.660
4778,1.280,-0.780
4779,1.400,-0.885
4780,1.495,-1.015
4781,1.480,-1.120
4782,1.320,-1.225
4783,0.980,-1.345
4784,0.520,-1.405
4785,0.020,-1.430
4786,-0.390,-1.405
4787,-0.680,-1.340
4788,-0.840,-1.235
4789,-0.890,-1.110
4790,-0.880,-0.995
4791,-0.825,-0.895
4792,-0.775,-0.810
4793,-0.740,-0.730
4794,-0.720,-0.665
4795,-0.710,-0.600
4796,-0.705,-0.530
4797,-0.705,-0.475
4798,-0.710,-0.430
4799,-0.735,-0.360
4800,-0.740,-0.325
4801,-0.745,-0.300
4802,-0.730,-0.280
4803,-0.745,-0.275
4804,-0.735,-0.270
4805,-0.730,-0.260
4806,-0.735,-0.260
4807,-0.725,-0.255
4808,-0.730,-0.260
4809,-0.735,-0.265
4810,-0.750,-0.270
4811,-0.765,-0.260
4812,-0.755,-0.265
4813,-0.750,-0.270
4814,-0.760,-0.260
4815,-0.765,-0.255
4816,-0.760,-0.245
4817,-0.750,-0.230
4818,-0.745,-0.230
4819,-0.745,-0.245
4820,-0.750,-0.240
4821,-0.750,-0.260
4822,-0.775,-0.260
4823,-0.770,-0.260
4824,-0.785,-0.265
4825,-0.785,-0.250
4826,-0.790,-0.255
4827,-0.790,-0.255
4828,-0.780,-0.225
4829,-0.780,-0.220
4830,-0.785,-0.225
4831,-0.785,-0.225
4832,-0.795,-0.225
4833,-0.795,-0.230
4834,-0.795,-0.240
4835,-0.810,-0.240
4836,-0.815,-0.240
4837,-0.820,-0.235
4838,-0.815,-0.225
4839,-0.825,-0.220
4840,-0.825,-0.205
4841,-0.835,-0.200
4842,-0.810,-0.200
4843,-0.830,-0.200
4844,-0.815,-0.195
4845,-0.845,-0.205
4846,-0.850,-0.210
4847,-0.860,-0.220
4848,-0.870,-0.210
4849,-0.865,-0.205
4850,-0.880,-0.195
4851,-0.870,-0.170
4852,-0.870,-0.160
4853,-0.865,-0.150
4854,-0.860,-0.155
4855,-0.860,-0.155
4856,-0.860,-0.155
4857,-0.865,-0.160
4858,-0.885,-0.155
4859,-0.880,-0.145
4860,-0.875,-0.145
4861,-0.880,-0.135
4862,-0.875,-0.135
4863,-0.860,-0.125
4864,-0.855,-0.110
4865,-0.840,-0.105
4866,-0.815,-0.090
4867,-0.810,-0.105
4868,-0.790,-0.105
4869,-0.780,-0.110
4870,-0.785,-0.115
4871,-0.780,-0.120
4872,-0.770,-0.135
4873,-0.760,-0.130
4874,-0.745,-0.130
4875,-0.735,-0.120
4876,-0.715,-0.110
4877,-0.690,-0.115
4878,-0.655,-0.125
4879,-0.645,-0.135
4880,-0.625,-0.145
4881,-0.615,-0.160
4882,-0.620,-0.170
4883,-0.630,-0.180
4884,-0.615,-0.190
4885,-0.615,-0.185
4886,-0.605,-0.190
4887,-0.590,-0.175
4888,-0.580,-0.200
4889,-0.575,-0.180
4890,-0.560,-0.210
4891,-0.560,-0.225
4892,-0.545,-0.220
4893,-0.565,-0.245
4894,-0.565,-0.255
4895,-0.585,-0.265
4896,-0.580,-0.280
4897,-0.575,-0.265
4898,-0.585,-0.270
4899,-0.590,-0.265
4900,-0.575,-0.255
4901,-0.560,-0.250
4902,-0.555,-0.255
4903,-0.560,-0.265
4904,-0.570,-0.265
4905,-0.575,-0.285
4906,-0.580,-0.295
4907,-0.590,-0.300
4908,-0.590,-0.300
4909,-0.605,-0.300
4910,-0.605,-0.290
4911,-0.595,-0.290
4912,-0.580,-0.285
4913,-0.585,-0.280
4914,-0.585,-0.280
4915,-0.585,-0.290
4916,-0.580,-0.290
4917,-0.590,-0.295
4918,-0.600,-0.285
4919,-0.615,-0.290
4920,-0.625,-0.310
4921,-0.610,-0.300
4922,-0.615,-0.295
4923,-0.610,-0.290
4924,-0.605,-0.275
4925,-0.600,-0.275
4926,-0.590,-0.270
4927,-0.590,-0.285
4928,-0.590,-0.280
4929,-0.600,-0.280
4930,-0.615,-0.290
4931,-0.615,-0.305
4932,-0.630,-0.300
4933,-0.630,-0.285
4934,-0.625,-0.285
4935,-0.610,-0.280
4936,-0.610,-0.275
4937,-0.600,-0.270
4938,-0.600,-0.260
4939,-0.605,-0.280
4940,-0.600,-0.285
4941,-0.600,-0.300
4942,-0.605,-0.295
4943,-0.610,-0.300
4944,-0.610,-0.310
4945,-0.620,-0.315
4946,-0.620,-0.290
4947,-0.605,-0.295
4948,-0.605,-0.285
4949,-0.585,-0.280
4950,-0.585,-0.285
4951,-0.590,-0.285
4952,-0.585,-0.275
4953,-0.585,-0.290
4954,-0.590,-0.300
4955,-0.595,-0.295
4956,-0.580,-0.305
4957,-0.575,-0.310
4958,-0.585,-0.300
4959,-0.570,-0.295
4960,-0.555,-0.275
4961,-0.550,-0.280
4962,-0.540,-0.275
4963,-0.545,-0.280
4964,-0.520,-0.285
4965,-0.520,-0.290
4966,-0.520,-0.290
4967,-0.520,-0.295
4968,-0.515,-0.285
4969,-0.520,-0.280
4970,-0.505,-0.290
4971,-0.505,-0.270
4972,-0.490,-0.265
4973,-0.470,-0.250
4974,-0.460,-0.240
4975,-0.435,-0.275
4976,-0.425,-0.275
4977,-0.420,-0.285
4978,-0.410,-0.300
4979,-0.410,-0.325
4980,-0.410,-0.325
4981,-0.415,-0.345
4982,-0.425,-0.355
4983,-0.420,-0.365
4984,-0.435,-0.370
4985,-0.445,-0.370
4986,-0.455,-0.355
4987,-0.450,-0.365
4988,-0.465,-0.360
4989,-0.485,-0.350
4990,-0.500,-0.340
4991,-0.525,-0.345
4992,-0.525,-0.350
4993,-0.535,-0.330
4994,-0.550,-0.330
4995,-0.550,-0.320
4996,-0.580,-0.310
4997,-0.580,-0.305
4998,-0.585,-0.295
4999,-0.590,-0.310
5000,-0.595,-0.310
5001,-0.595,-0.320
5002,-0.610,-0.315
5003,-0.605,-0.320
5004,-0.610,-0.325
5005,-0.595,-0.320
5006,-0.600,-0.320
5007,-0.595,-0.310
5008,-0.575,-0.315
5009,-0.580,-0.300
5010,-0.570,-0.305
5011,-0.570,-0.310
5012,-0.565,-0.325
5013,-0.580,-0.325
5014,-0.580,-0.335
5015,-0.575,-0.350
5016,-0.590,-0.340
5017,-0.570,-0.340
5018,-0.555,-0.340
5019,-0.545,-0.330
5020,-0.520,-0.325
5021,-0.505,-0.320
5022,-0.475,-0.320
5023,-0.445,-0.340
5024,-0.385,-0.340
5025,-0.335,-0.345
5026,-0.255,-0.350
5027,-0.155,-0.365
5028,-0.045,-0.370
5029,0.095,-0.370
5030,0.260,-0.385
5031,0.470,-0.425
5032,0.700,-0.485
5033,0.905,-0.545
5034,1.075,-0.660
5035,1.225,-0.785
5036,1.330,-0.920
5037,1.425,-1.050
5038,1.465,-1.190
5039,1.385,-1.320
5040,1.145,-1.440
5041,0.740,-1.525
5042,0.250,-1.555
5043,-0.205,-1.520
5044,-0.585,-1.410
5045,-0.785,-1.285
5046,-0.865,-1.135
5047,-0.850,-0.995
5048,-0.800,-0.885
5049,-0.735,-0.805
5050,-0.695,-0.730
5051,-0.655,-0.690
5052,-0.660,-0.620
5053,-0.660,-0.545
5054,-0.670,-0.475
5055,-0.685,-0.415
5056,-0.695,-0.380
5057,-0.690,-0.355
5058,-0.695,-0.340
5059,-0.690,-0.340
5060,-0.695,-0.345
5061,-0.695,-0.350
5062,-0.705,-0.360
5063,-0.725,-0.350
5064,-0.730,-0.350
5065,-0.735,-0.340
5066,-0.730,-0.325
5067,-0.720,-0.320
5068,-0.720,-0.310
5069,-0.710,-0.305
5070,-0.715,-0.300
5071,-0.725,-0.310
5072,-0.730,-0.310
5073,-0.725,-0.330
5074,-0.735,-0.320
5075,-0.745,-0.335
5076,-0.765,-0.315
5077,-0.770,-0.315
5078,-0.750,-0.305
5079,-0.745,-0.300
5080,-0.740,-0.295
5081,-0.735,-0.285
5082,-0.740,-0.290
5083,-0.745,-0.290
5084,-0.745,-0.300
5085,-0.770,-0.300
5086,-0.780,-0.305
5087,-0.790,-0.310
5088,-0.785,-0.315
5089,-0.790,-0.310
5090,-0.785,-0.310
5091,-0.790,-0.290
5092,-0.780,-0.285
5093,-0.770,-0.285
5094,-0.765,-0.270
5095,-0.775,-0.280
5096,-0.785,-0.280
5097,-0.800,-0.285
5098,-0.815,-0.290
5099,-0.820,-0.305
5100,-0.825,-0.315
5101,-0.830,-0.280
5102,-0.830,-0.270
5103,-0.830,-0.270
5104,-0.825,-0.260
5105,-0.835,-0.260
5106,-0.820,-0.245
5107,-0.830,-0.260
5108,-0.825,-0.260
5109,-0.845,-0.260
5110,-0.855,-0.260
5111,-0.875,-0.265
5112,-0.880,-0.260
5113,-0.895,-0.250
5114,-0.890,-0.240
5115,-0.895,-0.220
5116,-0.905,-0.205
5117,-0.885,-0.205
5118,-0.875,-0.195
5119,-0.860,-0.185
5120,-0.870,-0.175
5121,-0.885,-0.180
5122,-0.900,-0.180
5123,-0.885,-0.190
5124,-0.880,-0.185
5125,-0.880,-0.175
5126,-0.870,-0.155
5127,-0.845,-0.145
5128,-0.850,-0.140
5129,-0.825,-0.155
5130,-0.805,-0.140
5131,-0.790,-0.150
5132,-0.785,-0.155
5133,-0.775,-0.165
5134,-0.765,-0.170
5135,-0.760,-0.175
5136,-0.735,-0.185
5137,-0.730,-0.185
5138,-0.715,-0.175
5139,-0.690,-0.190
5140,-0.665,-0.185
5141,-0.640,-0.180
5142,-0.640,-0.195
5143,-0.635,-0.200
5144,-0.615,-0.205
5145,-0.610,-0.225
5146,-0.615,-0.250
5147,-0.610,-0.260
5148,-0.610,-0.270
5149,-0.605,-0.270
5150,-0.600,-0.260
5151,-0.605,-0.280
5152,-0.585,-0.265
5153,-0.575,-0.275
5154,-0.565,-0.280
5155,-0.570,-0.295
5156,-0.570,-0.290
5157,-0.570,-0.305
5158,-0.590,-0.320
5159,-0.580,-0.330
5160,-0.600,-0.330
5161,-0.600,-0.325
5162,-0.605,-0.335
5163,-0.605,-0.325
5164,-0.595,-0.320
5165,-0.590,-0.325
5166,-0.580,-0.310
5167,-0.575,-0.325
5168,-0.585,-0.325
5169,-0.580,-0.325
5170,-0.590,-0.340
5171,-0.600,-0.350
5172,-0.605,-0.350
5173,-0.615,-0.355
5174,-0.610,-0.355
5175,-0.610,-0.335
5176,-0.610,-0.345
5177,-0.605,-0.340
5178,-0.600,-0.330
5179,-0.590,-0.350
5180,-0.600,-0.350
5181,-0.610,-0.350
5182,-0.620,-0.365
5183,-0.620,-0.355
5184,-0.630,-0.365
5185,-0.635,-0.355
5186,-0.640,-0.365
5187,-0.635,-0.345
5188,-0.640,-0.340
5189,-0.630,-0.345
5190,-0.625,-0.325
5191,-0.625,-0.350
5192,-0.630,-0.340
5193,-0.635,-0.345
5194,-0.635,-0.370
5195,-0.640,-0.375
5196,-0.645,-0.365
5197,-0.650,-0.350
5198,-0.655,-0.350
5199,-0.660,-0.350
5200,-0.635,-0.340
5201,-0.640,-0.330
5202,-0.635,-0.330
5203,-0.630,-0.325
5204,-0.640,-0.340
5205,-0.645,-0.345
5206,-0.640,-0.350
5207,-0.640,-0.355
5208,-0.655,-0.350
5209,-0.655,-0.345
5210,-0.640,-0.345
5211,-0.640,-0.340
5212,-0.625,-0.335
5213,-0.620,-0.325
5214,-0.625,-0.320
5215,-0.605,-0.325
5216,-0.605,-0.335
5217,-0.605,-0.350
5218,-0.605,-0.345
5219,-0.610,-0.365
5220,-0.605,-0.345
5221,-0.600,-0.355
5222,-0.590,-0.355
5223,-0.570,-0.345
5224,-0.560,-0.340
5225,-0.550,-0.335
5226,-0.545,-0.320
5227,-0.535,-0.325
5228,-0.540,-0.330
5229,-0.540,-0.345
5230,-0.545,-0.350
5231,-0.540,-0.355
5232,-0.560,-0.355
5233,-0.540,-0.350
5234,-0.550,-0.335
5235,-0.530,-0.320
5236,-0.510,-0.325
5237,-0.500,-0.305
5238,-0.490,-0.310
5239,-0.480,-0.315
5240,-0.465,-0.330
5241,-0.460,-0.335
5242,-0.450,-0.340
5243,-0.445,-0.355
5244,-0.450,-0.365
5245,-0.445,-0.360
5246,-0.445,-0.380
5247,-0.455,-0.380
5248,-0.455,-0.395
5249,-0.450,-0.395
5250,-0.440,-0.420
5251,-0.450,-0.420
5252,-0.465,-0.415
5253,-0.475,-0.415
5254,-0.505,-0.410
5255,-0.520,-0.410
5256,-0.540,-0.405
5257,-0.555,-0.390
5258,-0.560,-0.375
5259,-0.565,-0.370
5260,-0.580,-0.355
5261,-0.585,-0.355
5262,-0.580,-0.340
5263,-0.590,-0.345
5264,-0.610,-0.345
5265,-0.625,-0.360
5266,-0.630,-0.365
5267,-0.625,-0.380
5268,-0.630,-0.385
5269,-0.635,-0.375
5270,-0.625,-0.365
5271,-0.620,-0.350
5272,-0.610,-0.360
5273,-0.605,-0.360
5274,-0.595,-0.355
5275,-0.595,-0.355
5276,-0.600,-0.370
5277,-0.595,-0.375
5278,-0.610,-0.380
5279,-0.600,-0.395
5280,-0.605,-0.400
5281,-0.600,-0.380
5282,-0.595,-0.385
5283,-0.570,-0.380
5284,-0.550,-0.380
5285,-0.530,-0.375
5286,-0.490,-0.370
5287,-0.450,-0.380
5288,-0.405,-0.380
5289,-0.330,-0.400
5290,-0.255,-0.400
5291,-0.130,-0.405
5292,0.010,-0.420
5293,0.165,-0.425
5294,0.380,-0.455
5295,0.625,-0.495
5296,0.825,-0.570
5297,1.010,-0.650
5298,1.145,-0.760
5299,1.250,-0.885
5300,1.315,-0.990
5301,1.385,-1.110
5302,1.430,-1.230
5303,1.380,-1.340
5304,1.185,-1.460
5305,0.865,-1.540
5306,0.480,-1.595
5307,0.075,-1.610
5308,-0.295,-1.565
5309,-0.560,-1.495
5310,-0.710,-1.370
5311,-0.775,-1.255
5312,-0.770,-1.145
5313,-0.750,-1.055
5314,-0.750,-0.975
5315,-0.730,-0.895
5316,-0.725,-0.850
5317,-0.715,-0.790
5318,-0.725,-0.715
5319,-0.705,-0.660
5320,-0.700,-0.585
5321,-0.685,-0.505
5322,-0.690,-0.445
5323,-0.675,-0.430
5324,-0.690,-0.395
5325,-0.700,-0.395
5326,-0.710,-0.400
5327,-0.725,-0.390
5328,-0.730,-0.405
5329,-0.735,-0.385
5330,-0.730,-0.390
5331,-0.740,-0.370
5332,-0.735,-0.360
5333,-0.730,-0.345
5334,-0.725,-0.340
5335,-0.720,-0.350
5336,-0.730,-0.350
5337,-0.740,-0.350
5338,-0.745,-0.350
5339,-0.755,-0.360
5340,-0.760,-0.360
5341,-0.780,-0.355
5342,-0.770,-0.350
5343,-0.775,-0.340
5344,-0.765,-0.350
5345,-0.765,-0.330
5346,-0.755,-0.320
5347,-0.760,-0.315
5348,-0.760,-0.320
5349,-0.760,-0.325
5350,-0.775,-0.340
5351,-0.785,-0.335
5352,-0.795,-0.330
5353,-0.800,-0.330
5354,-0.805,-0.340
5355,-0.800,-0.325
5356,-0.805,-0.310
5357,-0.800,-0.305
5358,-0.795,-0.295
5359,-0.785,-0.300
5360,-0.795,-0.310
5361,-0.810,-0.310
5362,-0.815,-0.310
5363,-0.835,-0.315
5364,-0.855,-0.310
5365,-0.850,-0.305
5366,-0.860,-0.295
5367,-0.855,-0.290
5368,-0.855,-0.280
5369,-0.855,-0.275
5370,-0.850,-0.270
5371,-0.850,-0.260
5372,-0.860,-0.275
5373,-0.875,-0.275
5374,-0.880,-0.265
5375,-0.880,-0.275
5376,-0.895,-0.260
5377,-0.905,-0.260
5378,-0.905,-0.255
5379,-0.900,-0.235
5380,-0.890,-0.215
5381,-0.890,-0.200
5382,-0.880,-0.210
5383,-0.880,-0.195
5384,-0.880,-0.205
5385,-0.885,-0.195
5386,-0.885,-0.205
5387,-0.885,-0.210
5388,-0.885,-0.200
5389,-0.880,-0.195
5390,-0.885,-0.195
5391,-0.865,-0.180
5392,-0.855,-0.170
5393,-0.845,-0.150
5394,-0.835,-0.160
5395,-0.815,-0.170
5396,-0.815,-0.170
5397,-0.795,-0.180
5398,-0.785,-0.190
5399,-0.770,-0.190
5400,-0.775,-0.210
5401,-0.755,-0.205
5402,-0.730,-0.205
5403,-0.715,-0.195
5404,-0.685,-0.195
5405,-0.670,-0.205
5406,-0.645,-0.195
5407,-0.630,-0.210
5408,-0.640,-0.235
5409,-0.625,-0.250
5410,-0.625,-0.265
5411,-0.615,-0.275
5412,-0.625,-0.290
5413,-0.625,-0.295
5414,-0.615,-0.295
5415,-0.605,-0.295
5416,-0.600,-0.300
5417,-0.595,-0.290
5418,-0.590,-0.290
5419,-0.580,-0.310
5420,-0.570,-0.310
5421,-0.580,-0.330
5422,-0.595,-0.335
5423,-0.585,-0.340
5424,-0.595,-0.350
5425,-0.600,-0.345
5426,-0.605,-0.340
5427,-0.590,-0.340
5428,-0.585,-0.330
5429,-0.585,-0.335
5430,-0.575,-0.335
5431,-0.575,-0.350
5432,-0.590,-0.350
5433,-0.600,-0.355
5434,-0.615,-0.360
5435,-0.620,-0.370
5436,-0.640,-0.375
5437,-0.630,-0.365
5438,-0.630,-0.380
5439,-0.640,-0.360
5440,-0.625,-0.350
5441,-0.605,-0.365
5442,-0.600,-0.350
5443,-0.610,-0.370
5444,-0.610,-0.360
5445,-0.610,-0.365
5446,-0.620,-0.380
5447,-0.640,-0.380
5448,-0.635,-0.385
5449,-0.655,-0.370
5450,-0.655,-0.375
5451,-0.655,-0.350
5452,-0.640,-0.355
5453,-0.635,-0.340
5454,-0.635,-0.340
5455,-0.640,-0.350
5456,-0.630,-0.360
5457,-0.640,-0.370
5458,-0.645,-0.365
5459,-0.660,-0.370
5460,-0.650,-0.370
5461,-0.660,-0.360
5462,-0.675,-0.345
5463,-0.645,-0.345
5464,-0.650,-0.340
5465,-0.650,-0.340
5466,-0.640,-0.345
5467,-0.635,-0.340
5468,-0.650,-0.340
5469,-0.635,-0.355
5470,-0.635,-0.355
5471,-0.650,-0.365
5472,-0.645,-0.365
5473,-0.640,-0.355
5474,-0.645,-0.355
5475,-0.635,-0.350
5476,-0.620,-0.340
5477,-0.625,-0.335
5478,-0.605,-0.330
5479,-0.605,-0.330
5480,-0.605,-0.335
5481,-0.605,-0.340
5482,-0.610,-0.345
5483,-0.630,-0.355
5484,-0.625,-0.365
5485,-0.620,-0.360
5486,-0.605,-0.360
5487,-0.595,-0.345
5488,-0.585,-0.335
5489,-0.575,-0.335
5490,-0.565,-0.325
5491,-0.555,-0.345
5492,-0.540,-0.335
5493,-0.545,-0.345
5494,-0.560,-0.350
5495,-0.565,-0.355
5496,-0.560,-0.350
5497,-0.550,-0.345
5498,-0.550,-0.335
5499,-0.550,-0.335
5500,-0.535,-0.330
5501,-0.515,-0.305
5502,-0.500,-0.305
5503,-0.480,-0.315
5504,-0.470,-0.305
5505,-0.455,-0.325
5506,-0.465,-0.325
5507,-0.450,-0.350
5508,-0.460,-0.355
5509,-0.460,-0.355
5510,-0.445,-0.375
5511,-0.445,-0.375
5512,-0.435,-0.375
5513,-0.445,-0.385
5514,-0.440,-0.395
5515,-0.445,-0.400
5516,-0.460,-0.410
5517,-0.475,-0.410
5518,-0.485,-0.405
5519,-0.500,-0.405
5520,-0.530,-0.405
5521,-0.540,-0.395
5522,-0.550,-0.385
5523,-0.550,-0.375
5524,-0.555,-0.360
5525,-0.565,-0.355
5526,-0.565,-0.345
5527,-0.580,-0.345
5528,-0.590,-0.345
5529,-0.620,-0.365
5530,-0.625,-0.355
5531,-0.635,-0.360
5532,-0.650,-0.370
5533,-0.660,-0.355
5534,-0.655,-0.345
5535,-0.640,-0.345
5536,-0.635,-0.345
5537,-0.635,-0.330
5538,-0.620,-0.325
5539,-0.610,-0.335
5540,-0.610,-0.340
5541,-0.625,-0.345
5542,-0.625,-0.350
5543,-0.630,-0.360
5544,-0.625,-0.370
5545,-0.630,-0.360
5546,-0.640,-0.360
5547,-0.630,-0.350
5548,-0.605,-0.360
5549,-0.605,-0.335
5550,-0.590,-0.350
5551,-0.575,-0.345
5552,-0.565,-0.350
5553,-0.555,-0.360
5554,-0.535,-0.370
5555,-0.515,-0.380
5556,-0.475,-0.380
5557,-0.395,-0.370
5558,-0.280,-0.380
5559,-0.135,-0.370
5560,0.025,-0.365
5561,0.220,-0.380
5562,0.435,-0.420
5563,0.645,-0.485
5564,0.840,-0.560
5565,1.005,-0.675
5566,1.135,-0.805
5567,1.220,-0.925
5568,1.310,-1.035
5569,1.360,-1.145
5570,1.380,-1.245
5571,1.295,-1.340
5572,1.095,-1.440
5573,0.780,-1.515
5574,0.425,-1.565
5575,0.050,-1.590
5576,-0.280,-1.565
5577,-0.525,-1.510
5578,-0.670,-1.430
5579,-0.745,-1.325
5580,-0.755,-1.230
5581,-0.760,-1.115
5582,-0.745,-1.025
5583,-0.740,-0.935
5584,-0.750,-0.865
5585,-0.735,-0.795
5586,-0.725,-0.715
5587,-0.720,-0.665
5588,-0.705,-0.590
5589,-0.700,-0.525
5590,-0.695,-0.475
5591,-0.710,-0.430
5592,-0.715,-0.405
5593,-0.735,-0.390
5594,-0.730,-0.365
5595,-0.730,-0.365
5596,-0.725,-0.345
5597,-0.730,-0.350
5598,-0.720,-0.330
5599,-0.725,-0.345
5600,-0.730,-0.335
5601,-0.725,-0.330
5602,-0.740,-0.335
5603,-0.740,-0.335
5604,-0.750,-0.345
5605,-0.765,-0.330
5606,-0.770,-0.325
5607,-0.775,-0.315
5608,-0.760,-0.310
5609,-0.765,-0.305
5610,-0.750,-0.305
5611,-0.760,-0.315
5612,-0.755,-0.320
5613,-0.765,-0.315
5614,-0.780,-0.330
5615,-0.775,-0.335
5616,-0.795,-0.335
5617,-0.790,-0.320
5618,-0.785,-0.310
5619,-0.790,-0.310
5620,-0.790,-0.310
5621,-0.780,-0.295
5622,-0.795,-0.290
5623,-0.790,-0.295
5624,-0.780,-0.290
5625,-0.790,-0.295
5626,-0.805,-0.305
5627,-0.815,-0.310
5628,-0.825,-0.310
5629,-0.830,-0.300
5630,-0.825,-0.290
5631,-0.835,-0.290
5632,-0.825,-0.280
5633,-0.830,-0.270
5634,-0.820,-0.265
5635,-0.815,-0.260
5636,-0.830,-0.270
5637,-0.830,-0.275
5638,-0.850,-0.270
5639,-0.870,-0.265
5640,-0.875,-0.275
5641,-0.880,-0.270
5642,-0.885,-0.260
5643,-0.880,-0.250
5644,-0.890,-0.240
5645,-0.885,-0.215
5646,-0.880,-0.210
5647,-0.880,-0.215
5648,-0.885,-0.200
5649,-0.890,-0.215
5650,-0.910,-0.220
5651,-0.900,-0.215
5652,-0.905,-0.215
5653,-0.915,-0.205
5654,-0.900,-0.190
5655,-0.900,-0.175
5656,-0.895,-0.165
5657,-0.890,-0.160
5658,-0.875,-0.145
5659,-0.875,-0.150
5660,-0.865,-0.145
5661,-0.865,-0.150
5662,-0.865,-0.155
5663,-0.855,-0.160
5664,-0.860,-0.165
5665,-0.850,-0.165
5666,-0.835,-0.155
5667,-0.820,-0.145
5668,-0.795,-0.140
5669,-0.775,-0.145
5670,-0.750,-0.140
5671,-0.740,-0.160
5672,-0.725,-0.155
5673,-0.720,-0.180
5674,-0.710,-0.185
5675,-0.695,-0.200
5676,-0.700,-0.215
5677,-0.690,-0.200
5678,-0.680,-0.220
5679,-0.670,-0.215
5680,-0.650,-0.220
5681,-0.645,-0.210
5682,-0.640,-0.220
5683,-0.625,-0.240
5684,-0.625,-0.235
5685,-0.615,-0.255
5686,-0.625,-0.270
5687,-0.640,-0.275
5688,-0.635,-0.285
5689,-0.620,-0.275
5690,-0.625,-0.285
5691,-0.630,-0.280
5692,-0.610,-0.280
5693,-0.610,-0.280
5694,-0.600,-0.270
5695,-0.595,-0.285
5696,-0.600,-0.295
5697,-0.610,-0.305
5698,-0.615,-0.320
5699,-0.625,-0.330
5700,-0.630,-0.335
5701,-0.625,-0.325
5702,-0.620,-0.325
5703,-0.610,-0.320
5704,-0.615,-0.325
5705,-0.615,-0.320
5706,-0.620,-0.300
5707,-0.635,-0.315
5708,-0.625,-0.315
5709,-0.620,-0.335
5710,-0.625,-0.345
5711,-0.640,-0.350
5712,-0.640,-0.350
5713,-0.650,-0.350
5714,-0.650,-0.335
5715,-0.665,-0.340
5716,-0.655,-0.325
5717,-0.655,-0.325
5718,-0.660,-0.320
5719,-0.650,-0.320
5720,-0.650,-0.320
5721,-0.655,-0.335
5722,-0.655,-0.335
5723,-0.675,-0.340
5724,-0.690,-0.345
5725,-0.695,-0.340
5726,-0.700,-0.330
5727,-0.680,-0.330
5728,-0.680,-0.325
5729,-0.660,-0.315
5730,-0.675,-0.310
5731,-0.655,-0.305
5732,-0.660,-0.315
5733,-0.665,-0.315
5734,-0.675,-0.320
5735,-0.685,-0.330
5736,-0.680,-0.335
5737,-0.675,-0.335
5738,-0.675,-0.320
5739,-0.675,-0.325
5740,-0.660,-0.315
5741,-0.660,-0.315
5742,-0.645,-0.300
5743,-0.650,-0.300
5744,-0.655,-0.305
5745,-0.655,-0.320
5746,-0.655,-0.315
5747,-0.665,-0.320
5748,-0.665,-0.335
5749,-0.675,-0.325
5750,-0.670,-0.310
5751,-0.660,-0.310
5752,-0.640,-0.305
5753,-0.640,-0.290
5754,-0.620,-0.290
5755,-0.625,-0.295
5756,-0.630,-0.305
5757,-0.620,-0.305
5758,-0.635,-0.315
5759,-0.630,-0.330
5760,-0.630,-0.335
5761,-0.620,-0.320
5762,-0.615,-0.325
5763,-0.610,-0.315
5764,-0.595,-0.315
5765,-0.590,-0.300
5766,-0.565,-0.295
5767,-0.560,-0.295
5768,-0.565,-0.305
5769,-0.565,-0.300
5770,-0.560,-0.310
5771,-0.565,-0.310
5772,-0.570,-0.315
5773,-0.570,-0.300
5774,-0.560,-0.300
5775,-0.555,-0.290
5776,-0.540,-0.295
5777,-0.515,-0.280
5778,-0.505,-0.270
5779,-0.490,-0.275
5780,-0.470,-0.300
5781,-0.460,-0.315
5782,-0.460,-0.320
5783,-0.465,-0.340
5784,-0.465,-0.365
5785,-0.480,-0.365
5786,-0.485,-0.380
5787,-0.485,-0.395
5788,-0.485,-0.390
5789,-0.470,-0.380
5790,-0.475,-0.370
5791,-0.485,-0.370
5792,-0.510,-0.365
5793,-0.535,-0.365
5794,-0.545,-0.360
5795,-0.560,-0.365
5796,-0.580,-0.365
5797,-0.590,-0.355
5798,-0.600,-0.350
5799,-0.605,-0.330
5800,-0.620,-0.325
5801,-0.620,-0.320
5802,-0.625,-0.305
5803,-0.635,-0.320
5804,-0.635,-0.315
5805,-0.630,-0.335
5806,-0.645,-0.335
5807,-0.650,-0.335
5808,-0.655,-0.340
5809,-0.655,-0.350
5810,-0.655,-0.340
5811,-0.650,-0.340
5812,-0.635,-0.320
5813,-0.635,-0.325
5814,-0.620,-0.305
5815,-0.630,-0.325
5816,-0.620,-0.330
5817,-0.620,-0.335
5818,-0.615,-0.350
5819,-0.625,-0.345
5820,-0.620,-0.350
5821,-0.615,-0.340
5822,-0.600,-0.350
5823,-0.600,-0.340
5824,-0.575,-0.345
5825,-0.555,-0.340
5826,-0.515,-0.320
5827,-0.475,-0.335
5828,-0.410,-0.340
5829,-0.350,-0.350
5830,-0.275,-0.360
5831,-0.165,-0.365
5832,-0.055,-0.375
5833,0.070,-0.360
5834,0.225,-0.385
5835,0.390,-0.405
5836,0.580,-0.440
5837,0.775,-0.495
5838,0.945,-0.575
5839,1.075,-0.680
5840,1.180,-0.800
5841,1.250,-0.920
5842,1.315,-1.030
5843,1.375,-1.150
5844,1.355,-1.255
5845,1.235,-1.375
5846,0.980,-1.465
5847,0.620,-1.550
5848,0.200,-1.585
5849,-0.195,-1.580
5850,-0.515,-1.505
5851,-0.710,-1.400
5852,-0.810,-1.275
5853,-0.825,-1.150
5854,-0.800,-1.040
5855,-0.780,-0.965
5856,-0.745,-0.885
5857,-0.735,-0.820
5858,-0.725,-0.740
5859,-0.710,-0.665
5860,-0.715,-0.590
5861,-0.705,-0.525
5862,-0.695,-0.455
5863,-0.705,-0.420
5864,-0.710,-0.390
5865,-0.720,-0.380
5866,-0.735,-0.370
5867,-0.740,-0.370
5868,-0.740,-0.370
5869,-0.750,-0.355
5870,-0.755,-0.350
5871,-0.765,-0.350
5872,-0.750,-0.335
5873,-0.740,-0.315
5874,-0.735,-0.310
5875,-0.745,-0.315
5876,-0.745,-0.310
5877,-0.755,-0.320
5878,-0.755,-0.330
5879,-0.760,-0.325
5880,-0.765,-0.340
5881,-0.775,-0.335
5882,-0.775,-0.320
5883,-0.780,-0.305
5884,-0.770,-0.300
5885,-0.780,-0.290
5886,-0.775,-0.295
5887,-0.775,-0.300
5888,-0.775,-0.295
5889,-0.795,-0.310
5890,-0.800,-0.315
5891,-0.800,-0.320
5892,-0.810,-0.330
5893,-0.820,-0.320
5894,-0.810,-0.310
5895,-0.805,-0.315
5896,-0.805,-0.305
5897,-0.805,-0.295
5898,-0.800,-0.290
5899,-0.810,-0.285
5900,-0.810,-0.305
5901,-0.820,-0.295
5902,-0.825,-0.300
5903,-0.840,-0.310
5904,-0.845,-0.310
5905,-0.850,-0.305
5906,-0.855,-0.295
5907,-0.845,-0.290
5908,-0.855,-0.290
5909,-0.845,-0.280
5910,-0.840,-0.270
5911,-0.845,-0.275
5912,-0.850,-0.270
5913,-0.855,-0.270
5914,-0.865,-0.275
5915,-0.875,-0.285
5916,-0.885,-0.285
5917,-0.900,-0.275
5918,-0.905,-0.270
5919,-0.915,-0.250
5920,-0.905,-0.240
5921,-0.905,-0.240
5922,-0.905,-0.225
5923,-0.900,-0.225
5924,-0.910,-0.220
5925,-0.915,-0.225
5926,-0.920,-0.220
5927,-0.925,-0.215
5928,-0.930,-0.220
5929,-0.935,-0.210
5930,-0.930,-0.195
5931,-0.930,-0.180
5932,-0.910,-0.170
5933,-0.895,-0.160
5934,-0.875,-0.160
5935,-0.880,-0.155
5936,-0.870,-0.145
5937,-0.870,-0.145
5938,-0.865,-0.160
5939,-0.875,-0.165
5940,-0.860,-0.170
5941,-0.850,-0.165
5942,-0.840,-0.160
5943,-0.820,-0.155
5944,-0.795,-0.140
5945,-0.770,-0.150
5946,-0.745,-0.150
5947,-0.735,-0.150
5948,-0.720,-0.155
5949,-0.705,-0.175
5950,-0.700,-0.180
5951,-0.680,-0.205
5952,-0.690,-0.215
5953,-0.680,-0.210
5954,-0.660,-0.215
5955,-0.655,-0.210
5956,-0.650,-0.220
5957,-0.645,-0.210
5958,-0.615,-0.230
5959,-0.630,-0.240
5960,-0.630,-0.245
5961,-0.625,-0.260
5962,-0.635,-0.265
5963,-0.630,-0.275
5964,-0.640,-0.290
5965,-0.640,-0.300
5966,-0.640,-0.300
5967,-0.650,-0.285
5968,-0.630,-0.285
5969,-0.615,-0.280
5970,-0.615,-0.275
5971,-0.605,-0.290
5972,-0.615,-0.290
5973,-0.615,-0.300
5974,-0.625,-0.320
5975,-0.645,-0.330
5976,-0.655,-0.320
5977,-0.650,-0.325
5978,-0.655,-0.320
5979,-0.650,-0.320
5980,-0.640,-0.315
5981,-0.645,-0.310
5982,-0.640,-0.300
5983,-0.635,-0.310
5984,-0.640,-0.315
5985,-0.645,-0.320
5986,-0.655,-0.330
5987,-0.670,-0.335
5988,-0.675,-0.345
5989,-0.675,-0.340
5990,-0.675,-0.330
5991,-0.685,-0.325
5992,-0.665,-0.315
5993,-0.660,-0.305
5994,-0.655,-0.310
5995,-0.655,-0.295
5996,-0.655,-0.305
5997,-0.650,-0.325
5998,-0.670,-0.320
5999,-0.680,-0.325
6000,-0.695,-0.325
6001,-0.695,-0.315
6002,-0.695,-0.310
6003,-0.690,-0.300
6004,-0.680,-0.300
6005,-0.675,-0.300
6006,-0.660,-0.285
6007,-0.650,-0.295
6008,-0.655,-0.300
6009,-0.660,-0.305
6010,-0.665,-0.310
6011,-0.670,-0.320
6012,-0.680,-0.325
6013,-0.680,-0.315
6014,-0.675,-0.305
6015,-0.660,-0.305
6016,-0.660,-0.300
6017,-0.635,-0.285
6018,-0.625,-0.285
6019,-0.620,-0.285
6020,-0.625,-0.280
6021,-0.620,-0.295
6022,-0.640,-0.315
6023,-0.640,-0.315
6024,-0.645,-0.320
6025,-0.645,-0.325
6026,-0.630,-0.315
6027,-0.630,-0.315
6028,-0.625,-0.305
6029,-0.605,-0.295
6030,-0.600,-0.280
6031,-0.585,-0.285
6032,-0.590,-0.305
6033,-0.590,-0.310
6034,-0.585,-0.315
6035,-0.595,-0.320
6036,-0.605,-0.325
6037,-0.590,-0.310
6038,-0.595,-0.300
6039,-0.580,-0.295
6040,-0.570,-0.285
6041,-0.560,-0.275
6042,-0.540,-0.270
6043,-0.530,-0.275
6044,-0.530,-0.275
6045,-0.510,-0.285
6046,-0.510,-0.285
6047,-0.505,-0.290
6048,-0.505,-0.305
6049,-0.505,-0.305
6050,-0.480,-0.310
6051,-0.475,-0.310
6052,-0.470,-0.315
6053,-0.450,-0.320
6054,-0.445,-0.325
6055,-0.450,-0.340
6056,-0.455,-0.355
6057,-0.475,-0.375
6058,-0.475,-0.385
6059,-0.500,-0.410
6060,-0.500,-0.395
6061,-0.530,-0.380
6062,-0.545,-0.375
6063,-0.560,-0.355
6064,-0.570,-0.340
6065,-0.565,-0.320
6066,-0.570,-0.305
6067,-0.570,-0.315
6068,-0.600,-0.320
6069,-0.615,-0.315
6070,-0.630,-0.325
6071,-0.655,-0.325
6072,-0.665,-0.330
6073,-0.665,-0.320
6074,-0.670,-0.325
6075,-0.660,-0.325
6076,-0.645,-0.310
6077,-0.650,-0.310
6078,-0.640,-0.305
6079,-0.620,-0.315
6080,-0.625,-0.310
6081,-0.635,-0.320
6082,-0.645,-0.325
6083,-0.630,-0.340
6084,-0.645,-0.330
6085,-0.660,-0.335
6086,-0.645,-0.330
6087,-0.630,-0.320
6088,-0.610,-0.325
6089,-0.590,-0.315
6090,-0.570,-0.310
6091,-0.550,-0.305
6092,-0.540,-0.325
6093,-0.505,-0.330
6094,-0.480,-0.345
6095,-0.430,-0.340
6096,-0.360,-0.355
6097,-0.270,-0.340
6098,-0.150,-0.345
6099,-0.010,-0.330
6100,0.155,-0.350
6101,0.360,-0.365
6102,0.565,-0.410
6103,0.770,-0.475
6104,0.950,-0.565
6105,1.070,-0.680
6106,1.175,-0.800
6107,1.265,-0.935
6108,1.315,-1.040
6109,1.355,-1.155
6110,1.325,-1.265
6111,1.170,-1.365
6112,0.885,-1.465
6113,0.500,-1.530
6114,0.095,-1.550
6115,-0.270,-1.540
6116,-0.550,-1.470
6117,-0.735,-1.370
6118,-0.820,-1.260
6119,-0.815,-1.160
6120,-0.785,-1.065
6121,-0.770,-0.970
6122,-0.745,-0.895
6123,-0.735,-0.820
6124,-0.730,-0.750
6125,-0.720,-0.690
6126,-0.710,-0.625
6127,-0.690,-0.555
6128,-0.690,-0.505
6129,-0.690,-0.435
6130,-0.700,-0.395
6131,-0.705,-0.370
6132,-0.725,-0.340
6133,-0.740,-0.320
6134,-0.740,-0.310
6135,-0.745,-0.305
6136,-0.745,-0.300
6137,-0.735,-0.285
6138,-0.720,-0.280
6139,-0.720,-0.275
6140,-0.725,-0.275
6141,-0.740,-0.275
6142,-0.740,-0.285
6143,-0.750,-0.270
6144,-0.760,-0.280
6145,-0.755,-0.280
6146,-0.755,-0.275
6147,-0.750,-0.260
6148,-0.755,-0.250
6149,-0.770,-0.240
6150,-0.755,-0.225
6151,-0.745,-0.235
6152,-0.765,-0.240
6153,-0.765,-0.245
6154,-0.775,-0.260
6155,-0.780,-0.260
6156,-0.790,-0.260
6157,-0.795,-0.250
6158,-0.790,-0.250
6159,-0.795,-0.230
6160,-0.795,-0.235
6161,-0.795,-0.215
6162,-0.785,-0.220
6163,-0.775,-0.225
6164,-0.785,-0.225
6165,-0.785,-0.240
6166,-0.795,-0.250
6167,-0.795,-0.240
6168,-0.815,-0.230
6169,-0.830,-0.235
6170,-0.820,-0.225
6171,-0.825,-0.215
6172,-0.820,-0.210
6173,-0.810,-0.210
6174,-0.815,-0.185
6175,-0.815,-0.200
6176,-0.830,-0.200
6177,-0.835,-0.210
6178,-0.840,-0.215
6179,-0.850,-0.205
6180,-0.855,-0.215
6181,-0.865,-0.205
6182,-0.865,-0.195
6183,-0.870,-0.190
6184,-0.870,-0.180
6185,-0.875,-0.165
6186,-0.865,-0.165
6187,-0.875,-0.150
6188,-0.885,-0.150
6189,-0.880,-0.155
6190,-0.890,-0.155
6191,-0.905,-0.145
6192,-0.910,-0.150
6193,-0.900,-0.145
6194,-0.910,-0.130
6195,-0.905,-0.115
6196,-0.890,-0.105
6197,-0.890,-0.095
6198,-0.865,-0.080
6199,-0.870,-0.085
6200,-0.870,-0.080
6201,-0.860,-0.080
6202,-0.860,-0.090
6203,-0.860,-0.095
6204,-0.860,-0.090
6205,-0.855,-0.090
6206,-0.840,-0.085
6207,-0.825,-0.075
6208,-0.800,-0.075
6209,-0.795,-0.065
6210,-0.765,-0.065
6211,-0.750,-0.075
6212,-0.740,-0.075
6213,-0.720,-0.085
6214,-0.705,-0.100
6215,-0.695,-0.115
6216,-0.680,-0.140
6217,-0.675,-0.130
6218,-0.650,-0.135
6219,-0.645,-0.130
6220,-0.620,-0.145
6221,-0.615,-0.145
6222,-0.600,-0.150
6223,-0.585,-0.155
6224,-0.585,-0.165
6225,-0.585,-0.185
6226,-0.595,-0.200
6227,-0.595,-0.200
6228,-0.595,-0.205
6229,-0.610,-0.215
6230,-0.595,-0.225
6231,-0.605,-0.210
6232,-0.610,-0.210
6233,-0.600,-0.200
6234,-0.600,-0.195
6235,-0.600,-0.215
6236,-0.590,-0.205
6237,-0.595,-0.225
6238,-0.610,-0.235
6239,-0.615,-0.235
6240,-0.615,-0.260
6241,-0.625,-0.260
6242,-0.620,-0.250
6243,-0.630,-0.250
6244,-0.640,-0.245
6245,-0.620,-0.230
6246,-0.625,-0.225
6247,-0.610,-0.235
6248,-0.610,-0.240
6249,-0.610,-0.250
6250,-0.620,-0.260
6251,-0.630,-0.270
6252,-0.630,-0.265
6253,-0.640,-0.270
6254,-0.640,-0.260
6255,-0.635,-0.255
6256,-0.640,-0.255
6257,-0.625,-0.245
6258,-0.625,-0.245
6259,-0.620,-0.250
6260,-0.620,-0.255
6261,-0.630,-0.255
6262,-0.640,-0.250
6263,-0.645,-0.265
6264,-0.660,-0.275
6265,-0.665,-0.275
6266,-0.660,-0.265
6267,-0.645,-0.255
6268,-0.645,-0.255
6269,-0.640,-0.235
6270,-0.645,-0.235
6271,-0.635,-0.245
6272,-0.635,-0.255
6273,-0.645,-0.250
6274,-0.645,-0.250
6275,-0.655,-0.270
6276,-0.655,-0.270
6277,-0.670,-0.265
6278,-0.655,-0.275
6279,-0.650,-0.255
6280,-0.645,-0.235
6281,-0.650,-0.250
6282,-0.625,-0.235
6283,-0.620,-0.245
6284,-0.620,-0.255
6285,-0.640,-0.255
6286,-0.640,-0.255
6287,-0.630,-0.265
6288,-0.640,-0.275
6289,-0.645,-0.270
6290,-0.640,-0.270
6291,-0.630,-0.270
6292,-0.615,-0.250
6293,-0.625,-0.250
6294,-0.605,-0.240
6295,-0.585,-0.245
6296,-0.600,-0.250
6297,-0.595,-0.265
6298,-0.575,-0.265
6299,-0.580,-0.285
6300,-0.585,-0.280
6301,-0.585,-0.280
6302,-0.575,-0.265
6303,-0.560,-0.260
6304,-0.560,-0.260
6305,-0.550,-0.240
6306,-0.550,-0.230
6307,-0.530,-0.230
6308,-0.535,-0.240
6309,-0.510,-0.240
6310,-0.515,-0.245
6311,-0.515,-0.250
6312,-0.495,-0.250
6313,-0.500,-0.265
6314,-0.480,-0.255
6315,-0.490,-0.260
6316,-0.455,-0.250
6317,-0.450,-0.260
6318,-0.430,-0.265
6319,-0.430,-0.285
6320,-0.425,-0.290
6321,-0.435,-0.315
6322,-0.460,-0.325
6323,-0.465,-0.345
6324,-0.480,-0.350
6325,-0.490,-0.350
6326,-0.500,-0.330
6327,-0.530,-0.325
6328,-0.550,-0.320
6329,-0.555,-0.295
6330,-0.550,-0.270
6331,-0.555,-0.270
6332,-0.565,-0.275
6333,-0.575,-0.275
6334,-0.590,-0.285
6335,-0.615,-0.300
6336,-0.645,-0.285
6337,-0.665,-0.290
6338,-0.660,-0.280
6339,-0.660,-0.275
6340,-0.655,-0.265
6341,-0.645,-0.255
6342,-0.630,-0.255
6343,-0.620,-0.260
6344,-0.620,-0.275
6345,-0.620,-0.280
6346,-0.635,-0.275
6347,-0.645,-0.295
6348,-0.645,-0.305
6349,-0.640,-0.300
6350,-0.630,-0.300
6351,-0.640,-0.295
6352,-0.620,-0.280
6353,-0.610,-0.280
6354,-0.590,-0.275
6355,-0.570,-0.280
6356,-0.570,-0.285
6357,-0.555,-0.290
6358,-0.540,-0.310
6359,-0.495,-0.320
6360,-0.435,-0.320
6361,-0.350,-0.320
6362,-0.220,-0.310
6363,-0.065,-0.310
6364,0.120,-0.325
6365,0.355,-0.325
6366,0.600,-0.370
6367,0.810,-0.445
6368,0.985,-0.555
6369,1.130,-0.680
6370,1.230,-0.805
6371,1.310,-0.930
6372,1.350,-1.045
6373,1.330,-1.145
6374,1.180,-1.260
6375,0.925,-1.350
6376,0.545,-1.425
6377,0.120,-1.465
6378,-0.265,-1.450
6379,-0.555,-1.405
6380,-0.745,-1.330
6381,-0.820,-1.225
6382,-0.830,-1.125
6383,-0.800,-1.040
6384,-0.775,-0.945
6385,-0.770,-0.885
6386,-0.755,-0.805
6387,-0.755,-0.730
6388,-0.745,-0.635
6389,-0.730,-0.570
6390,-0.715,-0.490
